k [1/Mpc],P(k) [Mpc^3]
0.0001,125.11675286165266
0.00010392556829367125,130.02409851230667
0.00010800523745162529,135.1235734092825
0.00011224505680853065,140.42265579749372
0.00011665131316981963,145.92911146056494
0.00012123054013376525,151.65100363857619
0.00012598952777950273,157.59670487948532
0.00013093533273536104,163.77490619505107
0.00013607528864243335,170.19462417467307
0.00014141701702890234,176.8652182908569
0.00014696843861124463,183.79639494385307
0.00015273778503907136,190.99822130692593
0.00015873361110102093,198.481146161967
0.00016496480740980205,206.2560154398939
0.0001714406135851971,214.33408529341335
0.00017817063195457305,222.72702242772172
0.00018516484179121546,231.44691384996017
0.000192433614111598,240.50629406836697
0.00019998772705352857,249.918144846361
0.0002078383818579757,259.6959204903949
0.00021599721947827182,269.85356501668616
0.0002244763378413224,280.4055221943737
0.0002332883097864157,291.3667602806389
0.00024244620170823283,302.752765025301
0.0002519635929317015,314.5795638074556
0.0002618545958474233,326.8637426039765
0.0002721338768375308,339.62242561009384
0.0002828166780230032,352.87332906627574
0.0002939188398646886,366.6347753579019
0.0003054568246515432,380.9257098842729
0.00031744774091091926,395.76571631100154
0.00032990936877709396,411.1749656047489
0.00034286018635565856,427.17427969255345
0.00035631939712285854,443.7851457678937
0.000370306958400514,461.0297139366436
0.00038484361094874304,478.9308380669592
0.0003999509097203664,497.51199217111133
0.00041565125582259895,516.7973256541493
0.00043196792973341727,536.8117102313396
0.0004489251258218605,557.5807191903673
0.0004665479882234472,579.1306741633941
0.000484862648123908,601.4885439670929
0.000503896262506515,624.6819603434478
0.0005236770544204653,648.7392920389793
0.0005442343548300266,673.6895671878248
0.0005655986461065005,699.5625462677334
0.0005878016072274912,726.3886409239334
0.0006108761607505036,754.198866758597
0.0006348565216305217,783.024941534384
0.0006597782479539537,812.899148427836
0.0006856782936641739,843.8544026097073
0.0007125950633568407,875.9241897227599
0.0007405684692262436,909.1424168181375
0.0007696399902471156,943.5435593209398
0.0007998527336796708,979.1624769066473
0.000831251498989063,1016.0344279139664
0.0008638828442740447,1054.1950337544588
0.000897795155303332,1093.6799315509438
0.0009330387172620361,1134.525002073555
0.0009696657893145519,1176.7660523981892
0.001007730682094461,1220.4386890649705
0.0010472898382363582,1265.5784763551262
0.0010884019160690055,1312.2204221807938
0.0011311278765939214,1360.399179872049
0.001175531073878369,1410.1486729787116
0.0012216773489967915,1461.5016281812195
0.0012696351276599736,1514.4899929977926
0.0013194755216767058,1569.1442719977454
0.0013712724343984,1625.4936048599116
0.0014251026703029975,1683.5656102104904
0.0014810460488806749,1743.3856244619062
0.0015391855229902056,1804.977159004001
0.001599607301861487,1868.361507324314
0.0016624009789266115,1933.5575604554442
0.0017276596646690358,2000.5815528643423
0.0017954801246878305,2069.445682018966
0.0018659629231817451,2140.1587601614556
0.001939212572065829,2212.7257954942256
0.0020153376859417325,2287.147479023146
0.002094451143151469,2363.4204528889345
0.002176670253153458,2441.5364398325864
0.002262116930469025,2521.482303101691
0.002350917875457286,2603.2396067948857
0.002443204762186487,2686.7837384656177
0.0025391144336803463,2772.084345396665
0.002638789104828933,2859.104294781089
0.002742376573264949,2947.79956318021
0.0028500304385181063,3038.119241951169
0.0029619103297725525,3130.00444818722
0.0030781821425650787,3223.3888050105725
0.003199018284775064,3318.1978004058483
0.0033245979322709396,3414.3484173690167
0.003455107294592217,3511.7493107343116
0.0035907398910610534,3610.299543901133
0.0037316968377327513,3709.88911329098
0.0038781871456107214,3810.3982558320213
0.0040304280305680515,3911.696497275717
0.00418864523543527,4013.6437445914894
0.004353073364731888,4116.088252599579
0.00452395623253805,4218.8673951383425
0.004701547224022131,4321.80871876898
0.004886109671160325,4424.72960749744
0.005077917243205399,4527.437201229063
0.005277254352483535,4629.7145723812455
0.005484416576121017,4731.321020364745
0.005699711094326071,4832.014774151617
0.005923457145875801,4931.5924298831915
0.006155986501483508,5029.857578962462
0.006397643955748424,5126.532340315224
0.0066487878384172625,5221.219515798193
0.0069097905457156435,5313.5085520421035
0.007181039092537346,5403.059465942978
0.007462935686310132,5489.56520120608
0.007755898323389004,5572.712187373854
0.00806036140886134,5652.176657151045
0.008376776400682916,5727.629198751402
0.008705612479099857,5798.687484977017
0.009047357242349292,5864.929483294443
0.00940251742967013,5925.92590400225
0.009771619672696168,5981.224753225558
0.010155211276345676,6030.372907079864
0.010553861030365234,6072.899708749932
0.010968160052731372,6108.316198894208
0.011398722666160517,6136.142553707143
0.011846187309026826,6155.887298108107
0.012311217482038896,6167.072243215977
0.012794502732078732,6169.210386616482
0.013296759674662111,6161.779942399959
0.013818733056536317,6144.2893835545265
0.014361196859990781,6116.220872050745
0.014924955450518284,6077.072521230921
0.015510844769528393,6026.387276699043
0.016119733573881575,5963.710439992831
0.01675252472408214,5888.667404335603
0.017410156523040152,5800.894550025345
0.018093604107387147,5700.0644285057615
0.01880388089340914,5585.966750337806
0.019542040079740527,5458.423609514418
0.02030917620904734,5317.404254332564
0.021106426791015535,5162.989127343757
0.021934973989050584,4995.351515386535
0.02279604637318978,4814.8843375527285
0.023690920741826323,4622.092237530068
0.02462092401494623,4417.6934445883635
0.02558743520168586,4202.638622253534
0.02659188744512693,3978.0424855985934
0.027635770147361564,3745.2994082370788
0.028720631177978267,3506.0161057868204
0.029848079169243254,3262.0117956079116
0.03101978590138095,3015.334391085067
0.03223748878149028,2768.2080750544515
0.0335029934197723,2522.96535522458
0.03481817630688963,2282.1107508157625
0.03618498759642746,2048.197348942996
0.037605453996581675,1823.6005711121757
0.03908168177536263,1610.7069614514999
0.04061585988376978,1411.4862956736372
0.04221026320156896,1227.8036026600603
0.04386725591048496,1061.506342910617
0.0455892949998106,913.4318155305966
0.047378933909631396,784.1017434170058
0.049238826317067365,673.3258259415772
0.05117173007114603,580.3600031044141
0.05318051128214196,504.6674283499025
0.05526814857144601,445.17223765703847
0.057437737488265785,400.78768277032583
0.0596924950997073,370.672247409975
0.0620357647610427,353.5176715793822
0.06447102107323864,347.6194677010619
0.06700187503509585,351.9064417389565
0.06963207939763882,365.5442610100773
0.0723655342286965,387.4233843704712
0.07520629269592405,415.2606495203972
0.07815856707684081,445.9758567965712
0.08122673500479707,475.4678052661909
0.08441534596012978,498.9756103801464
0.0877291280161335,511.62770872562135
0.09117299484984914,509.41052934278696
0.09475205302806537,489.85562846247115
0.09847160957933764,452.7150120140219
0.1023371798632519,400.2104260359523
0.10635449574860109,336.93934114586483
0.11052951411260206,270.2762376790967
0.1148684256737553,207.9821291522419
0.1193776641714435,156.00298174877102
0.1240639159058831,117.37435201021998
0.12893412965257148,92.402229003791
0.13399552696593373,79.82950354506234
0.1392556128874462,78.13498330134769
0.14472218707411338,85.77257066697307
0.15040335536380234,100.82571389626888
0.15630754179458153,119.78752605760275
0.16244350109588662,136.45160172572176
0.16882033167003618,143.25825983711317
0.17544748908334581,135.60461546844195
0.1823348000868439,114.92121034229378
0.189492477187382,87.67861679537539
0.19693113379074215,62.10044894842207
0.20466179993919872,44.25432486308465
0.21269593866686892,35.86062038150389
0.22104546299710207,35.765779095868325
0.22972275360711503,42.00519426644766
0.23874067718606454,50.87533084306347
0.2481126055137766,56.20407293713643
0.25785243528842716,53.09387109518149
0.26797460873256895,42.42917116581509
0.27849413500806414,30.474400812533567
0.28942661247167484,22.682862874060312
0.3007882518043098,20.619162814014505
0.31259590004822796,23.02825317752947
0.324867065587837,26.389017743452047
0.3376199441111335,26.36008077059103
0.35087344559027084,21.863744553124153
0.36464722232127456,16.48437636007891
0.37896169806447155,13.686877705734018
0.3938380983288488,13.896374106652964
0.4092984818452433,14.97138546429053
0.4253657732750382,14.208890051571924
0.44206379720285277,11.640597768207405
0.45941731346364734,9.62385266756664
0.47745205385661277,9.241247260181089
0.4961947603002895,9.35832348079356
0.5156732244854959,8.522601519965537
0.5359163290848509,7.185739806890044
0.556954090580013,6.5223294109773935
0.5788177037701272,6.342538236788964
0.6015395880274836,5.804826189273851
0.6251534353689703,5.071708976704874
0.6496942604146115,4.682308477401719
0.6751984523072497,4.384886639997326
0.7017038286703824,3.9351793016845535
0.7292496916841444,3.5681303848512846
0.7578768863625915,3.311000160741643
0.7876278611187046,3.0470880995740157
0.8185467307069019,2.78325810821337
0.850679341636415,2.5292069054546347
0.8840733401525058,2.291909054055771
0.9187782428863317,2.0759280083036025
0.9548455102782278,1.8835287639793976
0.9923286228832539,1.7126148456541368
1.0312831606721837,1.5596293745743472
1.0717668854455022,1.4216706470712053
1.1138398264826193,1.296385336392979
1.1575643695533022,1.1818663845437667
1.2030053494233226,1.0766792361493716
1.2502301459914542,0.9801361643071697
1.299308784200415,0.8917304177496888
1.3503140378698726,0.810947676059225
1.4033215376054824,0.7372744182275641
1.4584098829439835,0.6702047952284856
1.5156607589006013,0.6092184843904861
1.575159057091621,0.5537565556076955
1.6369930016117014,0.5033031003472301
1.7012542798525885,0.4573934019609683
1.7680381784572046,0.41560847845944426
1.8374437246107238,0.3775703826709238
1.9095738328780953,0.3429439675563576
1.9845354578058014,0.3114327746265557
2.0624397525140905,0.28276550878487516
2.143402233514853,0.25669333787934084
2.227542951999554,0.2329881740668387
2.314986671851158,0.2114409917771203
2.405863054644063,0.19185925908709628
2.5003068519063225,0.1740662760800876
2.598458104929248,0.15790096357744585
2.7004623524206774,0.14321653307206741
2.806470846309834,0.12987923849747118
2.916640776023701,0.11776725510724757
3.031135501567576,0.10676974693889345
3.150124795755327,0.09678578421711308
3.2737850959485697,0.08772340725765042
3.4022997656780634,0.07949884659053567
3.5358593665351745,0.07203580943349615
3.6746619407366854,0.06526482421931488
3.8189133047818515,0.059122637734533204
3.968827354637162,0.05355167868659477
4.1246263829013445,0.048499559794149674
4.286541408420921,0.043918620045554906
4.4548125188449825,0.039765506441304665
4.629689226627261,0.03600079067513179
4.811430839003257,0.032588619534232456
5.000306842491082,0.02949639921864158
5.196597302486189,0.026694504579033586
5.400593278542364,0.0241560134176529
5.612597255954967,0.02185646387712609
5.8329235942862,0.019773627642475415
6.06189899349756,0.017887310186042546
6.29986297838068,0.01617917488777265
6.547168402004727,0.014632574908585444
6.804181968927091,0.013232399627073255
7.071284778942991,0.011964935083868975
7.348872892180382,0.010817739293972218
7.637357916378006,0.00977952408623145
7.937167617217536,0.008840047481177718
8.248746552614573,0.007990018102041774
8.572556731909314,0.007221008209871145
8.909078300934132,0.006525374020713598
9.258810253973934,0.005896181530715227
9.622271173675122,0.005327144033636173
9.999999999999984,0.004812563580215004
