k [1/Mpc],P(k) [Mpc^3]
0.0001,20.173832224942696
0.00010392556829367125,21.086932167986376
0.00010800523745162529,22.041337801098923
0.00011224505680853065,23.03891414455794
0.00011665131316981963,24.081609969575375
0.00012123054013376525,25.17146182525757
0.00012598952777950273,26.31059799901832
0.00013093533273536104,27.501242570161832
0.00013607528864243335,28.745719973374623
0.00014141701702890234,30.04645931700893
0.00014696843861124463,31.40599737013401
0.00015273778503907136,32.82698173788855
0.00015873361110102093,34.31217837308489
0.00016496480740980205,35.86448008517459
0.0001714406135851971,37.48691146030728
0.00017817063195457305,39.182630925361586
0.00018516484179121546,40.95493187799472
0.000192433614111598,42.80725314672543
0.00019998772705352857,44.74318891562435
0.0002078383818579757,46.7664960470167
0.00021599721947827182,48.88109797280808
0.0002244763378413224,51.091086576161445
0.0002332883097864157,53.400732822002375
0.00024244620170823283,55.8144980333098
0.0002519635929317015,58.33704356237734
0.0002618545958474233,60.97323639091647
0.0002721338768375308,63.72814809281503
0.0002828166780230032,66.60706641735689
0.0002939188398646886,69.61551189729354
0.0003054568246515432,72.7592518090794
0.00031744774091091926,76.04430640894466
0.00032990936877709396,79.476948788199
0.00034286018635565856,83.06371411610287
0.00035631939712285854,86.81141875036377
0.000370306958400514,90.72716988779491
0.00038484361094874304,94.81837902815073
0.0003999509097203664,99.09276893918367
0.00041565125582259895,103.55838120904633
0.00043196792973341727,108.22359628260317
0.0004489251258218605,113.09713702978145
0.0004665479882234472,118.18808585663318
0.000484862648123908,123.50590154032645
0.000503896262506515,129.060427769335
0.0005236770544204653,134.86191315433874
0.0005442343548300266,140.92100857398225
0.0005655986461065005,147.24878060729094
0.0005878016072274912,153.85673940008505
0.0006108761607505036,160.75684109522018
0.0006348565216305217,167.96151316097306
0.0006597782479539537,175.48366219799414
0.0006856782936641739,183.33668094173572
0.0007125950633568407,191.53447699616632
0.0007405684692262436,200.09145480018137
0.0007696399902471156,209.02254487762787
0.0007998527336796708,218.3432324059476
0.000831251498989063,228.0695626425178
0.0008638828442740447,238.2181663733741
0.000897795155303332,248.80622042223314
0.0009330387172620361,259.85146060350945
0.0009696657893145519,271.3722369540211
0.001007730682094461,283.38751215178155
0.0010472898382363582,295.91688719829114
0.0010884019160690055,308.98054465324003
0.0011311278765939214,322.5992122555323
0.001175531073878369,336.794254114242
0.0012216773489967915,351.5876314874799
0.0012696351276599736,367.00193221254455
0.0013194755216767058,383.06033929433676
0.0013712724343984,399.78652938601755
0.0014251026703029975,417.2047770058428
0.0014810460488806749,435.3398346164183
0.0015391855229902056,454.21692843906226
0.001599607301861487,473.8618191625932
0.0016624009789266115,494.3006825140943
0.0017276596646690358,515.5601696208654
0.0017954801246878305,537.6672571817275
0.0018659629231817451,560.6491339452178
0.001939212572065829,584.5333204966182
0.0020153376859417325,609.3474511591614
0.002094451143151469,635.1193153819958
0.002176670253153458,661.8767507132062
0.002262116930469025,689.6473704848195
0.002350917875457286,718.4587346556475
0.002443204762186487,748.3381509801314
0.0025391144336803463,779.3126102111735
0.002638789104828933,811.4087087704431
0.002742376573264949,844.652200528571
0.0028500304385181063,879.0681648468556
0.0029619103297725525,914.6808345866164
0.0030781821425650787,951.5134049023994
0.003199018284775064,989.5880210638338
0.0033245979322709396,1028.9253040901742
0.003455107294592217,1069.5443711390715
0.0035907398910610534,1111.462607865252
0.0037316968377327513,1154.69520982401
0.0038781871456107214,1199.2553405254614
0.0040304280305680515,1245.1536316984684
0.00418864523543527,1292.398042926862
0.004353073364731888,1340.993694119229
0.00452395623253805,1390.9420281499806
0.004701547224022131,1442.2411058073292
0.004886109671160325,1494.8851007908418
0.005077917243205399,1548.8639104132506
0.005277254352483535,1604.1632244376322
0.005484416576121017,1660.763370041382
0.005699711094326071,1718.6395755749813
0.005923457145875801,1777.7617450617488
0.006155986501483508,1838.0937831431347
0.006397643955748424,1899.5936461183776
0.0066487878384172625,1962.2095360109568
0.0069097905457156435,2025.8803902209706
0.007181039092537346,2090.540337228004
0.007462935686310132,2156.124644095105
0.007755898323389004,2222.5635187559
0.00806036140886134,2289.7620089406023
0.008376776400682916,2357.5949825854846
0.008705612479099857,2425.9275935280402
0.009047357242349292,2494.629760046365
0.00940251742967013,2563.568136641805
0.009771619672696168,2632.601555531078
0.010155211276345676,2701.5819133708205
0.010553861030365234,2770.351606225851
0.010968160052731372,2838.726417813349
0.011398722666160517,2906.5006587097205
0.011846187309026826,2973.456094965014
0.012311217482038896,3039.3573851328247
0.012794502732078732,3103.9578374580915
0.013296759674662111,3166.9948650155648
0.013818733056536317,3228.190042637072
0.014361196859990781,3287.255139058395
0.014924955450518284,3343.8851684858423
0.015510844769528393,3397.7660012904876
0.016119733573881575,3448.5683737168106
0.01675252472408214,3495.9407478752237
0.017410156523040152,3539.5276058340773
0.018093604107387147,3578.96147364784
0.01880388089340914,3613.8711627919515
0.019542040079740527,3643.8864641535633
0.02030917620904734,3668.62827979266
0.021106426791015535,3687.7285426377252
0.021934973989050584,3700.8268816462587
0.02279604637318978,3707.575506764161
0.023690920741826323,3707.654124765745
0.02462092401494623,3700.7687450015205
0.02558743520168586,3686.6629512604895
0.02659188744512693,3665.130212676488
0.027635770147361564,3636.0213713720755
0.028720631177978267,3599.2461732438423
0.029848079169243254,3554.8064792396185
0.03101978590138095,3502.782310594377
0.03223748878149028,3443.3442251005354
0.0335029934197723,3376.803094619605
0.03481817630688963,3303.5391969229113
0.03618498759642746,3224.0855701629907
0.037605453996581675,3139.101748707845
0.03908168177536263,3049.309397903317
0.04061585988376978,2955.6487620394787
0.04221026320156896,2859.0885361397554
0.04386725591048496,2760.681981193302
0.0455892949998106,2661.606128965524
0.047378933909631396,2562.9719974069208
0.049238826317067365,2466.0886452440886
0.05117173007114603,2372.251574967779
0.05318051128214196,2282.5115722823634
0.05526814857144601,2197.6220621561215
0.057437737488265785,2118.213483039279
0.0596924950997073,2045.2664369804336
0.0620357647610427,1980.0010867460805
0.06447102107323864,1922.9927554882304
0.06700187503509585,1873.214626955818
0.06963207939763882,1829.500492049925
0.0723655342286965,1791.036545915494
0.07520629269592405,1757.0884242523139
0.07815856707684081,1726.1052660191876
0.08122673500479707,1696.1126806177056
0.08441534596012978,1664.7398733898804
0.0877291280161335,1629.489915451232
0.09117299484984914,1587.812704697872
0.09475205302806537,1537.6855730664868
0.09847160957933764,1477.965840049972
0.1023371798632519,1408.714946418454
0.10635449574860109,1331.1767093160952
0.11052951411260206,1247.7068248795308
0.1148684256737553,1161.3783669123138
0.1193776641714435,1075.7680551324338
0.1240639159058831,994.8775110164091
0.12893412965257148,922.7163009610473
0.13399552696593373,862.5126254976517
0.1392556128874462,815.8408608678621
0.14472218707411338,782.1797843385447
0.15040335536380234,758.8788599085261
0.15630754179458153,741.8922566084002
0.16244350109588662,726.3084265131854
0.16882033167003618,706.9843802583766
0.17544748908334581,679.6416891799789
0.1823348000868439,642.303916180313
0.189492477187382,596.1353021765906
0.19693113379074215,545.2709698559776
0.20466179993919872,495.89907663596335
0.21269593866686892,454.17073459739953
0.22104546299710207,423.4730872470868
0.22972275360711503,403.42211059921726
0.23874067718606454,390.6666746891802
0.2481126055137766,379.54538648239463
0.25785243528842716,363.97140949726503
0.26797460873256895,341.19599843791906
0.27849413500806414,313.0783818583996
0.28942661247167484,284.6162406302822
0.3007882518043098,261.2444550197674
0.31259590004822796,245.16706536626165
0.324867065587837,234.5085977172832
0.3376199441111335,224.4257197619383
0.35087344559027084,210.96454819022432
0.36464722232127456,194.29182775503716
0.37896169806447155,177.68850422744944
0.3938380983288488,164.67345808566486
0.4092984818452433,155.27572665287565
0.4253657732750382,146.8143300971128
0.44206379720285277,136.8190165091245
0.45941731346364734,125.94255630004939
0.47745205385661277,116.33002723133792
0.4961947603002895,108.76182157731692
0.5156732244854959,101.84139947135645
0.5359163290848509,94.43234638299576
0.556954090580013,87.17517235561077
0.5788177037701272,80.95610516842729
0.6015395880274836,75.40863522525272
0.6251534353689703,69.87677490296971
0.6496942604146115,64.60847373362738
0.6751984523072497,59.92918534976948
0.7017038286703824,55.56657010428134
0.7292496916841444,51.38265745052754
0.7578768863625915,47.54933520363871
0.7876278611187046,44.01411086016122
0.8185467307069019,40.68155763607056
0.850679341636415,37.60580816772581
0.8840733401525058,34.753753306218336
0.9187782428863317,32.10352469426749
0.9548455102782278,29.642973892049362
0.9923286228832539,27.36041715362971
1.0312831606721837,25.244651684189606
1.0717668854455022,23.284952990301278
1.1138398264826193,21.470781487722387
1.1575643695533022,19.79188738998193
1.2030053494233226,18.238683212235664
1.2502301459914542,16.80222111233295
1.299308784200415,15.474153286367153
1.3503140378698726,14.246706564287036
1.4033215376054824,13.112687047415289
1.4584098829439835,12.0653902427577
1.5156607589006013,11.098552438737078
1.575159057091621,10.206325612024571
1.6369930016117014,9.383253192766157
1.7012542798525885,8.624238496072271
1.7680381784572046,7.924523029482223
1.8374437246107238,7.279679400526571
1.9095738328780953,6.685591221796064
1.9845354578058014,6.1384330781655345
2.0624397525140905,5.634651780602943
2.143402233514853,5.170949360161293
2.227542951999554,4.744265304576321
2.314986671851158,4.351760275861612
2.405863054644063,3.990801319784494
2.5003068519063225,3.658947945292592
2.598458104929248,3.3539381421997128
2.7004623524206774,3.0736757470931573
2.806470846309834,2.8162208038757077
2.916640776023701,2.579778806533351
3.031135501567576,2.3626904234415838
3.150124795755327,2.1634218748179284
3.2737850959485697,1.9805558425322538
3.4022997656780634,1.812783189427618
3.5358593665351745,1.6588952131888177
3.6746619407366854,1.5177763321949886
3.8189133047818515,1.3883972659329071
3.968827354637162,1.2698085234401184
4.1246263829013445,1.1611343338816142
4.286541408420921,1.0615675687978403
4.4548125188449825,0.9703646537810927
4.629689226627261,0.8868407721320407
4.811430839003257,0.8103654002108925
5.000306842491082,0.7403580441090026
5.196597302486189,0.6762844960430955
5.400593278542364,0.6176533978988332
5.612597255954967,0.5640129297475285
5.8329235942862,0.5149477398374095
6.06189899349756,0.47007609691035646
6.29986297838068,0.4290472500635614
6.547168402004727,0.3915390147310931
6.804181968927091,0.35725552526018667
7.071284778942991,0.32592515299809927
7.348872892180382,0.2972985803069622
7.637357916378006,0.27114697939046595
7.937167617217536,0.24726039166556263
8.248746552614573,0.2254462661899307
8.572556731909314,0.2055280578527524
8.909078300934132,0.18734393254379383
9.258810253973934,0.17074556010763395
9.622271173675122,0.15559697450412083
9.999999999999984,0.14177362298594634
