k [1/Mpc],P(k) [Mpc^3]
0.0001,70.33047474002444
0.00010392556829367125,73.09064008275423
0.00010800523745162529,75.9590685652989
0.00011224505680853065,78.94000423951665
0.00011665131316981963,82.03785392224066
0.00012123054013376525,85.25719082470175
0.00012598952777950273,88.60276602058227
0.00013093533273536104,92.07951904578442
0.00013607528864243335,95.69258401920393
0.00014141701702890234,99.44729325499017
0.00014696843861124463,103.34918097007031
0.00015273778503907136,107.40399540481735
0.00015873361110102093,111.61770885435983
0.00016496480740980205,115.99652628943603
0.0001714406135851971,120.54689350503243
0.00017817063195457305,125.27550610003078
0.00018516484179121546,130.18931915873964
0.000192433614111598,135.29555188060849
0.00019998772705352857,140.6016948646031
0.0002078383818579757,146.11552716578277
0.00021599721947827182,151.84513062832954
0.0002244763378413224,157.7988999711283
0.0002332883097864157,163.9855457151047
0.00024244620170823283,170.4140957842835
0.0002519635929317015,177.093921070533
0.0002618545958474233,184.0347607203759
0.0002721338768375308,191.24673433931102
0.0002828166780230032,198.74034141905202
0.0002939188398646886,206.52645388525423
0.0003054568246515432,214.61634818724858
0.00031744774091091926,223.02172008884855
0.00032990936877709396,231.7546981734191
0.00034286018635565856,240.8278651638078
0.00035631939712285854,250.2542736563159
0.000370306958400514,260.04746339231895
0.00038484361094874304,270.2214598412393
0.0003999509097203664,280.7907722903845
0.00041565125582259895,291.7704384671106
0.00043196792973341727,303.176040848639
0.0004489251258218605,315.0237268834773
0.0004665479882234472,327.3302143647893
0.000484862648123908,340.11277350041803
0.000503896262506515,353.38928145482447
0.0005236770544204653,367.17824826750564
0.0005442343548300266,381.498837005473
0.0005655986461065005,396.3708710540448
0.0005878016072274912,411.8147872347237
0.0006108761607505036,427.8517005003312
0.0006348565216305217,444.5034331972042
0.0006597782479539537,461.7925259718825
0.0006856782936641739,479.74226613810424
0.0007125950633568407,498.37662788974313
0.0007405684692262436,517.7203234390792
0.0007696399902471156,537.798856930555
0.0007998527336796708,558.638532636201
0.000831251498989063,580.266481538452
0.0008638828442740447,602.7105710538506
0.000897795155303332,625.9994264118084
0.0009330387172620361,650.162510749356
0.0009696657893145519,675.2300759824132
0.001007730682094461,701.2332276089064
0.0010472898382363582,728.2038641932844
0.0010884019160690055,756.1746459292981
0.0011311278765939214,785.1790847237849
0.001175531073878369,815.2514146315249
0.0012216773489967915,846.426668813328
0.0012696351276599736,878.7406258560809
0.0013194755216767058,912.229659797765
0.0013712724343984,946.9309096862715
0.0014251026703029975,982.8820821953508
0.0014810460488806749,1020.1214793666816
0.0015391855229902056,1058.6879963320675
0.001599607301861487,1098.620768835891
0.0016624009789266115,1139.9594302543678
0.0017276596646690358,1182.7439553221714
0.0017954801246878305,1227.0145701887254
0.0018659629231817451,1272.8118146429301
0.001939212572065829,1320.1760438514414
0.0020153376859417325,1369.1476383593986
0.002094451143151469,1419.7668158437812
0.002176670253153458,1472.0732921453828
0.002262116930469025,1526.1065413524611
0.002350917875457286,1581.905218344245
0.002443204762186487,1639.5072157248646
0.0025391144336803463,1698.9495870166932
0.002638789104828933,1760.2679117719724
0.002742376573264949,1823.4966457064206
0.0028500304385181063,1888.6685824614342
0.0029619103297725525,1955.8146608360616
0.0030781821425650787,2024.9640177496178
0.003199018284775064,2096.143067135307
0.0033245979322709396,2169.375828736244
0.003455107294592217,2244.6835507726764
0.0035907398910610534,2322.0842399599705
0.0037316968377327513,2401.592804212118
0.0038781871456107214,2483.219909387624
0.0040304280305680515,2566.9721362088
0.00418864523543527,2652.8517209567412
0.004353073364731888,2740.8556034343305
0.00452395623253805,2830.975868070011
0.004701547224022131,2923.198374335621
0.004886109671160325,3017.5025842216814
0.005077917243205399,3113.861672374301
0.005277254352483535,3212.2408204294143
0.005484416576121017,3312.598043583287
0.005699711094326071,3414.8829614346982
0.005923457145875801,3519.03601115931
0.006155986501483508,3624.989266316166
0.006397643955748424,3732.66467440896
0.0066487878384172625,3841.9746090143203
0.0069097905457156435,3952.8184758842876
0.007181039092537346,4065.078347534104
0.007462935686310132,4178.625488415064
0.007755898323389004,4293.331331607097
0.00806036140886134,4409.064685428011
0.008376776400682916,4525.670312672043
0.008705612479099857,4642.934352239282
0.009047357242349292,4760.618385760658
0.00940251742967013,4878.486799540711
0.009771619672696168,4996.309541121024
0.010155211276345676,5113.844550866529
0.010553861030365234,5230.835469005008
0.010968160052731372,5347.013016989247
0.011398722666160517,5462.0803034379915
0.011846187309026826,5575.701847162667
0.012311217482038896,5687.524643745978
0.012794502732078732,5797.168776805975
0.013296759674662111,5904.233873559911
0.013818733056536317,6008.302109648902
0.014361196859990781,6108.930555735497
0.014924955450518284,6205.6635377317
0.015510844769528393,6298.023577125453
0.016119733573881575,6385.51496757849
0.01675252472408214,6467.63053909089
0.017410156523040152,6543.829709084987
0.018093604107387147,6613.563893653325
0.01880388089340914,6676.273898800346
0.019542040079740527,6731.388223087722
0.02030917620904734,6778.343610973191
0.021106426791015535,6816.568829983575
0.021934973989050584,6845.504439330054
0.02279604637318978,6864.610371719547
0.023690920741826323,6873.360219871573
0.02462092401494623,6871.267387775781
0.02558743520168586,6857.888909717091
0.02659188744512693,6832.834562360412
0.027635770147361564,6795.783361615466
0.028720631177978267,6746.5020030091455
0.029848079169243254,6684.839163650494
0.03101978590138095,6610.766509925742
0.03223748878149028,6524.386020177952
0.0335029934197723,6425.907559985961
0.03481817630688963,6315.750170930932
0.03618498759642746,6194.45370266263
0.037605453996581675,6062.729940639477
0.03908168177536263,5921.528335570099
0.04061585988376978,5771.869158403896
0.04221026320156896,5615.063282045139
0.04386725591048496,5452.553946210167
0.0455892949998106,5285.83486439282
0.047378933909631396,5116.632919909509
0.049238826317067365,4946.607110336654
0.05117173007114603,4777.640442079137
0.05318051128214196,4611.756398188215
0.05526814857144601,4450.664948798864
0.057437737488265785,4295.518001598641
0.0596924950997073,4147.208594094692
0.0620357647610427,4007.0811109727856
0.06447102107323864,3877.1489975601553
0.06700187503509585,3758.8399023757306
0.06963207939763882,3651.205517944674
0.0723655342286965,3552.603778080665
0.07520629269592405,3461.5086087202035
0.07815856707684081,3376.4698761775226
0.08122673500479707,3295.4963270093813
0.08441534596012978,3216.157716964373
0.0877291280161335,3136.1228425811596
0.09117299484984914,3053.005670775834
0.09475205302806537,2963.229116207114
0.09847160957933764,2863.287783151368
0.1023371798632519,2750.8756803962533
0.10635449574860109,2625.5002945784067
0.11052951411260206,2488.622988473961
0.1148684256737553,2343.7371930243667
0.1193776641714435,2195.5352139660567
0.1240639159058831,2049.156478893611
0.12893412965257148,1909.6841139933795
0.13399552696593373,1781.9195588926136
0.1392556128874462,1669.8955155257718
0.14472218707411338,1576.2937837389832
0.15040335536380234,1501.4881960023044
0.15630754179458153,1442.8275490110673
0.16244350109588662,1395.0555991198523
0.16882033167003618,1351.1779153949415
0.17544748908334581,1303.8726178038594
0.1823348000868439,1247.2349044231007
0.189492477187382,1178.567626315486
0.19693113379074215,1099.2644168708102
0.20466179993919872,1014.188697095298
0.21269593866686892,930.442576533049
0.22104546299710207,855.9295020816897
0.22972275360711503,796.4892569937791
0.23874067718606454,752.7081400125095
0.2481126055137766,719.9832882943302
0.25785243528842716,691.1522542538686
0.26797460873256895,658.6669266777027
0.27849413500806414,617.8071326815807
0.28942661247167484,570.0707385893231
0.3007882518043098,521.6372817007478
0.31259590004822796,479.417042072213
0.324867065587837,447.196128503961
0.3376199441111335,423.0639722412199
0.35087344559027084,401.3921154873117
0.36464722232127456,376.55738578212237
0.37896169806447155,347.734279725617
0.3938380983288488,318.9599589870054
0.4092984818452433,294.5946658793766
0.4253657732750382,275.61062275766466
0.44206379720285277,258.8141410993474
0.45941731346364734,240.8531328337142
0.47745205385661277,221.84681292368631
0.4961947603002895,204.45845570135646
0.5156732244854959,190.00258757211517
0.5359163290848509,177.01946529843855
0.556954090580013,163.85371256572017
0.5788177037701272,150.98091663559356
0.6015395880274836,139.58118518856972
0.6251534353689703,129.42136700052205
0.6496942604146115,119.59790964666189
0.6751984523072497,110.2450186983943
0.7017038286703824,101.81994603667708
0.7292496916841444,94.05250216532234
0.7578768863625915,86.6853958499057
0.7876278611187046,79.9016096069798
0.8185467307069019,73.67168632533131
0.850679341636415,67.84606955964843
0.8840733401525058,62.46834618857707
0.9187782428863317,57.506386668200754
0.9548455102782278,52.91222021078353
0.9923286228832539,48.66251364035314
1.0312831606721837,44.734981371439346
1.0717668854455022,41.10831469213104
1.1138398264826193,37.762192081882596
1.1575643695533022,34.67683171551225
1.2030053494233226,31.832943835259794
1.2502301459914542,29.212523705768398
1.299308784200415,26.79883653851838
1.3503140378698726,24.576333571502175
1.4033215376054824,22.530593099939367
1.4584098829439835,20.64833093234406
1.5156607589006013,18.917222585914182
1.575159057091621,17.325795707482374
1.6369930016117014,15.863378890532372
1.7012542798525885,14.520052384806682
1.7680381784572046,13.286584055589659
1.8374437246107238,12.15438717625236
1.9095738328780953,11.115505311917651
1.9845354578058014,10.1625715615487
2.0624397525140905,9.288768320716729
2.143402233514853,8.487790104756336
2.227542951999554,7.753810172999139
2.314986671851158,7.081444088905233
2.405863054644063,6.465717561298679
2.5003068519063225,5.902037462988438
2.598458104929248,5.386164591238246
2.7004623524206774,4.9141860343455885
2.806470846309834,4.482492087491599
2.916640776023701,4.087757023682393
3.031135501567576,3.726918167123878
3.150124795755327,3.397156233649786
3.2737850959485697,3.095876929304853
3.4022997656780634,2.820693666924617
3.5358593665351745,2.569412160149261
3.6746619407366854,2.3400158053338305
3.8189133047818515,2.1306519814155434
3.968827354637162,1.9396193241720334
4.1246263829013445,1.7653556660173666
4.286541408420921,1.606427243228096
4.4548125188449825,1.4615188993572348
4.629689226627261,1.3294246885944496
4.811430839003257,1.20903917095658
5.000306842491082,1.099349259392453
5.196597302486189,0.9994265787520719
5.400593278542364,0.9084209940857361
5.612597255954967,0.8255543337466245
5.8329235942862,0.7501145041846716
6.06189899349756,0.6814500625825788
6.29986297838068,0.6189651765955384
6.547168402004727,0.5621150487636063
6.804181968927091,0.510401723272955
7.071284778942991,0.4633701815046188
7.348872892180382,0.42060474949682686
7.637357916378006,0.38172577667547825
7.937167617217536,0.34638657424610747
8.248746552614573,0.31427068554049536
8.572556731909314,0.2850893309787241
8.909078300934132,0.2585790509295104
9.258810253973934,0.23449953576990815
9.622271173675122,0.21263156156791205
9.999999999999984,0.19277523402899593
