k [1/Mpc],P(k) [Mpc^3]
0.0001,1184.0702597864797
0.00010392556829367125,1223.4485830767514
0.00010800523745162529,1264.135151641714
0.00011224505680853065,1306.173282089035
0.00011665131316981963,1349.6077110500362
0.00012123054013376525,1394.484633908867
0.00012598952777950273,1440.8517498247313
0.00013093533273536104,1488.7583163197476
0.00013607528864243335,1538.255168440057
0.00014141701702890234,1589.3947897629776
0.00014696843861124463,1642.231349583768
0.00015273778503907136,1696.820730995059
0.00015873361110102093,1753.2206327567694
0.00016496480740980205,1811.4906886608612
0.0001714406135851971,1871.6925119047958
0.00017817063195457305,1933.8896629556602
0.00018516484179121546,1998.1475767682819
0.000192433614111598,2064.5337569634326
0.00019998772705352857,2133.1178755874907
0.0002078383818579757,2203.9718408149497
0.00021599721947827182,2277.169849881933
0.0002244763378413224,2352.7883943293555
0.0002332883097864157,2430.90637362126
0.00024244620170823283,2511.6051069677605
0.0002519635929317015,2594.9683381394852
0.0002618545958474233,2681.0824134037166
0.0002721338768375308,2770.036249031285
0.0002828166780230032,2861.921450086265
0.0002939188398646886,2956.832415003847
0.0003054568246515432,3054.866331780919
0.00031744774091091926,3156.1233383070094
0.00032990936877709396,3260.706441088324
0.00034286018635565856,3368.721583748374
0.00035631939712285854,3480.277788521507
0.000370306958400514,3595.486836992995
0.00038484361094874304,3714.4636323493733
0.0003999509097203664,3837.326442310855
0.00041565125582259895,3964.1969994831193
0.00043196792973341727,4095.2004575788637
0.0004489251258218605,4230.4646442735475
0.0004665479882234472,4370.120448182183
0.000484862648123908,4514.302338477051
0.000503896262506515,4663.148467553569
0.0005236770544204653,4816.800667074125
0.0005442343548300266,4975.403560892534
0.0005655986461065005,5139.104610473189
0.0005878016072274912,5308.054928002065
0.0006108761607505036,5482.409341359231
0.0006348565216305217,5662.326440270907
0.0006597782479539537,5847.967667688079
0.0006856782936641739,6039.496772396512
0.0007125950633568407,6237.080956982066
0.0007405684692262436,6440.890719777031
0.0007696399902471156,6651.099981986306
0.0007998527336796708,6867.885524609141
0.000831251498989063,7091.425849209706
0.0008638828442740447,7321.902382712312
0.000897795155303332,7559.498865001284
0.0009330387172620361,7804.401333787714
0.0009696657893145519,8056.79821589067
0.001007730682094461,8316.878686913635
0.0010472898382363582,8584.833742740146
0.0010884019160690055,8860.854991323247
0.0011311278765939214,9145.13371174778
0.001175531073878369,9437.862085822851
0.0012216773489967915,9739.23054059885
0.0012696351276599736,10049.42871875527
0.0013194755216767058,10368.645123926077
0.0013712724343984,10697.064969228148
0.0014251026703029975,11034.871808160507
0.0014810460488806749,11382.243441645192
0.0015391855229902056,11739.351934110411
0.001599607301861487,12106.365183114098
0.0016624009789266115,12483.443653877293
0.0017276596646690358,12870.742052082682
0.0017954801246878305,13268.405754869676
0.0018659629231817451,13676.568604765296
0.001939212572065829,14095.355697078649
0.0020153376859417325,14524.878843961358
0.002094451143151469,14965.237875460924
0.002176670253153458,15416.517648409648
0.002262116930469025,15878.782137727261
0.002350917875457286,16352.079743365442
0.002443204762186487,16836.439796857478
0.0025391144336803463,17331.87212000574
0.002638789104828933,17838.365461053636
0.002742376573264949,18355.878317972634
0.0028500304385181063,18884.344735987932
0.0029619103297725525,19423.672379851752
0.0030781821425650787,19973.74038121002
0.003199018284775064,20534.39946552741
0.0033245979322709396,21105.461179329017
0.003455107294592217,21686.702121529597
0.0035907398910610534,22277.864630199136
0.0037316968377327513,22878.65318633884
0.0038781871456107214,23488.73582238481
0.0040304280305680515,24107.734925222794
0.00418864523543527,24735.22807362768
0.004353073364731888,25370.75020133673
0.00452395623253805,26013.786973408463
0.004701547224022131,26663.77891458495
0.004886109671160325,27320.11448004572
0.005077917243205399,27982.127629456252
0.005277254352483535,28649.10184632042
0.005484416576121017,29320.25502777305
0.005699711094326071,29994.74860723294
0.005923457145875801,30671.68835616968
0.006155986501483508,31350.119603293053
0.006397643955748424,32029.030047459233
0.0066487878384172625,32707.296072316636
0.0069097905457156435,33383.70059085435
0.007181039092537346,34057.01580519387
0.007462935686310132,34726.11090996314
0.007755898323389004,35389.833605265536
0.00806036140886134,36046.69543557965
0.008376776400682916,36694.8390308542
0.008705612479099857,37332.36637955256
0.009047357242349292,37957.576468983316
0.00940251742967013,38568.81614962198
0.009771619672696168,39164.42598787884
0.010155211276345676,39742.76617653502
0.010553861030365234,40302.16103676783
0.010968160052731372,40840.68871617228
0.011398722666160517,41356.27183689738
0.011846187309026826,41846.79959266659
0.012311217482038896,42310.10895804995
0.012794502732078732,42744.02736902058
0.013296759674662111,43146.33786033002
0.013818733056536317,43514.79107754423
0.014361196859990781,43847.16298862186
0.014924955450518284,44141.24465604303
0.015510844769528393,44394.87724789447
0.016119733573881575,44605.877848189724
0.01675252472408214,44771.994282951935
0.017410156523040152,44891.06385438664
0.018093604107387147,44961.011855650424
0.01880388089340914,44979.88917573204
0.019542040079740527,44945.8782420521
0.02030917620904734,44857.25432449172
0.021106426791015535,44712.48572310338
0.021934973989050584,44510.26242236079
0.02279604637318978,44249.51717113109
0.023690920741826323,43929.469354563225
0.02462092401494623,43549.70624684191
0.02558743520168586,43110.13973069585
0.02659188744512693,42611.120303181604
0.027635770147361564,42053.499111401754
0.028720631177978267,41438.49723512926
0.029848079169243254,40768.048042967435
0.03101978590138095,40044.55852103061
0.03223748878149028,39270.95694595057
0.0335029934197723,38451.05240771806
0.03481817630688963,37588.918675377805
0.03618498759642746,36689.45256406326
0.037605453996581675,35758.13225124618
0.03908168177536263,34800.592333230736
0.04061585988376978,33823.41586925001
0.04221026320156896,32833.13190457988
0.04386725591048496,31836.368983607597
0.0455892949998106,30839.94894877194
0.047378933909631396,29850.225408310907
0.049238826317067365,28873.76564878553
0.05117173007114603,27916.772270654805
0.05318051128214196,26983.79577668654
0.05526814857144601,26076.80951420202
0.057437737488265785,25197.318539990178
0.0596924950997073,24348.26698500467
0.0620357647610427,23533.42093476154
0.06447102107323864,22753.13278535449
0.06700187503509585,21996.480465458808
0.06963207939763882,21251.404499808345
0.0723655342286965,20512.55441313699
0.07520629269592405,19780.02338676735
0.07815856707684081,19050.77782034837
0.08122673500479707,18316.215495494253
0.08441534596012978,17568.73402752776
0.0877291280161335,16802.64087754363
0.09117299484984914,16015.827792220321
0.09475205302806537,15211.136157768151
0.09847160957933764,14398.126128394797
0.1023371798632519,13591.76628521622
0.10635449574860109,12807.24677859715
0.11052951411260206,12057.454248859849
0.1148684256737553,11351.661403612496
0.1193776641714435,10696.402785235576
0.1240639159058831,10096.774869826959
0.12893412965257148,9556.168794183242
0.13399552696593373,9071.844283923367
0.1392556128874462,8630.082259741901
0.14472218707411338,8211.276769382552
0.15040335536380234,7794.467518522041
0.15630754179458153,7367.16531030921
0.16244350109588662,6926.568669811212
0.16882033167003618,6478.550625361344
0.17544748908334581,6035.028023564203
0.1823348000868439,5610.375132647542
0.189492477187382,5217.023190410267
0.19693113379074215,4864.171869630009
0.20466179993919872,4555.521950470038
0.21269593866686892,4282.873404495839
0.22104546299710207,4028.1951754504726
0.22972275360711503,3777.6079762259956
0.23874067718606454,3526.3484963504784
0.2481126055137766,3274.2611719477104
0.25785243528842716,3030.3176551055503
0.26797460873256895,2807.3592096035113
0.27849413500806414,2608.2110596829616
0.28942661247167484,2429.4521239067753
0.3007882518043098,2263.912353505696
0.31259590004822796,2103.8840628946245
0.324867065587837,1948.2491232483424
0.3376199441111335,1800.1137784319246
0.35087344559027084,1664.5429103686909
0.36464722232127456,1541.4661836227156
0.37896169806447155,1427.6889483066088
0.3938380983288488,1320.1934460324153
0.4092984818452433,1218.406035676341
0.4253657732750382,1123.877264325481
0.44206379720285277,1037.0450332971227
0.45941731346364734,956.7717420503283
0.47745205385661277,881.7281489160048
0.4961947603002895,811.8868214612603
0.5156732244854959,747.3803858694945
0.5359163290848509,687.7685100948815
0.556954090580013,632.5207376087834
0.5788177037701272,581.3679953733206
0.6015395880274836,534.1347300374474
0.6251534353689703,490.5323750664892
0.6496942604146115,450.2623525259362
0.6751984523072497,413.11601400560085
0.7017038286703824,378.86573833150914
0.7292496916841444,347.29176105003336
0.7578768863625915,318.21092987197073
0.7876278611187046,291.44258443649807
0.8185467307069019,266.81120513665803
0.850679341636415,244.15766028295835
0.8840733401525058,223.34009698146735
0.9187782428863317,204.2199620652356
0.9548455102782278,186.66708229878145
0.9923286228832539,170.55763974603659
1.0312831606721837,155.77994142098703
1.0717668854455022,142.23038640912802
1.1138398264826193,129.81273884613984
1.1575643695533022,118.43767670585896
1.2030053494233226,108.02234639688548
1.2502301459914542,98.4898007681072
1.299308784200415,89.76872891131354
1.3503140378698726,81.79321616744545
1.4033215376054824,74.5023746765024
1.4584098829439835,67.83999306912497
1.5156607589006013,61.754214649434374
1.575159057091621,56.1972576083983
1.6369930016117014,51.12508545755534
1.7012542798525885,46.49712156558074
1.7680381784572046,42.27599911613703
1.8374437246107238,38.42732688368654
1.9095738328780953,34.91944972503932
1.9845354578058014,31.72321844259526
2.0624397525140905,28.811860829479876
2.143402233514853,26.16080920318218
2.227542951999554,23.747528594003366
2.314986671851158,21.5513575506197
2.405863054644063,19.553369585768568
2.5003068519063225,17.736236016179053
2.598458104929248,16.084083431737113
2.7004623524206774,14.582376846577377
2.806470846309834,13.217812719796395
2.916640776023701,11.978219206519233
3.031135501567576,10.852455485341109
3.150124795755327,9.830333557030045
3.2737850959485697,8.902548779033761
3.4022997656780634,8.060606452453202
3.5358593665351745,7.296753983286202
3.6746619407366854,6.603918531514142
3.8189133047818515,5.975649965121543
3.968827354637162,5.406067577093874
4.1246263829013445,4.8898113610472915
4.286541408420921,4.421997499864344
4.4548125188449825,3.998177492984161
4.629689226627261,3.614300293630466
4.811430839003257,3.2666773356430836
5.000306842491082,2.9519521843039245
5.196597302486189,2.6670717528700227
5.400593278542364,2.409259679836225
5.612597255954967,2.1759919560797343
5.8329235942862,1.9649744160712876
6.06189899349756,1.7741223134877415
6.29986297838068,1.6015420767805073
6.547168402004727,1.4455142570934734
6.804181968927091,1.3044779150142425
7.071284778942991,1.1770163593303078
7.348872892180382,1.0618440436236265
7.637357916378006,0.9577947520860355
7.937167617217536,0.8638108715345637
8.248746552614573,0.7789335055354367
8.572556731909314,0.7022934612115421
8.909078300934132,0.6331029968915731
9.258810253973934,0.570648109846352
9.622271173675122,0.5142820020745246
9.999999999999984,0.4634190226077037
