k [1/Mpc],P(k) [Mpc^3]
0.0001,130.31625932160907
0.00010392556829367125,135.8209091968293
0.00010800523745162529,141.55786231719497
0.00011224505680853065,147.53689343200338
0.00011665131316981963,153.76818560948107
0.00012123054013376525,160.2623449799933
0.00012598952777950273,167.03041927324514
0.00013093533273536104,174.08391678591016
0.00013607528864243335,181.43482412446005
0.00014141701702890234,189.09562720192616
0.00014696843861124463,197.07932874767062
0.00015273778503907136,205.39946983865707
0.00015873361110102093,214.0701521004291
0.00016496480740980205,223.10605355940987
0.0001714406135851971,232.52245792179244
0.00017817063195457305,242.33527441826672
0.00018516484179121546,252.56106110796924
0.000192433614111598,263.21705712894
0.00019998772705352857,274.3212062295504
0.0002078383818579757,285.8921876033873
0.00021599721947827182,297.9494347955238
0.0002244763378413224,310.5131553739568
0.0002332883097864157,323.6043764395339
0.00024244620170823283,337.2449615824844
0.0002519635929317015,351.4576499134115
0.0002618545958474233,366.2660919486186
0.0002721338768375308,381.6948725273935
0.0002828166780230032,397.76955812847507
0.0002939188398646886,414.51669717261774
0.0003054568246515432,431.9638601256809
0.00031744774091091926,450.13970267912185
0.00032990936877709396,469.07399354095884
0.00034286018635565856,488.79766471225736
0.00035631939712285854,509.34279732025516
0.000370306958400514,530.74264429481
0.00038484361094874304,553.0317255611407
0.0003999509097203664,576.2458407541795
0.00041565125582259895,600.4221337801456
0.00043196792973341727,625.5991007616182
0.0004489251258218605,651.8165914354153
0.0004665479882234472,679.1159115225458
0.000484862648123908,707.5397756828497
0.000503896262506515,737.1323873912772
0.0005236770544204653,767.9395058848042
0.0005442343548300266,800.0084389297405
0.0005655986461065005,833.3881366849265
0.0005878016072274912,868.129096788603
0.0006108761607505036,904.2834157305765
0.0006348565216305217,941.9048993129228
0.0006597782479539537,981.0489835838483
0.0006856782936641739,1021.7728698981571
0.0007125950633568407,1064.1354970866153
0.0007405684692262436,1108.1975454113028
0.0007696399902471156,1154.0215133231147
0.0007998527336796708,1201.6714672823202
0.000831251498989063,1251.2132304671916
0.0008638828442740447,1302.7143854171366
0.000897795155303332,1356.244181942867
0.0009330387172620361,1411.8736781018608
0.0009696657893145519,1469.675397895889
0.001007730682094461,1529.7234559435
0.0010472898382363582,1592.0935212398967
0.0010884019160690055,1656.8624260779022
0.0011311278765939214,1724.1085100653436
0.001175531073878369,1793.9111859960506
0.0012216773489967915,1866.3509177964531
0.0012696351276599736,1941.5092498279794
0.0013194755216767058,2019.4679766552172
0.0013712724343984,2100.3096417661372
0.0014251026703029975,2184.11703207756
0.0014810460488806749,2270.972856555701
0.0015391855229902056,2360.960052219276
0.001599607301861487,2454.1609105716757
0.0016624009789266115,2550.657322051658
0.0017276596646690358,2650.5300995690636
0.0017954801246878305,2753.8580978268624
0.0018659629231817451,2860.71886795628
0.001939212572065829,2971.1875615700246
0.0020153376859417325,3085.3369553688863
0.002094451143151469,3203.236921944448
0.002176670253153458,3324.952906158344
0.002262116930469025,3450.546756420536
0.002350917875457286,3580.0756785087037
0.002443204762186487,3713.5918629839603
0.0025391144336803463,3851.1423107340092
0.002638789104828933,3992.76728473652
0.002742376573264949,4138.500648527237
0.0028500304385181063,4288.368256301793
0.0029619103297725525,4442.386969943916
0.0030781821425650787,4600.5652360723325
0.003199018284775064,4762.901473183824
0.0033245979322709396,4929.384103826776
0.003455107294592217,5099.989959704582
0.0035907398910610534,5274.682465951492
0.0037316968377327513,5453.412628731653
0.0038781871456107214,5636.116469831193
0.0040304280305680515,5822.715133610329
0.00418864523543527,6013.114543522173
0.004353073364731888,6207.203424673902
0.00452395623253805,6404.853921231096
0.004701547224022131,6605.917495918587
0.004886109671160325,6810.224653057752
0.005077917243205399,7017.586856066114
0.005277254352483535,7227.795252554171
0.005484416576121017,7440.620356141011
0.005699711094326071,7655.795087485955
0.005923457145875801,7873.009617351779
0.006155986501483508,8091.938505707493
0.006397643955748424,8312.294495810624
0.0066487878384172625,8533.794228093984
0.0069097905457156435,8756.043093654305
0.007181039092537346,8978.458765826723
0.007462935686310132,9200.419899430186
0.007755898323389004,9421.425841414031
0.00806036140886134,9641.03941349771
0.008376776400682916,9858.742325911315
0.008705612479099857,10073.828452273423
0.009047357242349292,10285.539922872324
0.00940251742967013,10493.189954213285
0.009771619672696168,10696.152530550142
0.010155211276345676,10893.750077668516
0.010553861030365234,11085.135369246032
0.010968160052731372,11269.402869338013
0.011398722666160517,11445.601975781172
0.011846187309026826,11612.736485266265
0.012311217482038896,11769.793142162986
0.012794502732078732,11915.726736684732
0.013296759674662111,12049.483151961571
0.013818733056536317,12169.964086601934
0.014361196859990781,12275.998037585638
0.014924955450518284,12366.419439291589
0.015510844769528393,12440.011760987163
0.016119733573881575,12495.558323852169
0.01675252472408214,12531.855189167894
0.017410156523040152,12547.658713642082
0.018093604107387147,12541.793137870192
0.01880388089340914,12513.093970963953
0.019542040079740527,12460.450827253231
0.02030917620904734,12382.867955003736
0.021106426791015535,12279.388474645448
0.021934973989050584,12149.225381559549
0.02279604637318978,11991.745614365176
0.023690920741826323,11806.48765904185
0.02462092401494623,11593.255515830087
0.02558743520168586,11352.085988300563
0.02659188744512693,11083.316969363457
0.027635770147361564,10787.644366414594
0.028720631177978267,10466.137671487733
0.029848079169243254,10120.230839547316
0.03101978590138095,9751.873451853324
0.03223748878149028,9363.39457061907
0.0335029934197723,8957.549622790948
0.03481817630688963,8537.699136658288
0.03618498759642746,8107.352634285958
0.037605453996581675,7670.648138190457
0.03908168177536263,7231.979540397021
0.04061585988376978,6795.6883332404495
0.04221026320156896,6366.750846471397
0.04386725591048496,5949.608986171356
0.0455892949998106,5548.886078420204
0.047378933909631396,5169.213009666629
0.049238826317067365,4814.169490262555
0.05117173007114603,4487.195059936522
0.05318051128214196,4190.835445346538
0.05526814857144601,3927.268394986402
0.057437737488265785,3698.828331106883
0.0596924950997073,3506.773180442194
0.0620357647610427,3349.7196103827114
0.06447102107323864,3225.648097082289
0.06700187503509585,3131.371299276663
0.06963207939763882,3063.0333083139153
0.0723655342286965,3016.644470012216
0.07520629269592405,2987.8376107759964
0.07815856707684081,2970.376408385627
0.08122673500479707,2956.150625840071
0.08441534596012978,2935.014371556243
0.0877291280161335,2896.1150961432318
0.09117299484984914,2829.4596143077583
0.09475205302806537,2728.130467828133
0.09847160957933764,2589.628082091749
0.1023371798632519,2416.7419847214524
0.10635449574860109,2215.7660081256463
0.11052951411260206,1996.473701267074
0.1148684256737553,1772.1529867455688
0.1193776641714435,1557.9511129557802
0.1240639159058831,1368.498575503217
0.12893412965257148,1215.1241010808287
0.13399552696593373,1103.773807183172
0.1392556128874462,1034.2718209779637
0.14472218707411338,1001.9118108556979
0.15040335536380234,998.2060917445186
0.15630754179458153,1010.7424023505904
0.16244350109588662,1023.3910018312208
0.16882033167003618,1018.6830068751947
0.17544748908334581,982.56411826555
0.1823348000868439,909.7696098249293
0.189492477187382,808.0979309227796
0.19693113379074215,696.8199820863018
0.20466179993919872,597.3003667127748
0.21269593866686892,524.142801852363
0.22104546299710207,483.32902586669576
0.22972275360711503,471.92323077205646
0.23874067718606454,477.0022082623438
0.2481126055137766,479.96969792930486
0.25785243528842716,464.53304619232864
0.26797460873256895,424.47804105640625
0.27849413500806414,369.32626186866804
0.28942661247167484,317.61001317541366
0.3007882518043098,283.71806877053865
0.31259590004822796,270.29536865315583
0.324867065587837,267.918029514254
0.3376199441111335,262.17166022342894
0.35087344559027084,242.91244565058196
0.36464722232127456,214.16423375090568
0.37896169806447155,188.39700672560167
0.3938380983288488,173.95109437899578
0.4092984818452433,167.86661589942645
0.4253657732750382,160.65911121362493
0.44206379720285277,146.84065701736418
0.45941731346364734,130.76833256423967
0.47745205385661277,119.4388128952736
0.4961947603002895,112.9792826954371
0.5156732244854959,106.07174489781526
0.5359163290848509,96.45000042837795
0.556954090580013,87.49237484710827
0.5788177037701272,81.35893186167552
0.6015395880274836,75.8197963343363
0.6251534353689703,69.29096136722293
0.6496942604146115,63.381344191996035
0.6751984523072497,58.73501064577456
0.7017038286703824,54.10457536578725
0.7292496916841444,49.511094591030805
0.7578768863625915,45.61950893491047
0.7876278611187046,41.97174922382731
0.8185467307069019,38.55663059078808
0.850679341636415,35.40656462289115
0.8840733401525058,32.50319703339699
0.9187782428863317,29.829120547861116
0.9548455102782278,27.367895446737425
0.9923286228832539,25.10402776999811
1.0312831606721837,23.022629177196805
1.0717668854455022,21.109202507566142
1.1138398264826193,19.35033298220636
1.1575643695533022,17.73368870940086
1.2030053494233226,16.247930502320163
1.2502301459914542,14.882638369502809
1.299308784200415,13.628376012459068
1.3503140378698726,12.476543182152648
1.4033215376054824,11.419162788577383
1.4584098829439835,10.448836007201857
1.5156607589006013,9.558704939082146
1.575159057091621,8.742410883709862
1.6369930016117014,7.994034751154261
1.7012542798525885,7.308099632321208
1.7680381784572046,6.679553702529441
1.8374437246107238,6.1037387916699055
1.9095738328780953,5.576361125318318
1.9845354578058014,5.093466063547366
2.0624397525140905,4.651414279211726
2.143402233514853,4.246853341633292
2.227542951999554,3.8766955919630797
2.314986671851158,3.5380982638332243
2.405863054644063,3.2284449324220135
2.5003068519063225,2.9453271446430462
2.598458104929248,2.68652904645845
2.7004623524206774,2.4500139459755563
2.806470846309834,2.233910450155705
2.916640776023701,2.036499567322774
3.031135501567576,1.8562027800750762
3.150124795755327,1.6915710602261125
3.2737850959485697,1.5412745637354064
3.4022997656780634,1.4040931427939556
3.5358593665351745,1.2789076171967235
3.6746619407366854,1.1646917085170279
3.8189133047818515,1.0605044134024368
3.968827354637162,0.9654829572211696
4.1246263829013445,0.8788369308735464
4.286541408420921,0.7998424694057811
4.4548125188449825,0.7278368102345932
4.629689226627261,0.6622132799666859
4.811430839003257,0.6024166620043049
5.000306842491082,0.5479389551174789
5.196597302486189,0.49831548532823206
5.400593278542364,0.4531213078194044
5.612597255954967,0.41196789722342836
5.8329235942862,0.3745000962023225
6.06189899349756,0.34039327183929985
6.29986297838068,0.3093508028331834
6.547168402004727,0.28110174749749656
6.804181968927091,0.2553986708237858
7.071284778942991,0.23201565033399685
7.348872892180382,0.21074644756668282
7.637357916378006,0.1914028312483923
7.937167617217536,0.17381303588850672
8.248746552614573,0.15782035110939077
8.572556731909314,0.14328182928173558
8.909078300934132,0.130067099932471
9.258810253973934,0.11805724710333784
9.622271173675122,0.10714382847487364
9.999999999999984,0.09722801770443332
