k [1/Mpc],P(k) [Mpc^3]
0.0001,93.74233137816277
0.00010392556829367125,97.4209500866629
0.00010800523745162529,101.24381636092849
0.00011224505680853065,105.2165740685749
0.00011665131316981963,109.34508660941847
0.00012123054013376525,113.63544479621329
0.00012598952777950273,118.09397543422159
0.00013093533273536104,122.72725089346764
0.00013607528864243335,127.54209597874134
0.00014141701702890234,132.54559926043024
0.00014696843861124463,137.74512185822783
0.00015273778503907136,143.14830565279496
0.00015873361110102093,148.76308793152924
0.00016496480740980205,154.59771792070796
0.0001714406135851971,160.66076733307054
0.00017817063195457305,166.96113454721075
0.00018516484179121546,173.5080452691432
0.000192433614111598,180.31107639788578
0.00019998772705352857,187.38017229265583
0.0002078383818579757,194.72565862844132
0.00021599721947827182,202.3582552690516
0.0002244763378413224,210.2890851677342
0.0002332883097864157,218.52969315717795
0.00024244620170823283,227.09205602291317
0.0002519635929317015,235.98859211579085
0.0002618545958474233,245.2321869563019
0.0002721338768375308,254.83620018920683
0.0002828166780230032,264.81448658614846
0.0002939188398646886,275.18141626170996
0.0003054568246515432,285.95188524365966
0.00031744774091091926,297.1413416527321
0.00032990936877709396,308.7657896990351
0.00034286018635565856,320.8418078561419
0.00035631939712285854,333.38657443279067
0.000370306958400514,346.4178494071862
0.00038484361094874304,359.9540214280651
0.0003999509097203664,374.01414458650396
0.00041565125582259895,388.6179622334361
0.00043196792973341727,403.7859171425591
0.0004489251258218605,419.5390919921522
0.0004665479882234472,435.89926061808796
0.000484862648123908,452.8889541038343
0.000503896262506515,470.53148682030593
0.0005236770544204653,488.8509722440034
0.0005442343548300266,507.8722488628032
0.0005655986461065005,527.6208989223123
0.0005878016072274912,548.1233468160409
0.0006108761607505036,569.4068829043575
0.0006348565216305217,591.499685859685
0.0006597782479539537,614.4307451280555
0.0006856782936641739,638.2298185163709
0.0007125950633568407,662.9275681908148
0.0007405684692262436,688.5555614965901
0.0007696399902471156,715.1463021167493
0.0007998527336796708,742.7331873210412
0.000831251498989063,771.35040069689
0.0008638828442740447,801.0330572558496
0.000897795155303332,831.8171533450286
0.0009330387172620361,863.7395805675484
0.0009696657893145519,896.8381517088591
0.001007730682094461,931.1514333674006
0.0010472898382363582,966.7188778026127
0.0010884019160690055,1003.5807009152193
0.0011311278765939214,1041.7777861189734
0.001175531073878369,1081.351833540946
0.0012216773489967915,1122.3450660321928
0.0012696351276599736,1164.8003451843829
0.0013194755216767058,1208.7611367826032
0.0013712724343984,1254.2712641971248
0.0014251026703029975,1301.3750991106533
0.0014810460488806749,1350.117079898451
0.0015391855229902056,1400.5417033622534
0.001599607301861487,1452.6937027071713
0.0016624009789266115,1506.6176482787653
0.0017276596646690358,1562.3581338998888
0.0017954801246878305,1619.9593299333085
0.0018659629231817451,1679.4646883121313
0.001939212572065829,1740.917254419851
0.0020153376859417325,1804.3590805700928
0.002094451143151469,1869.831348749286
0.002176670253153458,1937.3739588715578
0.002262116930469025,2007.0247345213677
0.002350917875457286,2078.8200276970692
0.002443204762186487,2152.794220476291
0.0025391144336803463,2228.9796027397756
0.002638789104828933,2307.4061015470384
0.002742376573264949,2388.1000118232027
0.0028500304385181063,2471.0846436451943
0.0029619103297725525,2556.379977201298
0.0030781821425650787,2644.002277556698
0.003199018284775064,2733.9640012635155
0.0033245979322709396,2826.2722420396835
0.003455107294592217,2920.9291452362663
0.0035907398910610534,3017.9318592467757
0.0037316968377327513,3117.2719041418663
0.0038781871456107214,3218.9352067043937
0.0040304280305680515,3322.9006776550787
0.00418864523543527,3429.140133287337
0.004353073364731888,3537.618402661384
0.00452395623253805,3648.292209687973
0.004701547224022131,3761.1105363759193
0.004886109671160325,3876.0134338252406
0.005077917243205399,3992.931438192354
0.005277254352483535,4111.785895665999
0.005484416576121017,4232.486541838943
0.005699711094326071,4354.932519641006
0.005923457145875801,4479.012223051969
0.006155986501483508,4604.602320384169
0.006397643955748424,4731.567870411437
0.0066487878384172625,4859.754053285471
0.0069097905457156435,4988.9883091074835
0.007181039092537346,5119.092317660649
0.007462935686310132,5249.898173775065
0.007755898323389004,5381.230733501773
0.00806036140886134,5512.859338591382
0.008376776400682916,5644.491229054273
0.008705612479099857,5775.820610541061
0.009047357242349292,5906.56535406721
0.00940251742967013,6036.44444193791
0.009771619672696168,6165.169569574186
0.010155211276345676,6292.449129302494
0.010553861030365234,6417.97937118196
0.010968160052731372,6541.410462395696
0.011398722666160517,6662.359854130235
0.011846187309026826,6780.4312307146565
0.012311217482038896,6895.211172216351
0.012794502732078732,7006.275782433811
0.013296759674662111,7113.184770444977
0.013818733056536317,7215.4831027869595
0.014361196859990781,7312.710341365103
0.014924955450518284,7404.398915283428
0.015510844769528393,7490.079966127662
0.016119733573881575,7569.270867759094
0.01675252472408214,7641.467263554178
0.017410156523040152,7706.1698357396845
0.018093604107387147,7762.884351066528
0.01880388089340914,7811.128492007505
0.019542040079740527,7850.433390726104
0.02030917620904734,7880.337366648775
0.021106426791015535,7900.4039777215385
0.021934973989050584,7910.227981026954
0.02279604637318978,7909.440132341071
0.023690920741826323,7897.716232828636
0.02462092401494623,7874.793229950798
0.02558743520168586,7840.463205095195
0.02659188744512693,7794.595891826141
0.027635770147361564,7737.152386523049
0.028720631177978267,7668.163627006042
0.029848079169243254,7587.79612589151
0.03101978590138095,7496.31118546712
0.03223748878149028,7394.076541114912
0.0335029934197723,7281.63741884417
0.03481817630688963,7159.604175507902
0.03618498759642746,7028.760950714439
0.037605453996581675,6890.023907332187
0.03908168177536263,6744.362419959286
0.04061585988376978,6592.95467971548
0.04221026320156896,6436.996864742339
0.04386725591048496,6277.733524061716
0.0455892949998106,6116.477169966205
0.047378933909631396,5954.47785940591
0.049238826317067365,5793.057754073814
0.05117173007114603,5633.496074664607
0.05318051128214196,5476.766113608638
0.05526814857144601,5323.337105706551
0.057437737488265785,5173.592306287629
0.0596924950997073,5028.220244616321
0.0620357647610427,4888.095262936436
0.06447102107323864,4753.397799068827
0.06700187503509585,4621.942283860207
0.06963207939763882,4491.25092410626
0.0723655342286965,4360.213840386514
0.07520629269592405,4228.858999826591
0.07815856707684081,4096.542619635017
0.08122673500479707,3961.4015860674663
0.08441534596012978,3821.7471991203493
0.0877291280161335,3676.2699505705414
0.09117299484984914,3524.419542823041
0.09475205302806537,3366.729506819597
0.09847160957933764,3205.2426011523194
0.1023371798632519,3043.2609403775973
0.10635449574860109,2884.2136836536524
0.11052951411260206,2731.087653809968
0.1148684256737553,2586.1148376465367
0.1193776641714435,2450.9502001975698
0.1240639159058831,2326.9538638783456
0.12893412965257148,2215.120076773045
0.13399552696593373,2115.034273329189
0.1392556128874462,2023.6952803110748
0.14472218707411338,1936.6415060930385
0.15040335536380234,1848.9848703572707
0.15630754179458153,1757.744234585742
0.16244350109588662,1662.194237935228
0.16882033167003618,1563.6870747186167
0.17544748908334581,1465.0742719228742
0.1823348000868439,1369.8739683133033
0.189492477187382,1281.2085858221517
0.19693113379074215,1201.4739144319656
0.20466179993919872,1131.753742072246
0.21269593866686892,1070.1813892855075
0.22104546299710207,1012.3740930836065
0.22972275360711503,954.8953222774047
0.23874067718606454,896.5457789951498
0.2481126055137766,837.2765339906472
0.25785243528842716,779.3851359167315
0.26797460873256895,726.2235186512003
0.27849413500806414,678.6149411080322
0.28942661247167484,635.7661357979433
0.3007882518043098,595.8775409691638
0.31259590004822796,556.9645740689128
0.324867065587837,518.7506088647333
0.3376199441111335,482.08369969697196
0.35087344559027084,448.35895444949466
0.36464722232127456,417.61223631972825
0.37896169806447155,389.0282794840823
0.3938380983288488,361.8207824045312
0.4092984818452433,335.8584960650733
0.4253657732750382,311.595763335771
0.44206379720285277,289.18691312954974
0.45941731346364734,268.34760335776514
0.47745205385661277,248.73245006100103
0.4961947603002895,230.35709614756496
0.5156732244854959,213.2829605765936
0.5359163290848509,197.40816571802958
0.556954090580013,182.60217894581692
0.5788177037701272,168.80708404813748
0.6015395880274836,155.99070700480678
0.6251534353689703,144.08671712352006
0.6496942604146115,133.02408115440002
0.6751984523072497,122.7566485884046
0.7017038286703824,113.23135044007935
0.7292496916841444,104.39608101807006
0.7578768863625915,96.20843920903039
0.7876278611187046,88.62565280121723
0.8185467307069019,81.60539351373014
0.850679341636415,75.10926543476084
0.8840733401525058,69.1032099805592
0.9187782428863317,63.553295243868426
0.9548455102782278,58.42732226719467
0.9923286228832539,53.694250220896585
1.0312831606721837,49.32606856806847
1.0717668854455022,45.29661173375788
1.1138398264826193,41.58138985181749
1.1575643695533022,38.15750144368033
1.2030053494233226,35.00354399314383
1.2502301459914542,32.0994825137321
1.299308784200415,29.426608351736984
1.3503140378698726,26.967505739207876
1.4033215376054824,24.705973504978598
1.4584098829439835,22.62694972144438
1.5156607589006013,20.71644260732068
1.575159057091621,18.961472570393475
1.6369930016117014,17.349994742025466
1.7012542798525885,15.870833306003451
1.7680381784572046,14.513625181561135
1.8374437246107238,13.268766724094931
1.9095738328780953,12.127356283318372
1.9845354578058014,11.081137613856967
2.0624397525140905,10.122476474607955
2.143402233514853,9.244320677997404
2.227542951999554,8.440158636562286
2.314986671851158,7.703980654822553
2.405863054644063,7.030245995841683
2.5003068519063225,6.413849028090799
2.598458104929248,5.850081981651484
2.7004623524206774,5.334605563433175
2.806470846309834,4.863421961442613
2.916640776023701,4.432849381865519
3.031135501567576,4.039495167763057
3.150124795755327,3.680236220786673
3.2737850959485697,3.352201871276346
3.4022997656780634,3.052754508430578
3.5358593665351745,2.7794715208032943
3.6746619407366854,2.5301285826383273
3.8189133047818515,2.3026842845555517
3.968827354637162,2.095265578819635
4.1246263829013445,1.9061543946606807
4.286541408420921,1.7337753471667146
4.4548125188449825,1.576684368252891
4.629689226627261,1.4335580575151463
4.811430839003257,1.303183743203822
5.000306842491082,1.1844509864844335
5.196597302486189,1.0763433611643167
5.400593278542364,0.9779307683707025
5.612597255954967,0.8883623508049605
5.8329235942862,0.8068598785602398
6.06189899349756,0.7327117222426299
6.29986297838068,0.6652674821392454
6.547168402004727,0.6039328921894692
6.804181968927091,0.5481651177479407
7.071284778942991,0.4974684304444689
7.348872892180382,0.45139019661243257
7.637357916378006,0.40951725159582436
7.937167617217536,0.3714725914433897
8.248746552614573,0.33691229215021995
8.572556731909314,0.3055226815923225
8.909078300934132,0.27701772789669926
9.258810253973934,0.25113655810398755
9.622271173675122,0.22764139685374735
9.999999999999984,0.20631563174888312
