k [1/Mpc],P(k) [Mpc^3]
0.0001,346.30826904330695
0.00010392556829367125,358.85339115034157
0.00010800523745162529,371.8520084466941
0.00011224505680853065,385.3204027239215
0.00011665131316981963,399.27543124317225
0.00012123054013376525,413.73453798424595
0.00012598952777950273,428.71577618727895
0.00013093533273536104,444.23782947060437
0.00013607528864243335,460.3200171364382
0.00014141701702890234,476.9823305715051
0.00014696843861124463,494.2454454952164
0.00015273778503907136,512.1307417734246
0.00015873361110102093,530.6603397454213
0.00016496480740980205,549.8571166151062
0.0001714406135851971,569.7447370541134
0.00017817063195457305,590.3476522069317
0.00018516484179121546,611.6910977816165
0.000192433614111598,633.8011620128598
0.00019998772705352857,656.7048045055219
0.0002078383818579757,680.4298883003701
0.00021599721947827182,705.0051776539694
0.0002244763378413224,730.4602858520836
0.0002332883097864157,756.8257823139796
0.00024244620170823283,784.133231956535
0.0002519635929317015,812.4152240465162
0.0002618545958474233,841.7053797280647
0.0002721338768375308,872.0382579644198
0.0002828166780230032,903.4494674392718
0.0002939188398646886,935.9756779369153
0.0003054568246515432,969.6546076250103
0.00031744774091091926,1004.5251094307841
0.00032990936877709396,1040.627072188532
0.00034286018635565856,1078.001498851479
0.00035631939712285854,1116.6905366375797
0.000370306958400514,1156.7373937326527
0.00038484361094874304,1198.1864701839008
0.0003999509097203664,1241.0832063135047
0.00041565125582259895,1285.4741068719504
0.00043196792973341727,1331.406858457683
0.0004489251258218605,1378.9301732565505
0.0004665479882234472,1428.0939313087656
0.000484862648123908,1478.9490129805263
0.000503896262506515,1531.547189020983
0.0005236770544204653,1585.941358947436
0.0005442343548300266,1642.1853957783476
0.0005655986461065005,1700.334225276795
0.0005878016072274912,1760.4436664469943
0.0006108761607505036,1822.570102890369
0.0006348565216305217,1886.7708239212839
0.0006597782479539537,1953.1037016992589
0.0006856782936641739,2021.627209192511
0.0007125950633568407,2092.4005308670367
0.0007405684692262436,2165.4832429294715
0.0007696399902471156,2240.935482814735
0.0007998527336796708,2318.817389421429
0.000831251498989063,2399.18884241128
0.0008638828442740447,2482.109846376909
0.000897795155303332,2567.6397960047966
0.0009330387172620361,2655.8377487001517
0.0009696657893145519,2746.761989792016
0.001007730682094461,2840.4692675877063
0.0010472898382363582,2937.0154643736882
0.0010884019160690055,3036.4546617062165
0.0011311278765939214,3138.83918832962
0.001175531073878369,3244.219309359021
0.0012216773489967915,3352.6414462852167
0.0012696351276599736,3464.149392209158
0.0013194755216767058,3578.783543242631
0.0013712724343984,3696.5804791732844
0.0014251026703029975,3817.573097326477
0.0014810460488806749,3941.7883964462308
0.0015391855229902056,4069.2484132477043
0.001599607301861487,4199.970255414017
0.0016624009789266115,4333.965480186521
0.0017276596646690358,4471.239824191777
0.0017954801246878305,4611.789442851602
0.0018659629231817451,4755.601700519606
0.001939212572065829,4902.656185690524
0.0020153376859417325,5052.923440705058
0.002094451143151469,5206.365358854329
0.002176670253153458,5362.933183304091
0.002262116930469025,5522.56701700631
0.002350917875457286,5685.196416956013
0.002443204762186487,5850.738388435719
0.0025391144336803463,6019.098143454813
0.002638789104828933,6190.16851774309
0.002742376573264949,6363.8291647038395
0.0028500304385181063,6539.946825008895
0.0029619103297725525,6718.373485372165
0.0030781821425650787,6898.946762281636
0.003199018284775064,7081.490205786017
0.0033245979322709396,7265.81278069308
0.003455107294592217,7451.708888899184
0.0035907398910610534,7638.956593484534
0.0037316968377327513,7827.317702929319
0.0038781871456107214,8016.538342033888
0.0040304280305680515,8206.346979611766
0.00418864523543527,8396.456176106198
0.004353073364731888,8586.56090971622
0.00452395623253805,8776.337908182242
0.004701547224022131,8965.448958477065
0.004886109671160325,9153.542931004791
0.005077917243205399,9340.25543259825
0.005277254352483535,9525.193584325001
0.005484416576121017,9707.919201437342
0.005699711094326071,9887.981817413522
0.005923457145875801,10065.003089592907
0.006155986501483508,10238.65795832757
0.006397643955748424,10408.548448398074
0.0066487878384172625,10574.020485365754
0.0069097905457156435,10734.351255309875
0.007181039092537346,10888.9252646836
0.007462935686310132,11037.258819053457
0.007755898323389004,11178.878346741156
0.00806036140886134,11313.32571239201
0.008376776400682916,11440.152586625538
0.008705612479099857,11558.86202943458
0.009047357242349292,11668.863733188493
0.00940251742967013,11769.562587476523
0.009771619672696168,11860.356295215259
0.010155211276345676,11940.645683729157
0.010553861030365234,12009.842825556883
0.010968160052731372,12067.363198828647
0.011398722666160517,12112.644575594253
0.011846187309026826,12145.149112791572
0.012311217482038896,12164.368300547278
0.012794502732078732,12169.816850778969
0.013296759674662111,12160.970739810848
0.013818733056536317,12137.33014490494
0.014361196859990781,12098.437263158554
0.014924955450518284,12043.874622125837
0.015510844769528393,11973.287209399929
0.016119733573881575,11886.349838619451
0.01675252472408214,11782.796532912007
0.017410156523040152,11662.43807962782
0.018093604107387147,11525.14896253229
0.01880388089340914,11370.900825486937
0.019542040079740527,11199.76142119086
0.02030917620904734,11011.901233536893
0.021106426791015535,10807.613914618492
0.021934973989050584,10587.341434026155
0.02279604637318978,10351.65051640898
0.023690920741826323,10101.276978712733
0.02462092401494623,9837.134850165668
0.02558743520168586,9560.259217086319
0.02659188744512693,9271.946824983306
0.027635770147361564,8973.623409041467
0.028720631177978267,8666.874351465169
0.029848079169243254,8353.562261381347
0.03101978590138095,8035.549630908565
0.03223748878149028,7714.953177119185
0.0335029934197723,7393.977584141874
0.03481817630688963,7074.7718506599085
0.03618498759642746,6759.7550954259905
0.037605453996581675,6451.140658259155
0.03908168177536263,6151.054834260316
0.04061585988376978,5861.539919319856
0.04221026320156896,5584.354329210443
0.04386725591048496,5321.45670746114
0.0455892949998106,5074.576464015185
0.047378933909631396,4844.43066938469
0.049238826317067365,4630.40394476648
0.05117173007114603,4431.793250011863
0.05318051128214196,4248.300411400995
0.05526814857144601,4079.831101502396
0.057437737488265785,3925.315751014336
0.0596924950997073,3780.93457716725
0.0620357647610427,3642.8840194418517
0.06447102107323864,3508.847948959116
0.06700187503509585,3377.5264465987875
0.06963207939763882,3246.3570197305376
0.0723655342286965,3111.0511596186525
0.07520629269592405,2968.345323319439
0.07815856707684081,2816.526644159498
0.08122673500479707,2655.8352031830113
0.08441534596012978,2488.692925217332
0.0877291280161335,2318.712225242922
0.09117299484984914,2150.1886724436886
0.09475205302806537,1987.8709279803345
0.09847160957933764,1835.3716193292178
0.1023371798632519,1695.1342174855718
0.10635449574860109,1571.903850810177
0.11052951411260206,1468.4944082675129
0.1148684256737553,1384.094192058362
0.1193776641714435,1315.456209109874
0.1240639159058831,1256.6746963953792
0.12893412965257148,1201.4231185999297
0.13399552696593373,1144.202655238237
0.1392556128874462,1081.2757554394511
0.14472218707411338,1011.4030621233021
0.15040335536380234,936.0134575751017
0.15630754179458153,858.479891700007
0.16244350109588662,783.0445792333088
0.16882033167003618,715.3840564474802
0.17544748908334581,659.9402375684398
0.1823348000868439,615.9616150461545
0.189492477187382,579.7159887462079
0.19693113379074215,547.6627479702503
0.20466179993919872,515.1622245666952
0.21269593866686892,479.0336030408114
0.22104546299710207,440.6731379494183
0.22972275360711503,403.1059851206693
0.23874067718606454,369.2949009870485
0.2481126055137766,340.9245040471279
0.25785243528842716,317.2175954791532
0.26797460873256895,295.95753644220156
0.27849413500806414,274.59287880608616
0.28942661247167484,252.87011063922532
0.3007882518043098,231.96902026176448
0.31259590004822796,213.1761470656627
0.324867065587837,196.83779192976974
0.3376199441111335,182.0449711991335
0.35087344559027084,167.92678116918088
0.36464722232127456,154.29429183099475
0.37896169806447155,141.71699402036947
0.3938380983288488,130.3702100442921
0.4092984818452433,120.01125217231217
0.4253657732750382,110.29563489036777
0.44206379720285277,101.2360168114574
0.45941731346364734,92.93371989436531
0.47745205385661277,85.32048235464747
0.4961947603002895,78.27706794843003
0.5156732244854959,71.76601961319355
0.5359163290848509,65.78722862070163
0.556954090580013,60.28915824472501
0.5788177037701272,55.2225710525932
0.6015395880274836,50.56620794356243
0.6251534353689703,46.288874634877985
0.6496942604146115,42.356698848971895
0.6751984523072497,38.746149331805896
0.7017038286703824,35.430540846316106
0.7292496916841444,32.38770947260028
0.7578768863625915,29.59588654182254
0.7876278611187046,27.035802251282405
0.8185467307069019,24.68951265448556
0.850679341636415,22.540063391501647
0.8840733401525058,20.571815858353574
0.9187782428863317,18.77005879532172
0.9548455102782278,17.12121768425182
0.9923286228832539,15.612777765893046
1.0312831606721837,14.233205550228412
1.0717668854455022,12.971886209838571
1.1138398264826193,11.819078258698239
1.1575643695533022,10.765809356519663
1.2030053494233226,9.803810096827798
1.2502301459914542,8.925462999448891
1.299308784200415,8.123754596213606
1.3503140378698726,7.392224995026501
1.4033215376054824,6.724927670907693
1.4584098829439835,6.11639903204763
1.5156607589006013,5.561621756734365
1.575159057091621,5.055990228523045
1.6369930016117014,4.5952783719767485
1.7012542798525885,4.175609484926303
1.7680381784572046,3.7934291926695463
1.8374437246107238,3.445480133557638
1.9095738328780953,3.1287782572820606
1.9845354578058014,2.840590897952215
2.0624397525140905,2.5784161461780526
2.143402233514853,2.3399639561736367
2.227542951999554,2.123139661481695
2.314986671851158,1.926028032080259
2.405863054644063,1.7468784777710589
2.5003068519063225,1.5840913654097368
2.598458104929248,1.4362049818640024
2.7004623524206774,1.3018843787078953
2.806470846309834,1.1799111389411034
2.916640776023701,1.069173528302687
3.031135501567576,0.9686574395558473
3.150124795755327,0.8774381396856317
3.2737850959485697,0.7946727437728076
3.4022997656780634,0.7195929843855665
3.5358593665351745,0.6514987558805171
3.6746619407366854,0.5897522433494918
3.8189133047818515,0.5337725311088342
3.968827354637162,0.4830304846757818
4.1246263829013445,0.4370443024132926
4.286541408420921,0.39537561353062806
4.4548125188449825,0.3576256661003067
4.629689226627261,0.32343182904611484
4.811430839003257,0.2924643947721495
5.000306842491082,0.26442365812703833
5.196597302486189,0.23903724484516364
5.400593278542364,0.21605767249508176
5.612597255954967,0.195260124158737
5.8329235942862,0.17644041601051844
6.06189899349756,0.15941312957558518
6.29986297838068,0.1440099166377927
6.547168402004727,0.1300779827227974
6.804181968927091,0.11747867973929312
7.071284778942991,0.10608622060611303
7.348872892180382,0.09578650788998236
7.637357916378006,0.08647606512379749
7.937167617217536,0.07806106714718787
8.248746552614573,0.07045645704994402
8.572556731909314,0.06358514078564928
8.909078300934132,0.05737725425422707
9.258810253973934,0.05176948833453431
9.622271173675122,0.046704471644193
9.999999999999984,0.04213024535222199
