k [1/Mpc],P(k) [Mpc^3]
0.0001,718.1747523404114
0.00010392556829367125,742.0588884353787
0.00010800523745162529,766.7365709636148
0.00011224505680853065,792.2340475675554
0.00011665131316981963,818.5784185372496
0.00012123054013376525,845.7976806676703
0.00012598952777950273,873.9207557455185
0.00013093533273536104,902.977514418081
0.00013607528864243335,932.9988073429768
0.00014141701702890234,964.016495846506
0.00014696843861124463,996.0634597401445
0.00015273778503907136,1029.1736189290389
0.00015873361110102093,1063.381990240015
0.00016496480740980205,1098.7246921294288
0.0001714406135851971,1135.238996404393
0.00017817063195457305,1172.9633969860279
0.00018516484179121546,1211.937671026176
0.000192433614111598,1252.202882533708
0.00019998772705352857,1293.8013186967985
0.0002078383818579757,1336.7765456551267
0.00021599721947827182,1381.1735051228854
0.0002244763378413224,1427.0385230808722
0.0002332883097864157,1474.419384111114
0.00024244620170823283,1523.3654153081227
0.0002519635929317015,1573.9275418901425
0.0002618545958474233,1626.158268990759
0.0002721338768375308,1680.1115311753854
0.0002828166780230032,1735.8428503277246
0.0002939188398646886,1793.4094259435535
0.0003054568246515432,1852.8701454714317
0.00031744774091091926,1914.2856823210157
0.00032990936877709396,1977.7184884364603
0.00034286018635565856,2043.2328612157073
0.00035631939712285854,2110.894969140691
0.000370306958400514,2180.7727521728903
0.00038484361094874304,2252.936105262091
0.0003999509097203664,2327.4567295700213
0.00041565125582259895,2404.408141165097
0.00043196792973341727,2483.865926208303
0.0004489251258218605,2565.9077646681812
0.0004665479882234472,2650.6134981146597
0.000484862648123908,2738.064903500061
0.000503896262506515,2828.3455047693324
0.0005236770544204653,2921.540978772765
0.0005442343548300266,3017.7390396956407
0.0005655986461065005,3117.029545665784
0.0005878016072274912,3219.5044596056155
0.0006108761607505036,3325.2575326120605
0.0006348565216305217,3434.384679495656
0.0006597782479539537,3546.9837076236713
0.0006856782936641739,3663.1543231888036
0.0007125950633568407,3782.998305033733
0.0007405684692262436,3906.618941741263
0.0007696399902471156,4034.1214544544205
0.0007998527336796708,4165.6129714831295
0.000831251498989063,4301.20239303539
0.0008638828442740447,4441.000481647395
0.000897795155303332,4585.118674022869
0.0009330387172620361,4733.669557604486
0.0009696657893145519,4886.76715608545
0.001007730682094461,5044.526487472199
0.0010472898382363582,5207.063882422018
0.0010884019160690055,5374.49582133349
0.0011311278765939214,5546.93893481549
0.001175531073878369,5724.510225360601
0.0012216773489967915,5907.325236148507
0.0012696351276599736,6095.499263779277
0.0013194755216767058,6289.146593660838
0.0013712724343984,6488.379846708186
0.0014251026703029975,6693.310583313374
0.0014810460488806749,6904.046643024255
0.0015391855229902056,7120.693177273304
0.001599607301861487,7343.352267783107
0.0016624009789266115,7572.121129487544
0.0017276596646690358,7807.0935247905845
0.0017954801246878305,8048.3570699973225
0.0018659629231817451,8295.993332406533
0.001939212572065829,8550.078078156906
0.0020153376859417325,8810.677996433478
0.002094451143151469,9077.852658242671
0.002176670253153458,9351.65188171854
0.002262116930469025,9632.1144266789
0.002350917875457286,9919.269647726313
0.002443204762186487,10213.133856608603
0.0025391144336803463,10513.711578872897
0.002638789104828933,10820.99367572095
0.002742376573264949,11134.954266095445
0.0028500304385181063,11455.553342844583
0.0029619103297725525,11782.733275237162
0.0030781821425650787,12116.41900716487
0.003199018284775064,12456.5174210539
0.0033245979322709396,12802.912653746098
0.003455107294592217,13155.469084734092
0.0035907398910610534,13514.02758808555
0.0037316968377327513,13878.404326476531
0.0038781871456107214,14248.392141906405
0.0040304280305680515,14623.753903954435
0.00418864523543527,15004.22593291786
0.004353073364731888,15389.51536069383
0.00452395623253805,15779.296507831015
0.004701547224022131,16173.214952223741
0.004886109671160325,16570.880364687015
0.005077917243205399,16971.868911109596
0.005277254352483535,17375.722074507215
0.005484416576121017,17781.93814551093
0.005699711094326071,18189.981042361964
0.005923457145875801,18599.275205731796
0.006155986501483508,19009.20592903786
0.006397643955748424,19419.114324694296
0.0066487878384172625,19828.258305072242
0.0069097905457156435,20235.84590711399
0.007181039092537346,20641.098760112855
0.007462935686310132,21043.278103444783
0.007755898323389004,21441.59166797695
0.00806036140886134,21834.955366811297
0.008376776400682916,22222.115940502572
0.008705612479099857,22601.835956229268
0.009047357242349292,22972.987594266382
0.00940251742967013,23334.43672928531
0.009771619672696168,23685.027985928205
0.010155211276345676,24023.58876361759
0.010553861030365234,24348.883259205453
0.010968160052731372,24659.471210523086
0.011398722666160517,24953.84964047144
0.011846187309026826,25230.46510478585
0.012311217482038896,25487.710784339186
0.012794502732078732,25723.9661700449
0.013296759674662111,25937.523186160444
0.013818733056536317,26126.654021398244
0.014361196859990781,26289.617305825926
0.014924955450518284,26424.624011965316
0.015510844769528393,26529.92076008303
0.016119733573881575,26603.66564504638
0.01675252472408214,26643.998868269064
0.017410156523040152,26649.12053044674
0.018093604107387147,26617.197880628828
0.01880388089340914,26546.51686093189
0.019542040079740527,26435.41569919216
0.02030917620904734,26282.30399923074
0.021106426791015535,26085.79343217256
0.021934973989050584,25844.577783444613
0.02279604637318978,25557.590543889346
0.023690920741826323,25224.026627801206
0.02462092401494623,24843.319158964314
0.02558743520168586,24415.28770668177
0.02659188744512693,23940.12928289407
0.027635770147361564,23418.46339513445
0.028720631177978267,22851.41461792574
0.029848079169243254,22240.682725617986
0.03101978590138095,21588.459530337743
0.03223748878149028,20897.67190174269
0.0335029934197723,20171.898248728736
0.03481817630688963,19415.199926892084
0.03618498759642746,18632.62805071339
0.037605453996581675,17829.537661226248
0.03908168177536263,17012.006871018402
0.04061585988376978,16186.969459105476
0.04221026320156896,15361.105405503089
0.04386725591048496,14541.91101107427
0.0455892949998106,13736.620171171757
0.047378933909631396,12952.408224374212
0.049238826317067365,12197.608397606773
0.05117173007114603,11479.076512293306
0.05318051128214196,10801.797895763257
0.05526814857144601,10169.177511645194
0.057437737488265785,9584.55881893671
0.0596924950997073,9054.678715801077
0.0620357647610427,8585.279912314916
0.06447102107323864,8175.663980464142
0.06700187503509585,7820.390827431745
0.06963207939763882,7514.4907976942695
0.0723655342286965,7253.462620421897
0.07520629269592405,7032.0148626535565
0.07815856707684081,6842.0592916972755
0.08122673500479707,6674.071477070143
0.08441534596012978,6515.726930771491
0.0877291280161335,6353.835378647814
0.09117299484984914,6174.673867466976
0.09475205302806537,5965.579572228322
0.09847160957933764,5716.967522612177
0.1023371798632519,5424.535577492136
0.10635449574860109,5089.399479533607
0.11052951411260206,4718.40033328693
0.1148684256737553,4323.744253009565
0.1193776641714435,3921.3475563384814
0.1240639159058831,3530.725186533217
0.12893412965257148,3171.5080308895276
0.13399552696593373,2861.6525808723795
0.1392556128874462,2612.636573298271
0.14472218707411338,2427.51920743385
0.15040335536380234,2301.331650202438
0.15630754179458153,2222.301842864482
0.16244350109588662,2173.1912210443047
0.16882033167003618,2132.2703677080312
0.17544748908334581,2076.239158112574
0.1823348000868439,1986.1104115129074
0.189492477187382,1853.3496386385666
0.19693113379074215,1683.2741800234041
0.20466179993919872,1495.0744313142557
0.21269593866686892,1316.052015947351
0.22104546299710207,1170.1214611481219
0.22972275360711503,1068.6835714082936
0.23874067718606454,1010.1154434687054
0.2481126055137766,981.0040767432255
0.25785243528842716,957.9173045048599
0.26797460873256895,917.5440008167819
0.27849413500806414,848.9209082364525
0.28942661247167484,758.7655225713596
0.3007882518043098,667.8264983226404
0.31259590004822796,596.6292324557195
0.324867065587837,553.4505183550569
0.3376199441111335,530.2811348810541
0.35087344559027084,508.6590273037511
0.36464722232127456,474.2082425539362
0.37896169806447155,426.409730685157
0.3938380983288488,379.0973628239106
0.4092984818452433,344.8403477489684
0.4253657732750382,324.0594221552963
0.44206379720285277,306.0106036169126
0.45941731346364734,281.69846760692155
0.47745205385661277,253.26447009178113
0.4961947603002895,229.37714677896463
0.5156732244854959,212.8543524505836
0.5359163290848509,198.222081899703
0.556954090580013,181.05085430909318
0.5788177037701272,163.89269420371224
0.6015395880274836,150.37738864943077
0.6251534353689703,138.97121996967414
0.6496942604146115,126.9974421408032
0.6751984523072497,115.52035992817909
0.7017038286703824,105.9704679776807
0.7292496916841444,97.1670732108383
0.7578768863625915,88.53603749088036
0.7876278611187046,80.90134484007541
0.8185467307069019,74.01072531575531
0.850679341636415,67.50336809921431
0.8840733401525058,61.569822412355016
0.9187782428863317,56.166701156574184
0.9548455102782278,51.23784826561685
0.9923286228832539,46.73434832227741
1.0312831606721837,42.613502644264464
1.0717668854455022,38.83861239024898
1.1138398264826193,35.38182824259062
1.1575643695533022,32.21933782513042
1.2030053494233226,29.328681355758505
1.2502301459914542,26.688727043185736
1.299308784200415,24.27964601089038
1.3503140378698726,22.082550600734145
1.4033215376054824,20.0792675273342
1.4584098829439835,18.25306638598187
1.5156607589006013,16.588637736683417
1.575159057091621,15.07197352888146
1.6369930016117014,13.690264884678246
1.7012542798525885,12.431876090219896
1.7680381784572046,11.286190551967259
1.8374437246107238,10.243462895069356
1.9095738328780953,9.294751087165205
1.9845354578058014,8.431854519203007
2.0624397525140905,7.647251678102194
2.143402233514853,6.934039046124491
2.227542951999554,6.285897658023021
2.314986671851158,5.697049008306266
2.405863054644063,5.162210792155221
2.5003068519063225,4.676556055266636
2.598458104929248,4.235675237585218
2.7004623524206774,3.8355416091736645
2.806470846309834,3.4724796665933724
2.916640776023701,3.1431356629042555
3.031135501567576,2.8444504762905645
3.150124795755327,2.5736345977169486
3.2737850959485697,2.328144993645523
3.4022997656780634,2.105664342301512
3.5358593665351745,1.9040817682132116
3.6746619407366854,1.721475047318123
3.8189133047818515,1.5560942777976021
3.968827354637162,1.4063466306833392
4.1246263829013445,1.2707826326209315
4.286541408420921,1.148084094554842
4.4548125188449825,1.0370525858604784
4.629689226627261,0.9365988481505777
4.811430839003257,0.8457331034915544
5.000306842491082,0.7635561392114457
5.196597302486189,0.6892512934110355
5.400593278542364,0.6220771071172331
5.612597255954967,0.5613605668815499
5.8329235942862,0.5064909364321477
6.06189899349756,0.45691409580536524
6.29986297838068,0.4121273845944734
6.547168402004727,0.3716750040468845
6.804181968927091,0.33514375257123874
7.071284778942991,0.30215912852256077
7.348872892180382,0.27238177957800686
7.637357916378006,0.24550425858015798
7.937167617217536,0.22124809125345687
8.248746552614573,0.19936111014458957
8.572556731909314,0.17961501719243908
8.909078300934132,0.16180316679395906
9.258810253973934,0.14573852967267503
9.622271173675122,0.13125182291183757
9.999999999999984,0.11818992276783563
