k [1/Mpc],P(k) [Mpc^3]
0.0001,705.3056684886914
0.00010392556829367125,730.8694231709205
0.00010800523745162529,757.3589820953633
0.00011224505680853065,784.8077548539716
0.00011665131316981963,813.2503405871913
0.00012123054013376525,842.7225863036924
0.00012598952777950273,873.261630719141
0.00013093533273536104,904.9059440870707
0.00013607528864243335,937.6953758927235
0.00014141701702890234,971.6712027290538
0.00014696843861124463,1006.8761537581615
0.00015273778503907136,1043.3544504356921
0.00015873361110102093,1081.1518825691658
0.00016496480740980205,1120.3158323839552
0.0001714406135851971,1160.89534690612
0.00017817063195457305,1202.941228899892
0.00018516484179121546,1246.5061213311992
0.000192433614111598,1291.6445337976627
0.00019998772705352857,1338.4127995847364
0.0002078383818579757,1386.8691556925157
0.00021599721947827182,1437.0738665513736
0.0002244763378413224,1489.0892579168155
0.0002332883097864157,1542.9798198195472
0.00024244620170823283,1598.812321121712
0.0002519635929317015,1656.6558960302705
0.0002618545958474233,1716.5820539306073
0.0002721338768375308,1778.6645490902126
0.0002828166780230032,1842.9795752375906
0.0002939188398646886,1909.605891296383
0.0003054568246515432,1978.6248636492664
0.00031744774091091926,2050.120602736432
0.00032990936877709396,2124.1799884900825
0.00034286018635565856,2200.892775985581
0.00035631939712285854,2280.3516580130376
0.000370306958400514,2362.652192734057
0.00038484361094874304,2447.89303736772
0.0003999509097203664,2536.1758235307866
0.00041565125582259895,2627.605202158275
0.00043196792973341727,2722.289159026726
0.0004489251258218605,2820.33908099668
0.0004665479882234472,2921.869871623515
0.000484862648123908,3026.999743358155
0.000503896262506515,3135.85004769349
0.0005236770544204653,3248.545762822609
0.0005442343548300266,3365.2154078897715
0.0005655986461065005,3485.991203830518
0.0005878016072274912,3611.0090731352047
0.0006108761607505036,3740.408327088381
0.0006348565216305217,3874.3321280019713
0.0006597782479539537,4012.927227457543
0.0006856782936641739,4156.344014363289
0.0007125950633568407,4304.7367541240055
0.0007405684692262436,4458.2629908044155
0.0007696399902471156,4617.084066676134
0.0007998527336796708,4781.365135970952
0.000831251498989063,4951.275051985605
0.0008638828442740447,5126.986512384052
0.000897795155303332,5308.674726272319
0.0009330387172620361,5496.517990747866
0.0009696657893145519,5690.698054724656
0.001007730682094461,5891.399639190146
0.0010472898382363582,6098.810839262244
0.0010884019160690055,6313.121792992873
0.0011311278765939214,6534.52469724027
0.001175531073878369,6763.214084986434
0.0012216773489967915,6999.384674919075
0.0012696351276599736,7243.232800569444
0.0013194755216767058,7494.955507852994
0.0013712724343984,7754.749769871661
0.0014251026703029975,8022.813195093671
0.0014810460488806749,8299.34082392046
0.0015391855229902056,8584.526321921714
0.001599607301861487,8878.561484181984
0.0016624009789266115,9181.63401494864
0.0017276596646690358,9493.929174265282
0.0017954801246878305,9815.62644394485
0.0018659629231817451,10146.899549360249
0.001939212572065829,10487.916667339876
0.0020153376859417325,10838.836303712507
0.002094451143151469,11199.809558243316
0.002176670253153458,11570.976746570226
0.002262116930469025,11952.465613982116
0.002350917875457286,12344.393201486244
0.002443204762186487,12746.86114259592
0.0025391144336803463,13159.957006062907
0.002638789104828933,13583.751728729674
0.002742376573264949,14018.295495195927
0.0028500304385181063,14463.620737370018
0.0029619103297725525,14919.737447364645
0.0030781821425650787,15386.63310445279
0.003199018284775064,15864.27154104708
0.0033245979322709396,16352.586621451917
0.003455107294592217,16851.48564177257
0.0035907398910610534,17360.844138725563
0.0037316968377327513,17880.503886835228
0.0038781871456107214,18410.274219965115
0.0040304280305680515,18949.922958273928
0.00418864523543527,19499.180274823953
0.004353073364731888,20057.734733222682
0.00452395623253805,20625.227975138267
0.004701547224022131,21201.2594035869
0.004886109671160325,21785.376185274563
0.005077917243205399,22377.075697919518
0.005277254352483535,22975.80329244944
0.005484416576121017,23580.940299870137
0.005699711094326071,24191.814883727668
0.005923457145875801,24807.694515256702
0.006155986501483508,25427.78559514586
0.006397643955748424,26051.225879996313
0.0066487878384172625,26677.03106069701
0.0069097905457156435,27304.138035015625
0.007181039092537346,27931.4897356231
0.007462935686310132,28558.07061559231
0.007755898323389004,29182.78059953658
0.00806036140886134,29804.108660571394
0.008376776400682916,30420.294860968723
0.008705612479099857,31029.580860016147
0.009047357242349292,31630.339213106156
0.00940251742967013,32220.91534598084
0.009771619672696168,32799.60660126487
0.010155211276345676,33364.667269066515
0.010553861030365234,33914.244064804036
0.010968160052731372,34446.17739911151
0.011398722666160517,34958.19567140759
0.011846187309026826,35447.9310345701
0.012311217482038896,35912.914091707826
0.012794502732078732,36350.62869966023
0.013296759674662111,36758.406796674215
0.013818733056536317,37133.52281753611
0.014361196859990781,37473.20188301297
0.014924955450518284,37774.570562223984
0.015510844769528393,38034.77510273311
0.016119733573881575,38250.80341034265
0.01675252472408214,38419.58483720353
0.017410156523040152,38538.10207542862
0.018093604107387147,38603.25765661166
0.01880388089340914,38612.09345640037
0.019542040079740527,38561.69608700124
0.02030917620904734,38449.225706310586
0.021106426791015535,38272.10905688822
0.021934973989050584,38027.86704444313
0.02279604637318978,37714.34885079854
0.023690920741826323,37329.76901372639
0.02462092401494623,36872.67841940381
0.02558743520168586,36342.1899482707
0.02659188744512693,35737.97326612796
0.027635770147361564,35060.33038197683
0.028720631177978267,34310.328778928284
0.029848079169243254,33489.918045883845
0.03101978590138095,32601.816938910022
0.03223748878149028,31649.89238089879
0.0335029934197723,30639.048964346926
0.03481817630688963,29574.98680133172
0.03618498759642746,28464.98685634047
0.037605453996581675,27316.882541733718
0.03908168177536263,26139.711119829313
0.04061585988376978,24943.934772037886
0.04221026320156896,23739.74582076884
0.04386725591048496,22538.72053996367
0.0455892949998106,21352.161541657213
0.047378933909631396,20191.410627194233
0.049238826317067365,19069.750200993592
0.05117173007114603,17998.29845166239
0.05318051128214196,16985.358838068536
0.05526814857144601,16036.836004723331
0.057437737488265785,15158.602586917568
0.0596924950997073,14361.978289350505
0.0620357647610427,13656.828663269967
0.06447102107323864,13042.853486018526
0.06700187503509585,12512.158012963602
0.06963207939763882,12057.506375737361
0.0723655342286965,11672.328489238871
0.07520629269592405,11348.699184054445
0.07815856707684081,11074.071378673247
0.08122673500479707,10833.41846817899
0.08441534596012978,10606.979301404108
0.0877291280161335,10373.348902368429
0.09117299484984914,10110.001768869495
0.09475205302806537,9795.892962722459
0.09847160957933764,9414.80422924515
0.1023371798632519,8959.057237852658
0.10635449574860109,8429.862113608247
0.11052951411260206,7837.95735816738
0.1148684256737553,7203.147183300018
0.1193776641714435,6551.666887212531
0.1240639159058831,5916.087217874108
0.12893412965257148,5329.551318164937
0.13399552696593373,4822.763002587855
0.1392556128874462,4415.828480636055
0.14472218707411338,4114.812492013627
0.15040335536380234,3912.197450210635
0.15630754179458153,3788.774714661581
0.16244350109588662,3715.761738918786
0.16882033167003618,3656.338274558355
0.17544748908334581,3570.5544091671663
0.1823348000868439,3425.435911015904
0.189492477187382,3205.7082629764427
0.19693113379074215,2919.951791676775
0.20466179993919872,2600.9848012304474
0.21269593866686892,2296.160467535406
0.22104546299710207,2047.4547206942277
0.22972275360711503,1875.368750810153
0.23874067718606454,1777.7174422594273
0.2481126055137766,1731.476953519628
0.25785243528842716,1695.6183290597926
0.26797460873256895,1628.8502707616753
0.27849413500806414,1511.3869743554344
0.28942661247167484,1354.7844847954555
0.3007882518043098,1195.8603134460418
0.31259590004822796,1071.4588960165427
0.324867065587837,996.7906736486314
0.3376199441111335,957.8235813361138
0.35087344559027084,921.4256231533852
0.36464722232127456,861.5030268723199
0.37896169806447155,776.9069320776591
0.3938380983288488,692.7026254247049
0.4092984818452433,631.9290570882097
0.4253657732750382,595.5648868801779
0.44206379720285277,564.0207578038978
0.45941731346364734,520.711629544953
0.47745205385661277,469.50610226532365
0.4961947603002895,426.45312404398624
0.5156732244854959,396.8787714551362
0.5359163290848509,370.66497320175694
0.556954090580013,339.5347852304623
0.5788177037701272,308.24601516805217
0.6015395880274836,283.64464962339576
0.6251534353689703,262.88820897457293
0.6496942604146115,240.93250281491862
0.6751984523072497,219.7926332569384
0.7017038286703824,202.20581073810473
0.7292496916841444,185.94396243703096
0.7578768863625915,169.91715249065905
0.7876278611187046,155.71378530534446
0.8185467307069019,142.86313043216825
0.850679341636415,130.67879616798
0.8840733401525058,119.53683808813747
0.9187782428863317,109.36213014781605
0.9548455102782278,100.0536893884545
0.9923286228832539,91.52349496515971
1.0312831606721837,83.69467325534539
1.0717668854455022,76.50123940374506
1.1138398264826193,69.89389071058686
1.1575643695533022,63.83071919536952
1.2030053494233226,58.271989382667954
1.2502301459914542,53.18012434176857
1.299308784200415,48.519690245727965
1.3503140378698726,44.25670573483388
1.4033215376054824,40.35821005093999
1.4584098829439835,36.793749238875186
1.5156607589006013,33.53537094476001
1.575159057091621,30.55742079544181
1.6369930016117014,27.836370210686294
1.7012542798525885,25.350796327288982
1.7680381784572046,23.081099454059064
1.8374437246107238,21.009227945553487
1.9095738328780953,19.118562668332636
1.9845354578058014,17.393811547052845
2.0624397525140905,15.820901247611033
2.143402233514853,14.386869351213079
2.227542951999554,13.079812047751084
2.314986671851158,11.888808550622038
2.405863054644063,10.80384371259289
2.5003068519063225,9.81573632472442
2.598458104929248,8.916072143706717
2.7004623524206774,8.097142808561056
2.806470846309834,7.351889864592407
2.916640776023701,6.673852253638536
3.031135501567576,6.057117787790533
3.150124795755327,5.496278228048645
3.2737850959485697,4.986387527409206
3.4022997656780634,4.522924381556213
3.5358593665351745,4.10175729662863
3.6746619407366854,3.7191121721407696
3.8189133047818515,3.3715424459989403
3.968827354637162,3.0559010208579673
4.1246263829013445,2.7693149992830235
4.286541408420921,2.509163538430942
4.4548125188449825,2.273056480035981
4.629689226627261,2.0588146421082167
4.811430839003257,1.8644517101715976
5.000306842491082,1.688157503600174
5.196597302486189,1.528282923449185
5.400593278542364,1.3833260984431441
5.612597255954967,1.251919586243254
5.8329235942862,1.1328186508193776
6.06189899349756,1.0248904571117783
6.29986297838068,0.9271041961653951
6.547168402004727,0.8385222850555938
6.804181968927091,0.7582921551214207
7.071284778942991,0.6856387189024065
7.348872892180382,0.6198574839641998
7.637357916378006,0.5603082365343913
7.937167617217536,0.5064093201338474
8.248746552614573,0.4576324176323779
8.572556731909314,0.41349776143398514
8.909078300934132,0.3735697626475923
9.258810253973934,0.3374529767046107
9.622271173675122,0.3047883790527744
9.999999999999984,0.2752502295345287
