k [1/Mpc],P(k) [Mpc^3]
0.0001,1675.3460905775871
0.00010392556829367125,1745.806322922497
0.00010800523745162529,1819.2017939385762
0.00011224505680853065,1895.6513199197616
0.00011665131316981963,1975.2781746619082
0.00012123054013376525,2058.2101360915944
0.00012598952777950273,2144.5797451346943
0.00013093533273536104,2234.523987352294
0.00013607528864243335,2328.1845761309355
0.00014141701702890234,2425.708254603038
0.00014696843861124463,2527.2466785138504
0.00015273778503907136,2632.956810758683
0.00015873361110102093,2743.000675124403
0.00016496480740980205,2857.545472872708
0.0001714406135851971,2976.763846323247
0.00017817063195457305,3100.833136807587
0.00018516484179121546,3229.9361232363435
0.000192433614111598,3364.260850175844
0.00019998772705352857,3504.000446067328
0.0002078383818579757,3649.353617437567
0.00021599721947827182,3800.523498100174
0.0002244763378413224,3957.718303264274
0.0002332883097864157,4121.151207198869
0.00024244620170823283,4291.0395302838615
0.0002519635929317015,4467.605637265179
0.0002618545958474233,4651.075468664131
0.0002721338768375308,4841.678803651448
0.0002828166780230032,5039.649382638891
0.0002939188398646886,5245.22316130394
0.0003054568246515432,5458.6395363463225
0.00031744774091091926,5680.139851895923
0.00032990936877709396,5909.9669244999395
0.00034286018635565856,6148.36553202891
0.00035631939712285854,6395.5798272487755
0.000370306958400514,6651.854421642927
0.00038484361094874304,6917.433099995122
0.0003999509097203664,7192.557366978813
0.00041565125582259895,7477.467344717178
0.00043196792973341727,7772.399357417567
0.0004489251258218605,8077.5860547553875
0.0004665479882234472,8393.254797397123
0.000484862648123908,8719.624574406893
0.000503896262506515,9056.907591877736
0.0005236770544204653,9405.306352580566
0.0005442343548300266,9765.012987599777
0.0005655986461065005,10136.207827134365
0.0005878016072274912,10519.053835781671
0.0006108761607505036,10913.698942760695
0.0006348565216305217,11320.270642666801
0.0006597782479539537,11738.87358221966
0.0006856782936641739,12169.590465549369
0.0007125950633568407,12612.472044456495
0.0007405684692262436,13067.540763700048
0.0007696399902471156,13534.785212653733
0.0007998527336796708,14014.153712744528
0.000831251498989063,14505.558899269035
0.0008638828442740447,15008.865873951927
0.000897795155303332,15523.894408415894
0.0009330387172620361,16050.41870530438
0.0009696657893145519,16588.160793427767
0.001007730682094461,17136.793212210192
0.0010472898382363582,17695.93247445964
0.0010884019160690055,18265.137762299863
0.0011311278765939214,18843.908926952798
0.001175531073878369,19431.675042229668
0.0012216773489967915,20027.801234545106
0.0012696351276599736,20631.591392330138
0.0013194755216767058,21242.287226662233
0.0013712724343984,21859.06221301573
0.0014251026703029975,22481.00514737688
0.0014810460488806749,23107.13025116496
0.0015391855229902056,23736.41633591379
0.001599607301861487,24367.83192104421
0.0016624009789266115,25000.293432052164
0.0017276596646690358,25632.679162131255
0.0017954801246878305,26263.82319834364
0.0018659629231817451,26892.446205931556
0.001939212572065829,27517.06223756109
0.0020153376859417325,28136.105640037436
0.002094451143151469,28748.084070454795
0.002176670253153458,29351.564494030703
0.002262116930469025,29945.066056140717
0.002350917875457286,30527.01775674826
0.002443204762186487,31095.805111383987
0.0025391144336803463,31649.82959080538
0.002638789104828933,32187.524141296344
0.002742376573264949,32707.320513919985
0.0028500304385181063,33207.673715549376
0.0029619103297725525,33687.05424632228
0.0030781821425650787,34143.923839482275
0.003199018284775064,34576.72502350976
0.0033245979322709396,34983.925681418325
0.003455107294592217,35364.06356234729
0.0035907398910610534,35715.73872994197
0.0037316968377327513,36037.39066521356
0.0038781871456107214,36326.965128064374
0.0040304280305680515,36582.444278164694
0.00418864523543527,36803.147093662206
0.004353073364731888,36989.542382662265
0.00452395623253805,37141.39600021533
0.004701547224022131,37255.171231391796
0.004886109671160325,37326.60924969468
0.005077917243205399,37353.280971218795
0.005277254352483535,37334.989773500194
0.005484416576121017,37271.776138478854
0.005699711094326071,37163.533437260034
0.005923457145875801,37010.19644731728
0.006155986501483508,36811.32584931918
0.006397643955748424,36565.69564657982
0.0066487878384172625,36272.16690922054
0.0069097905457156435,35929.468834949184
0.007181039092537346,35536.395653080326
0.007462935686310132,35092.01078420781
0.007755898323389004,34595.59427320088
0.00806036140886134,34046.75893205073
0.008376776400682916,33445.088630417944
0.008705612479099857,32790.25422536319
0.009047357242349292,32082.181532528713
0.00940251742967013,31320.34129077659
0.009771619672696168,30504.599003790718
0.010155211276345676,29634.73543010523
0.010553861030365234,28710.368840015635
0.010968160052731372,27731.957400951633
0.011398722666160517,26700.21909722457
0.011846187309026826,25616.775253161064
0.012311217482038896,24483.697864063426
0.012794502732078732,23302.949248990484
0.013296759674662111,22077.689667974213
0.013818733056536317,20808.876838447668
0.014361196859990781,19497.85563693857
0.014924955450518284,18150.57321855666
0.015510844769528393,16779.350138465466
0.016119733573881575,15397.316915825199
0.01675252472408214,13999.508598262411
0.017410156523040152,12573.121768407504
0.018093604107387147,11131.101960392043
0.01880388089340914,9740.97782922833
0.019542040079740527,8458.901397887497
0.02030917620904734,7221.47824626303
0.021106426791015535,5897.129691219231
0.021934973989050584,4518.2344765919715
0.02279604637318978,3411.403804553828
0.023690920741826323,2745.42611821525
0.02462092401494623,2221.60475462428
0.02558743520168586,1287.0647633651813
0.02659188744512693,389.51331966741077
0.027635770147361564,91.99818097868523
0.028720631177978267,40.82622201453077
0.029848079169243254,59.01271685415227
0.03101978590138095,166.45984663826593
0.03223748878149028,453.6741136329428
0.0335029934197723,889.9608922917076
0.03481817630688963,1400.9092115761969
0.03618498759642746,1975.9532503482997
0.037605453996581675,2583.0290045348856
0.03908168177536263,3161.324554481448
0.04061585988376978,3652.5516913708666
0.04221026320156896,4006.3114805023297
0.04386725591048496,4192.46357969752
0.0455892949998106,4192.397831002893
0.047378933909631396,4005.8084810814516
0.049238826317067365,3635.7080225201794
0.05117173007114603,3085.848474931206
0.05318051128214196,2423.693938878849
0.05526814857144601,1780.1885975559353
0.057437737488265785,1198.223119218792
0.0596924950997073,619.39923722769
0.0620357647610427,213.95744471291576
0.06447102107323864,57.31385224077117
0.06700187503509585,22.013912362429732
0.06963207939763882,43.14930866625188
0.0723655342286965,202.14127953862894
0.07520629269592405,340.4504136431963
0.07815856707684081,329.13682399107614
0.08122673500479707,303.7790894012228
0.08441534596012978,200.52579980819118
0.0877291280161335,46.480014892311836
0.09117299484984914,18.686781102416592
0.09475205302806537,36.25497383675595
0.09847160957933764,149.9304792976413
0.1023371798632519,370.6976035983442
0.10635449574860109,478.41852036666
0.11052951411260206,518.2643315710261
0.1148684256737553,430.2569596050168
0.1193776641714435,216.08109759863973
0.1240639159058831,140.9917403305144
0.12893412965257148,1.459532799735262
0.13399552696593373,1.7016473991306837
0.1392556128874462,72.74973217371178
0.14472218707411338,45.895054363196664
0.15040335536380234,35.17610805712129
0.15630754179458153,0.5664073521896799
0.16244350109588662,17.630983436140205
0.16882033167003618,74.87259218159643
0.17544748908334581,112.59673576503629
0.1823348000868439,95.16930975912189
0.189492477187382,37.030453113574296
0.19693113379074215,0.020165729818807314
0.20466179993919872,2.1348017544626745
0.21269593866686892,5.295909245897265
0.22104546299710207,0.5215506206820156
0.22972275360711503,5.248033267179938
0.23874067718606454,22.426823924021203
0.2481126055137766,24.820792458906123
0.25785243528842716,9.9845097668994
0.26797460873256895,0.6956896128049997
0.27849413500806414,0.13454483660347805
0.28942661247167484,0.06906012224130816
0.3007882518043098,3.4190737803296805
0.31259590004822796,7.557602114254625
0.324867065587837,4.748255027574585
0.3376199441111335,0.9058235342675401
0.35087344559027084,0.18575263294714667
0.36464722232127456,0.9221371108563001
0.37896169806447155,2.536080883049326
0.3938380983288488,2.0943088077104286
0.4092984818452433,0.7324791166118223
0.4253657732750382,0.46223047402619866
0.44206379720285277,1.0144955134109723
0.45941731346364734,1.1408662356226722
0.47745205385661277,0.6635459732998129
0.4961947603002895,0.48864235722159427
0.5156732244854959,0.6346153358047218
0.5359163290848509,0.6105569236674522
0.556954090580013,0.43477982877524296
0.5788177037701272,0.41519433903133357
0.6015395880274836,0.4251886262757325
0.6251534353689703,0.35167749459048686
0.6496942604146115,0.30295034472280635
0.6751984523072497,0.26936260412312024
0.7017038286703824,0.24482817156960301
0.7292496916841444,0.2257459686228914
0.7578768863625915,0.20955085429959217
0.7876278611187046,0.19433274133767967
0.8185467307069019,0.17877389756307865
0.850679341636415,0.16294332519628588
0.8840733401525058,0.14749312541088166
0.9187782428863317,0.13291074871467046
0.9548455102782278,0.119523124384863
0.9923286228832539,0.10752208021795326
1.0312831606721837,0.09694176141291551
1.0717668854455022,0.08758435269296208
1.1138398264826193,0.0792456599435109
1.1575643695533022,0.07176104698118407
1.2030053494233226,0.06499760262739698
1.2502301459914542,0.05884842527466831
1.299308784200415,0.05324357532241268
1.3503140378698726,0.04814495508638285
1.4033215376054824,0.04351677582675941
1.4584098829439835,0.03932385853976263
1.5156607589006013,0.03553204211940105
1.575159057091621,0.03210812029514598
1.6369930016117014,0.029017043847753016
1.7012542798525885,0.02622505097633821
1.7680381784572046,0.023702017168917382
1.8374437246107238,0.02142106059650234
1.9095738328780953,0.01935816677690741
1.9845354578058014,0.01749204236021113
2.0624397525140905,0.015804170682323305
2.143402233514853,0.014277868415724954
2.227542951999554,0.012897961825991655
2.314986671851158,0.011650657161452905
2.405863054644063,0.010523419895027987
2.5003068519063225,0.009504808093153103
2.598458104929248,0.008584378144649699
2.7004623524206774,0.00775268496038659
2.806470846309834,0.007001192437330304
2.916640776023701,0.006322185735520794
3.031135501567576,0.0057086940898848975
3.150124795755327,0.0051544349699411485
3.2737850959485697,0.004653733665947384
3.4022997656780634,0.00420145345218171
3.5358593665351745,0.003792945163800681
3.6746619407366854,0.0034240015490815956
3.8189133047818515,0.003090812058377784
3.968827354637162,0.0027899184617562797
4.1246263829013445,0.002518194611676237
4.286541408420921,0.0022728173494437304
4.4548125188449825,0.0020512370242846208
4.629689226627261,0.0018511510020543704
4.811430839003257,0.0016704836464549696
5.000306842491082,0.0015073640692551632
5.196597302486189,0.001360100221725972
5.400593278542364,0.0012271616071261725
5.612597255954967,0.0011071640526060635
5.8329235942862,0.0009988555625767427
6.06189899349756,0.0009011013149359847
6.29986297838068,0.0008128748439049484
6.547168402004727,0.0007332495043000394
6.804181968927091,0.0006613887626355984
7.071284778942991,0.0005965374173970802
7.348872892180382,0.0005380141058217987
7.637357916378006,0.00048520488857256843
7.937167617217536,0.0004375552508404921
8.248746552614573,0.00039456408566878004
8.572556731909314,0.000355778596592729
8.909078300934132,0.00032078966988598277
9.258810253973934,0.00028922726842464246
9.622271173675122,0.00026075672643631557
9.999999999999984,0.00023507599501390006
