k [1/Mpc],P(k) [Mpc^3]
0.0001,2605.5802320683983
0.00010392556829367125,2692.1821214911233
0.00010800523745162529,2781.655431103483
0.00011224505680853065,2874.0944894718477
0.00011665131316981963,2969.596628994393
0.00012123054013376525,3068.2623092483036
0.00012598952777950273,3170.195216000878
0.00013093533273536104,3275.5023063138906
0.00013607528864243335,3384.2937033376998
0.00014141701702890234,3496.682966473976
0.00014696843861124463,3612.7873619881543
0.00015273778503907136,3732.728020918376
0.00015873361110102093,3856.629859540722
0.00016496480740980205,3984.621168179574
0.0001714406135851971,4116.833980668956
0.00017817063195457305,4253.404444107832
0.00018516484179121546,4394.472969177803
0.000192433614111598,4540.184279462247
0.00019998772705352857,4690.687083824566
0.0002078383818579757,4846.1342652517515
0.00021599721947827182,5006.683243521033
0.0002244763378413224,5172.495931012665
0.0002332883097864157,5343.738993360482
0.00024244620170823283,5520.583627511571
0.0002519635929317015,5703.205555336906
0.0002618545958474233,5891.78539164751
0.0002721338768375308,6086.507909943504
0.0002828166780230032,6287.562640812969
0.0002939188398646886,6495.144206204165
0.0003054568246515432,6709.452281342614
0.00031744774091091926,6930.691803545124
0.00032990936877709396,7159.071900158561
0.00034286018635565856,7394.80625507041
0.00035631939712285854,7638.113589302261
0.000370306958400514,7889.216876143134
0.00038484361094874304,8148.34417299696
0.0003999509097203664,8415.727948782984
0.00041565125582259895,8691.604925364616
0.00043196792973341727,8976.216647091496
0.0004489251258218605,9269.807780034045
0.0004665479882234472,9572.627185841735
0.000484862648123908,9884.927708383177
0.000503896262506515,10206.965360521779
0.0005236770544204653,10539.00026220679
0.0005442343548300266,10881.294584669635
0.0005655986461065005,11234.113087813725
0.0005878016072274912,11597.723443520756
0.0006108761607505036,11972.394469811627
0.0006348565216305217,12358.397445773566
0.0006597782479539537,12756.003712120044
0.0006856782936641739,13165.484140423017
0.0007125950633568407,13587.110607687346
0.0007405684692262436,14021.153731853177
0.0007696399902471156,14467.883849248916
0.0007998527336796708,14927.568028246886
0.000831251498989063,15400.46719632366
0.0008638828442740447,15886.839509967582
0.000897795155303332,16386.9367495091
0.0009330387172620361,16901.005008236294
0.0009696657893145519,17429.282841105014
0.001007730682094461,17971.99508060298
0.0010472898382363582,18529.357506344255
0.0010884019160690055,19101.56955485415
0.0011311278765939214,19688.813284760294
0.001175531073878369,20291.256608091044
0.0012216773489967915,20909.045443649327
0.0012696351276599736,21542.307521260504
0.0013194755216767058,22191.145319662483
0.0013712724343984,22855.630091783707
0.0014251026703029975,23535.80886563306
0.0014810460488806749,24231.694803377075
0.0015391855229902056,24943.269603573117
0.001599607301861487,25670.4832191366
0.0016624009789266115,26413.247580953466
0.0017276596646690358,27171.439229535605
0.0017954801246878305,27944.88124653491
0.0018659629231817451,28733.342916880945
0.001939212572065829,29536.548699505125
0.0020153376859417325,30354.170191130703
0.002094451143151469,31185.82935354568
0.002176670253153458,32031.090975452993
0.002262116930469025,32889.45759722769
0.002350917875457286,33760.37486716993
0.002443204762186487,34643.22150059628
0.0025391144336803463,35537.31232017338
0.002638789104828933,36441.89597138909
0.002742376573264949,37356.147420665846
0.0028500304385181063,38279.17407923274
0.0029619103297725525,39210.00501445861
0.0030781821425650787,40147.592165726506
0.003199018284775064,41090.81260579312
0.0033245979322709396,42038.45509382059
0.003455107294592217,42989.23180898674
0.0035907398910610534,43941.77650939183
0.0037316968377327513,44894.64349176329
0.0038781871456107214,45846.31120155239
0.0040304280305680515,46795.165038235056
0.00418864523543527,47739.510589173544
0.004353073364731888,48677.57600443014
0.00452395623253805,49607.506629632975
0.004701547224022131,50527.379542226365
0.004886109671160325,51435.194972519144
0.005077917243205399,52328.8847341083
0.005277254352483535,53206.260950514086
0.005484416576121017,54064.86859264104
0.005699711094326071,54902.163768760474
0.005923457145875801,55715.92643272838
0.006155986501483508,56504.316900483806
0.006397643955748424,57265.27793511964
0.0066487878384172625,57995.366240077194
0.0069097905457156435,58690.59570594085
0.007181039092537346,59347.41239641684
0.007462935686310132,59963.10360659601
0.007755898323389004,60535.07368322715
0.00806036140886134,61060.77356024724
0.008376776400682916,61537.71557518231
0.008705612479099857,61963.25241806471
0.009047357242349292,62334.13368859655
0.00940251742967013,62647.06648798921
0.009771619672696168,62898.70169096751
0.010155211276345676,63085.66466217481
0.010553861030365234,63204.68362301486
0.010968160052731372,63252.41012677175
0.011398722666160517,63225.63478964231
0.011846187309026826,63121.29095271568
0.012311217482038896,62936.42653457779
0.012794502732078732,62668.33620863074
0.013296759674662111,62314.010026649456
0.013818733056536317,61870.51455361788
0.014361196859990781,61335.241747764834
0.014924955450518284,60705.70557037044
0.015510844769528393,59979.944333013984
0.016119733573881575,59156.14349460476
0.01675252472408214,58232.794340392444
0.017410156523040152,57209.066502312555
0.018093604107387147,56084.37203863445
0.01880388089340914,54858.942348158555
0.019542040079740527,53533.685809623144
0.02030917620904734,52110.1160254014
0.021106426791015535,50590.88583622677
0.021934973989050584,48979.44948723534
0.02279604637318978,47280.37578058935
0.023690920741826323,45499.50780037986
0.02462092401494623,43643.847995553915
0.02558743520168586,41721.67557950649
0.02659188744512693,39742.788240314476
0.027635770147361564,37718.22400493247
0.028720631177978267,35660.15574044286
0.029848079169243254,33582.60019840574
0.03101978590138095,31499.91932785719
0.03223748878149028,29427.806330650328
0.0335029934197723,27382.94047109869
0.03481817630688963,25380.994812702087
0.03618498759642746,23439.49321925848
0.037605453996581675,21574.210055700278
0.03908168177536263,19799.675766206925
0.04061585988376978,18130.89039526961
0.04221026320156896,16578.52638040007
0.04386725591048496,15154.139889646081
0.0455892949998106,13867.112088228056
0.047378933909631396,12721.036991475512
0.049238826317067365,11715.199923024325
0.05117173007114603,10846.24075575256
0.05318051128214196,10111.815934537826
0.05526814857144601,9511.324240958384
0.057437737488265785,9040.378876131479
0.0596924950997073,8680.795112869318
0.0620357647610427,8414.63644609469
0.06447102107323864,8227.311202490364
0.06700187503509585,8106.029223366278
0.06963207939763882,8029.242579883153
0.0723655342286965,7968.94494174951
0.07520629269592405,7893.90794890762
0.07815856707684081,7771.901492672904
0.08122673500479707,7573.986348638173
0.08441534596012978,7278.757745686441
0.0877291280161335,6877.264055263835
0.09117299484984914,6374.833293777769
0.09475205302806537,5789.893492163587
0.09847160957933764,5151.545471753356
0.1023371798632519,4496.780285489056
0.10635449574860109,3868.5751753381005
0.11052951411260206,3309.9318217885234
0.1148684256737553,2853.9886347860024
0.1193776641714435,2515.8295017519836
0.1240639159058831,2294.633641744306
0.12893412965257148,2177.5487971469356
0.13399552696593373,2143.8286272419155
0.1392556128874462,2164.0836463814885
0.14472218707411338,2199.733354678138
0.15040335536380234,2207.9978376875556
0.15630754179458153,2151.1164197539174
0.16244350109588662,2006.085067584721
0.16882033167003618,1780.554582754348
0.17544748908334581,1517.5348060823087
0.1823348000868439,1269.4722600778084
0.189492477187382,1073.8763260832827
0.19693113379074215,950.6823580749643
0.20466179993919872,899.5482972759263
0.21269593866686892,897.4744223098946
0.22104546299710207,907.7018713479425
0.22972275360711503,893.0355046370108
0.23874067718606454,829.6077421115422
0.2481126055137766,724.8628648004523
0.25785243528842716,612.2256899902494
0.26797460873256895,526.0530829787128
0.27849413500806414,481.06322614425886
0.28942661247167484,466.5430787536655
0.3007882518043098,458.6087370059315
0.31259590004822796,432.68889875071386
0.324867065587837,384.86244310624664
0.3376199441111335,332.8579820543786
0.35087344559027084,296.1372995284989
0.36464722232127456,277.7747977712319
0.37896169806447155,265.29536829646673
0.3938380983288488,245.48399538921265
0.4092984818452433,218.2993779970073
0.4253657732750382,194.43492489237926
0.44206379720285277,179.16898527507263
0.45941731346364734,167.42806013177375
0.47745205385661277,152.95161511929635
0.4961947603002895,137.20006775096053
0.5156732244854959,124.76359546379165
0.5359163290848509,115.08949569640616
0.556954090580013,105.04654094299285
0.5788177037701272,94.96744221233637
0.6015395880274836,86.58970924952713
0.6251534353689703,79.21208735338361
0.6496942604146115,71.9298014743996
0.6751984523072497,65.38524211711155
0.7017038286703824,59.614822633648394
0.7292496916841444,54.17623031108065
0.7578768863625915,49.24937359937144
0.7876278611187046,44.7823765491711
0.8185467307069019,40.70423284130796
0.850679341636415,36.98399265163602
0.8840733401525058,33.592781070916914
0.9187782428863317,30.503679694141184
0.9548455102782278,27.691645653549138
0.9923286228832539,25.133184708591667
1.0312831606721837,22.806005832473883
1.0717668854455022,20.68963146627228
1.1138398264826193,18.765362543935034
1.1575643695533022,17.016126651021274
1.2030053494233226,15.426340218540618
1.2502301459914542,13.981825765959442
1.299308784200415,12.669687323160616
1.3503140378698726,11.478134662659274
1.4033215376054824,10.39638894512013
1.4584098829439835,9.414600230926686
1.5156607589006013,8.523770095246027
1.575159057091621,7.715669788363103
1.6369930016117014,6.982785228044287
1.7012542798525885,6.318266769049429
1.7680381784572046,5.7158724766914295
1.8374437246107238,5.169915884173617
1.9095738328780953,4.675218234824788
1.9845354578058014,4.227065103164101
2.0624397525140905,3.821165271900335
2.143402233514853,3.453613583464586
2.227542951999554,3.1208572286568925
2.314986671851158,2.8196648720860753
2.405863054644063,2.5470982683338805
2.5003068519063225,2.3004862939624893
2.598458104929248,2.077401607858647
2.7004623524206774,1.8756390302006118
2.806470846309834,1.6931957317855788
2.916640776023701,1.528253126777528
3.031135501567576,1.37916010642701
3.150124795755327,1.2444180151975517
3.2737850959485697,1.1226672202547374
3.4022997656780634,1.0126745204781282
3.5358593665351745,0.9133216464324474
3.6746619407366854,0.8235947767014057
3.8189133047818515,0.7425749666849287
3.968827354637162,0.6694294702353923
4.1246263829013445,0.6034038354388903
4.286541408420921,0.5438146905903637
4.4548125188449825,0.4900431789030487
4.629689226627261,0.44152895163361155
4.811430839003257,0.39776463358846786
5.000306842491082,0.35829104738110346
5.196597302486189,0.3226927629635808
5.400593278542364,0.2905939987755444
5.612597255954967,0.2616548996604257
5.8329235942862,0.23556817373681826
6.06189899349756,0.21205603588809196
6.29986297838068,0.1908673829876045
6.547168402004727,0.17177526712742394
6.804181968927091,0.1545746089234138
7.071284778942991,0.13908012235893918
7.348872892180382,0.12512441010359115
7.637357916378006,0.11255626707871526
7.937167617217536,0.10123916666062746
8.248746552614573,0.09104985671726315
8.572556731909314,0.08187708625567183
8.909078300934132,0.07362045067297668
9.258810253973934,0.06618933480971391
9.622271173675122,0.05950198128392304
9.999999999999984,0.05348464477660946
