k [1/Mpc],P(k) [Mpc^3]
0.0001,605.282720884728
0.00010392556829367125,632.5634165140605
0.00010800523745162529,661.0634770890387
0.00011224505680853065,690.836069064779
0.00011665131316981963,721.9365707227108
0.00012123054013376525,754.4226532791442
0.00012598952777950273,788.3543487929262
0.00013093533273536104,823.793895466115
0.00013607528864243335,860.8058970371674
0.00014141701702890234,899.4575099252943
0.00014696843861124463,939.8184794661729
0.00015273778503907136,981.9612731183513
0.00015873361110102093,1025.960969027972
0.00016496480740980205,1071.8953439448449
0.0001714406135851971,1119.8450193853816
0.00017817063195457305,1169.8932222777573
0.00018516484179121546,1222.1261062201945
0.000192433614111598,1276.6327458212868
0.00019998772705352857,1333.5051391713762
0.0002078383818579757,1392.8383619973404
0.00021599721947827182,1454.7300843956518
0.0002244763378413224,1519.2809148952729
0.0002332883097864157,1586.59442038258
0.00024244620170823283,1656.7769119551183
0.0002519635929317015,1729.9377550231948
0.0002618545958474233,1806.1887376732009
0.0002721338768375308,1885.6442610103504
0.0002828166780230032,1968.4214217482552
0.0002939188398646886,2054.639414960372
0.0003054568246515432,2144.420014417316
0.00031744774091091926,2237.886983615729
0.00032990936877709396,2335.1659652840776
0.00034286018635565856,2436.3846008916084
0.00035631939712285854,2541.671436438697
0.000370306958400514,2651.1564614867048
0.00038484361094874304,2764.9706500093007
0.0003999509097203664,2883.2454857800813
0.00041565125582259895,3006.1131831809544
0.00043196792973341727,3133.7056059677534
0.0004489251258218605,3266.154391116039
0.0004665479882234472,3403.5902667550226
0.000484862648123908,3546.1419046758433
0.000503896262506515,3693.936452945906
0.0005236770544204653,3847.098286130447
0.0005442343548300266,4005.748753950255
0.0005655986461065005,4170.005460094881
0.0005878016072274912,4339.980130903589
0.0006108761607505036,4515.779383429988
0.0006348565216305217,4697.502331436638
0.0006597782479539537,4885.239704501978
0.0006856782936641739,5079.073925571308
0.0007125950633568407,5279.075281793871
0.0007405684692262436,5485.303137536171
0.0007696399902471156,5697.802864198987
0.0007998527336796708,5916.603244735267
0.000831251498989063,6141.718123713337
0.0008638828442740447,6373.141131659279
0.000897795155303332,6610.846662464261
0.0009330387172620361,6854.788867863373
0.0009696657893145519,7104.898412250401
0.001007730682094461,7361.083614446196
0.0010472898382363582,7623.226401408302
0.0010884019160690055,7891.181804813165
0.0011311278765939214,8164.776613203986
0.001175531073878369,8443.803607978622
0.0012216773489967915,8728.024782727425
0.0012696351276599736,9017.171744281666
0.0013194755216767058,9310.944738490121
0.0013712724343984,9609.010080312917
0.0014251026703029975,9910.994266568772
0.0014810460488806749,10216.487294233937
0.0015391855229902056,10525.062507813862
0.001599607301861487,10836.286580678401
0.0016624009789266115,11149.698446243414
0.0017276596646690358,11464.815065596522
0.0017954801246878305,11781.1277829512
0.0018659629231817451,12098.071248210937
0.001939212572065829,12414.989605322075
0.0020153376859417325,12731.18726840343
0.002094451143151469,13045.983193556269
0.002176670253153458,13358.701135827547
0.002262116930469025,13668.638761375872
0.002350917875457286,13975.063960826057
0.002443204762186487,14277.222245630268
0.0025391144336803463,14574.354249621483
0.002638789104828933,14865.699373304491
0.002742376573264949,15150.4908409486
0.0028500304385181063,15427.979734171005
0.0029619103297725525,15697.421114455094
0.0030781821425650787,15958.062439153215
0.003199018284775064,16209.142911729268
0.0033245979322709396,16449.907508781085
0.003455107294592217,16679.62651615929
0.0035907398910610534,16897.590042661275
0.0037316968377327513,17102.997160947903
0.0038781871456107214,17294.827396542187
0.0040304280305680515,17472.08932277067
0.00418864523543527,17634.4744928745
0.004353073364731888,17782.18849151546
0.00452395623253805,17915.023973934396
0.004701547224022131,18031.210332231698
0.004886109671160325,18128.689037040487
0.005077917243205399,18206.361718705877
0.005277254352483535,18264.15222965073
0.005484416576121017,18302.07637139218
0.005699711094326071,18320.111397100034
0.005923457145875801,18318.261453229145
0.006155986501483508,18296.335495423216
0.006397643955748424,18253.815370917462
0.0066487878384172625,18190.210420159732
0.0069097905457156435,18105.000598913455
0.007181039092537346,17997.701565258852
0.007462935686310132,17867.9610356408
0.007755898323389004,17715.60871198255
0.00806036140886134,17540.585225483155
0.008376776400682916,17342.85157612016
0.008705612479099857,17122.422645556493
0.009047357242349292,16879.36735825885
0.00940251742967013,16613.644309103125
0.009771619672696168,16325.306683084682
0.010155211276345676,16014.343983867233
0.010553861030365234,15680.6936010183
0.010968160052731372,15324.526659984516
0.011398722666160517,14946.38094713253
0.011846187309026826,14547.050392155155
0.012311217482038896,14127.224700376626
0.012794502732078732,13687.355172762445
0.013296759674662111,13228.130739991075
0.013818733056536317,12750.3238844846
0.014361196859990781,12254.940106105316
0.014924955450518284,11743.295970647892
0.015510844769528393,11216.954068412737
0.016119733573881575,10677.79603553666
0.01675252472408214,10127.689606285036
0.017410156523040152,9568.632215398231
0.018093604107387147,9003.027880927913
0.01880388089340914,8433.655249466921
0.019542040079740527,7863.591028194638
0.02030917620904734,7296.081462152274
0.021106426791015535,6734.480110941434
0.021934973989050584,6182.312986686525
0.02279604637318978,5643.475701445436
0.023690920741826323,5121.7474993971455
0.02462092401494623,4620.818842150034
0.02558743520168586,4144.25381037094
0.02659188744512693,3695.0659353869214
0.027635770147361564,3276.844364903792
0.028720631177978267,2892.3981736794344
0.029848079169243254,2543.494539533142
0.03101978590138095,2231.5239838905245
0.03223748878149028,1956.3580811925283
0.0335029934197723,1717.505301356015
0.03481817630688963,1513.830276722797
0.03618498759642746,1343.5887123184864
0.037605453996581675,1205.9303078652474
0.03908168177536263,1099.5817083913412
0.04061585988376978,1022.2157723026965
0.04221026320156896,971.2465776249785
0.04386725591048496,944.8609055558528
0.0455892949998106,939.5033699076893
0.047378933909631396,951.8763359272401
0.049238826317067365,978.8911844795408
0.05117173007114603,1016.4556921723074
0.05318051128214196,1059.8255362365978
0.05526814857144601,1102.0924837732603
0.057437737488265785,1134.6744342942204
0.0596924950997073,1149.2471267353146
0.0620357647610427,1138.7430634982181
0.06447102107323864,1099.341983431614
0.06700187503509585,1031.309213787811
0.06963207939763882,935.9592402410958
0.0723655342286965,817.3584566261349
0.07520629269592405,687.6102305587281
0.07815856707684081,560.7429326165234
0.08122673500479707,448.70442827659565
0.08441534596012978,357.67708735409065
0.0877291280161335,289.7716292707509
0.09117299484984914,246.2287556177798
0.09475205302806537,225.87660281988929
0.09847160957933764,225.2785800442512
0.1023371798632519,238.5767489349983
0.10635449574860109,262.0137554746921
0.11052951411260206,288.3154646718409
0.1148684256737553,304.9411782850173
0.1193776641714435,301.56670250353767
0.1240639159058831,277.60151368503347
0.12893412965257148,238.6986289675165
0.13399552696593373,193.07085593005675
0.1392556128874462,151.6575524418588
0.14472218707411338,123.4664467588997
0.15040335536380234,108.73738932443452
0.15630754179458153,105.38487399854407
0.16244350109588662,109.61619265693535
0.16882033167003618,114.95395638849378
0.17544748908334581,115.33279874136029
0.1823348000868439,106.79513938904476
0.189492477187382,91.95702796841508
0.19693113379074215,77.14352372881142
0.20466179993919872,66.20138135375227
0.21269593866686892,61.00349072902872
0.22104546299710207,59.476138591237536
0.22972275360711503,58.36269119157789
0.23874067718606454,54.9110077190367
0.2481126055137766,49.09277013303635
0.25785243528842716,43.2445671853137
0.26797460873256895,38.99117404996694
0.27849413500806414,36.48622775515383
0.28942661247167484,34.406810804629956
0.3007882518043098,31.76610911020548
0.31259590004822796,28.72865547200151
0.324867065587837,26.0661458882031
0.3376199441111335,24.04135027882595
0.35087344559027084,22.244788929722613
0.36464722232127456,20.39806019923526
0.37896169806447155,18.60484568740047
0.3938380983288488,17.051268837466484
0.4092984818452433,15.673861745758392
0.4253657732750382,14.361051956826227
0.44206379720285277,13.139067938425134
0.45941731346364734,12.03739630459284
0.47745205385661277,11.03210884996397
0.4961947603002895,10.097147854309283
0.5156732244854959,9.240532444172246
0.5359163290848509,8.460085783342862
0.556954090580013,7.741011138933474
0.5788177037701272,7.081844791222181
0.6015395880274836,6.478748836711769
0.6251534353689703,5.925411205000286
0.6496942604146115,5.418402376376681
0.6751984523072497,4.953862804204632
0.7017038286703824,4.52816220610874
0.7292496916841444,4.138278423039236
0.7578768863625915,3.7813200203271045
0.7876278611187046,3.454571779759003
0.8185467307069019,3.1555359221500576
0.850679341636415,2.8819153344419464
0.8840733401525058,2.6315980471375906
0.9187782428863317,2.4026438029235893
0.9548455102782278,2.1932705211880563
0.9923286228832539,2.0018405463942814
1.0312831606721837,1.8268493008699407
1.0717668854455022,1.6669148673710235
1.1138398264826193,1.52076753955491
1.1575643695533022,1.3872380266257567
1.2030053494233226,1.2652532952633355
1.2502301459914542,1.153830231203416
1.299308784200415,1.0520682108914041
1.3503140378698726,0.9591423312675915
1.4033215376054824,0.8742990943242113
1.4584098829439835,0.7968503791663543
1.5156607589006013,0.7261651356815549
1.575159057091621,0.6616646446292651
1.6369930016117014,0.6028183434404405
1.7012542798525885,0.5491396119689103
1.7680381784572046,0.5001808113794278
1.8374437246107238,0.45553189769692387
1.9095738328780953,0.41481804617484536
1.9845354578058014,0.37769665881836223
2.0624397525140905,0.34385463610530054
2.143402233514853,0.3130064304061403
2.227542951999554,0.28489171162819044
2.314986671851158,0.25927233618832696
2.405863054644063,0.23593044773587962
2.5003068519063225,0.21466679882129638
2.598458104929248,0.1952991242943056
2.7004623524206774,0.17766036586966347
2.806470846309834,0.1615978290233538
2.916640776023701,0.1469721603244715
3.031135501567576,0.13365619469997483
3.150124795755327,0.12153390268483732
3.2737850959485697,0.1104995187742057
3.4022997656780634,0.10045666157801841
3.5358593665351745,0.0913173663075999
3.6746619407366854,0.08300135151841435
3.8189133047818515,0.07543536054627678
3.968827354637162,0.06855255171179753
4.1246263829013445,0.062291915089996604
4.286541408420921,0.0565978046573281
4.4548125188449825,0.05141949124589913
4.629689226627261,0.046710734105240535
4.811430839003257,0.042429389126934294
5.000306842491082,0.03853704874907514
5.196597302486189,0.034998714476261614
5.400593278542364,0.03178250155885682
5.612597255954967,0.028859365718756753
5.8329235942862,0.026202853213726045
6.06189899349756,0.023788872664881593
6.29986297838068,0.02159548704146414
6.547168402004727,0.019602722906314603
6.804181968927091,0.017792396496260375
7.071284778942991,0.016147955245573876
7.348872892180382,0.014654333153387388
7.637357916378006,0.01329781853819328
7.937167617217536,0.012065933572121683
8.248746552614573,0.01094732496930448
8.572556731909314,0.00993166379107019
8.909078300934132,0.009009554020581368
9.258810253973934,0.008172448916896505
9.622271173675122,0.00741257338350636
9.999999999999984,0.006722856555177442
