k [1/Mpc],P(k) [Mpc^3]
0.0001,1676.0737064032235
0.00010392556829367125,1731.80343935726
0.00010800523745162529,1789.3836012171346
0.00011224505680853065,1848.875165319459
0.00011665131316981963,1910.3410635737146
0.00012123054013376525,1973.8464064130633
0.00012598952777950273,2039.4585223764127
0.00013093533273536104,2107.246889588191
0.00013607528864243335,2177.28307108782
0.00014141701702890234,2249.640911836157
0.00014696843861124463,2324.396687551542
0.00015273778503907136,2401.62918656751
0.00015873361110102093,2481.419703097725
0.00016496480740980205,2563.851918543911
0.0001714406135851971,2649.0121162346513
0.00017817063195457305,2736.9893706274033
0.00018516484179121546,2827.875658238271
0.000192433614111598,2921.7658662249532
0.00019998772705352857,3018.757666082502
0.0002078383818579757,3118.951696143919
0.00021599721947827182,3222.4516635471887
0.0002244763378413224,3329.364311702152
0.0002332883097864157,3439.799664179729
0.00024244620170823283,3553.8711118006368
0.0002519635929317015,3671.6955156977274
0.0002618545958474233,3793.3931743944727
0.0002721338768375308,3919.0875189320536
0.0002828166780230032,4048.905564101663
0.0002939188398646886,4182.977989241779
0.0003054568246515432,4321.439211831905
0.00031744774091091926,4464.427512331242
0.00032990936877709396,4612.084731687355
0.00034286018635565856,4764.556625915822
0.00035631939712285854,4921.992765049935
0.000370306958400514,5084.54637313627
0.00038484361094874304,5252.374802375106
0.0003999509097203664,5425.6391765733
0.00041565125582259895,5604.504670809635
0.00043196792973341727,5789.140440887816
0.0004489251258218605,5979.719078024975
0.0004665479882234472,6176.417364602866
0.000484862648123908,6379.416016197091
0.000503896262506515,6588.899789482709
0.0005236770544204653,6805.057386729232
0.0005442343548300266,7028.080151189292
0.0005655986461065005,7258.163226094058
0.0005878016072274912,7495.50552009581
0.0006108761607505036,7740.309598806646
0.0006348565216305217,7992.781775154061
0.0006597782479539537,8253.130471688737
0.0006856782936641739,8521.567176967405
0.0007125950633568407,8798.306203719952
0.0007405684692262436,9083.563928263326
0.0007696399902471156,9377.559645636053
0.0007998527336796708,9680.513982554407
0.000831251498989063,9992.649344315594
0.0008638828442740447,10314.18956158028
0.000897795155303332,10645.357872530598
0.0009330387172620361,10986.378601249638
0.0009696657893145519,11337.475057334339
0.001007730682094461,11698.869387397915
0.0010472898382363582,12070.782918320441
0.0010884019160690055,12453.43250654106
0.0011311278765939214,12847.032771925507
0.001175531073878369,13251.793328517817
0.0012216773489967915,13667.917122894853
0.0012696351276599736,14095.602419188635
0.0013194755216767058,14535.037225882928
0.0013712724343984,14986.401608305281
0.0014251026703029975,15449.865712716994
0.0014810460488806749,15925.585755119053
0.0015391855229902056,16413.7075923132
0.001599607301861487,16914.361259931753
0.0016624009789266115,17427.66169382616
0.0017276596646690358,17953.7081923879
0.0017954801246878305,18492.57858555514
0.0018659629231817451,19044.332708822254
0.001939212572065829,19609.00332246873
0.0020153376859417325,20186.59490006251
0.002094451143151469,20777.08797660968
0.002176670253153458,21380.4325783922
0.002262116930469025,21996.55095707428
0.002350917875457286,22625.330986530935
0.002443204762186487,23266.62175846235
0.0025391144336803463,23920.2385280296
0.002638789104828933,24585.954375201007
0.002742376573264949,25263.50270290705
0.0028500304385181063,25952.573620333802
0.0029619103297725525,26652.806757129645
0.0030781821425650787,27363.79764905037
0.003199018284775064,28085.093085789715
0.0033245979322709396,28816.19100964163
0.003455107294592217,29556.538391515172
0.0035907398910610534,30305.52273527284
0.0037316968377327513,31062.478206720032
0.0038781871456107214,31826.67955040986
0.0040304280305680515,32597.340996941555
0.00418864523543527,33373.619880224614
0.004353073364731888,34154.6102118468
0.00452395623253805,34939.34681386648
0.004701547224022131,35726.792425470514
0.004886109671160325,36515.83055658234
0.005077917243205399,37305.284173797925
0.005277254352483535,38093.92067998868
0.005484416576121017,38880.45110947032
0.005699711094326071,39663.47655906492
0.005923457145875801,40441.427130776814
0.006155986501483508,41212.67712031943
0.006397643955748424,41975.8233924288
0.0066487878384172625,42729.616706675966
0.0069097905457156435,43472.522196485115
0.007181039092537346,44202.113987398145
0.007462935686310132,44915.73633529006
0.007755898323389004,45611.27600132522
0.00806036140886134,46287.207828195154
0.008376776400682916,46941.87786715287
0.008705612479099857,47572.85081250339
0.009047357242349292,48177.42138958456
0.00940251742967013,48753.24774413427
0.009771619672696168,49298.57171779043
0.010155211276345676,49811.63631275113
0.010553861030365234,50290.115848145775
0.010968160052731372,50731.419855205575
0.011398722666160517,51132.95672179226
0.011846187309026826,51492.11766433438
0.012311217482038896,51806.347206311584
0.012794502732078732,52073.21326817455
0.013296759674662111,52290.41251291266
0.013818733056536317,52455.68324524903
0.014361196859990781,52566.64937158382
0.014924955450518284,52621.02839831003
0.015510844769528393,52616.62032684489
0.016119733573881575,52551.32595737504
0.01675252472408214,52423.23101791685
0.017410156523040152,52230.515862869084
0.018093604107387147,51971.57888190603
0.01880388089340914,51645.06329218041
0.019542040079740527,51249.85602064198
0.02030917620904734,50785.175453715776
0.021106426791015535,50250.57164910801
0.021934973989050584,49645.96230917854
0.02279604637318978,48971.71758079341
0.023690920741826323,48228.73920205368
0.02462092401494623,47418.37555685625
0.02558743520168586,46542.65428993259
0.02659188744512693,45604.190158270816
0.027635770147361564,44606.14607791222
0.028720631177978267,43552.65894862111
0.029848079169243254,42448.27539275803
0.03101978590138095,41298.43034281746
0.03223748878149028,40109.39312913564
0.0335029934197723,38887.65102979636
0.03481817630688963,37640.87002348204
0.03618498759642746,36376.81929176833
0.037605453996581675,35103.66657733714
0.03908168177536263,33830.34322766776
0.04061585988376978,32565.174122920635
0.04221026320156896,31316.73778563134
0.04386725591048496,30093.141245687777
0.0455892949998106,28901.802519532066
0.047378933909631396,27750.063091053533
0.049238826317067365,26644.06092976881
0.05117173007114603,25586.824136971827
0.05318051128214196,24579.14682099381
0.05526814857144601,23622.11814771716
0.057437737488265785,22719.07810714637
0.0596924950997073,21872.910441780128
0.0620357647610427,21075.43592066159
0.06447102107323864,20307.416258895762
0.06700187503509585,19553.357667160904
0.06963207939763882,18808.17550917469
0.0723655342286965,18069.43543457708
0.07520629269592405,17330.939994015458
0.07815856707684081,16585.098641696066
0.08122673500479707,15823.662259741443
0.08441534596012978,15039.344689379906
0.0877291280161335,14231.43909148299
0.09117299484984914,13405.084697490933
0.09475205302806537,12575.620119528194
0.09847160957933764,11761.209361759757
0.1023371798632519,10980.271463222827
0.10635449574860109,10247.111567708132
0.11052951411260206,9572.499910896997
0.1148684256737553,8964.930879508127
0.1193776641714435,8429.396394411504
0.1240639159058831,7964.264460906239
0.12893412965257148,7557.896953153302
0.13399552696593373,7188.5541376856245
0.1392556128874462,6831.784262825436
0.14472218707411338,6466.766888148273
0.15040335536380234,6082.459331714875
0.15630754179458153,5679.889313404181
0.16244350109588662,5269.828492590297
0.16882033167003618,4867.096374148123
0.17544748908334581,4486.92628206043
0.1823348000868439,4144.96382406841
0.189492477187382,3852.9052958692023
0.19693113379074215,3607.2644660141477
0.20466179993919872,3389.8817898949014
0.21269593866686892,3183.3886785121226
0.22104546299710207,2976.102633567647
0.22972275360711503,2761.117055312674
0.23874067718606454,2544.9073451501736
0.2481126055137766,2341.8631456673893
0.25785243528842716,2160.774231948074
0.26797460873256895,2003.537774424397
0.27849413500806414,1863.863466484788
0.28942661247167484,1732.751869631795
0.3007882518043098,1603.5626969830444
0.31259590004822796,1476.963980713508
0.324867065587837,1359.2925214078555
0.3376199441111335,1253.3679365455937
0.35087344559027084,1158.2898886346168
0.36464722232127456,1069.8928084514553
0.37896169806447155,985.7140716193219
0.3938380983288488,906.4163971575321
0.4092984818452433,833.734773341688
0.4253657732750382,767.4332640922612
0.44206379720285277,706.0572565269596
0.45941731346364734,648.7022706231603
0.47745205385661277,595.6205607144337
0.4961947603002895,546.9147355825235
0.5156732244854959,502.0043745831206
0.5359163290848509,460.4364307223491
0.556954090580013,422.11239531185856
0.5788177037701272,386.88259827745924
0.6015395880274836,354.427815186723
0.6251534353689703,324.5460804780991
0.6496942604146115,297.0782357113915
0.6751984523072497,271.824030931212
0.7017038286703824,248.61200153632734
0.7292496916841444,227.29836809114275
0.7578768863625915,207.72993066041892
0.7876278611187046,189.7676708671177
0.8185467307069019,173.2933512422007
0.850679341636415,158.19439216934518
0.8840733401525058,144.36152849955414
0.9187782428863317,131.69289550834415
0.9548455102782278,120.09534421249228
0.9923286228832539,109.48266741548555
1.0312831606721837,99.77514472780092
1.0717668854455022,90.89910026402138
1.1138398264826193,82.78648548481105
1.1575643695533022,75.37446576776124
1.2030053494233226,68.60505054503838
1.2502301459914542,62.42478497531463
1.299308784200415,56.78442474743835
1.3503140378698726,51.63862851672455
1.4033215376054824,46.94567377292156
1.4584098829439835,42.66720242667359
1.5156607589006013,38.7679513794892
1.575159057091621,35.21551190512249
1.6369930016117014,31.98011397101666
1.7012542798525885,29.034424894410147
1.7680381784572046,26.35334822632137
1.8374437246107238,23.91385198068238
1.9095738328780953,21.694828711446963
1.9845354578058014,19.676944308955626
2.0624397525140905,17.842496439838023
2.143402233514853,16.17528273308741
2.227542951999554,14.660476998407102
2.314986671851158,13.284521128696872
2.405863054644063,12.035022698499082
2.5003068519063225,10.900659012739167
2.598458104929248,9.871088521686428
2.7004623524206774,8.936866922888667
2.806470846309834,8.089372829540157
2.916640776023701,7.320741741509397
3.031135501567576,6.623802128589891
3.150124795755327,5.992016506748555
3.2737850959485697,5.419427474113275
3.4022997656780634,4.90060842861589
3.5358593665351745,4.430617191767924
3.6746619407366854,4.004953989716313
3.8189133047818515,3.619523131307703
3.968827354637162,3.270597810053367
4.1246263829013445,2.95478675327445
4.286541408420921,2.6690053177426067
4.4548125188449825,2.410449840405581
4.629689226627261,2.176572770013651
4.811430839003257,1.9650598760628424
5.000306842491082,1.773809406227959
5.196597302486189,1.600913031229164
5.400593278542364,1.4446385332985519
5.612597255954967,1.3034139560706903
5.8329235942862,1.175813126205881
6.06189899349756,1.0605424366368552
6.29986297838068,0.9564286674677759
6.547168402004727,0.8624080973086994
6.804181968927091,0.7775166373949525
7.071284778942991,0.700880696675397
7.348872892180382,0.6317088597499548
7.637357916378006,0.569284302720144
7.937167617217536,0.5129578874634252
8.248746552614573,0.46214191962085915
8.572556731909314,0.41630444764049224
8.909078300934132,0.37496407366846174
9.258810253973934,0.3376852265911507
9.622271173675122,0.30407376036328165
9.999999999999984,0.27377315500782057
