k [1/Mpc],P(k) [Mpc^3]
0.0001,328.02320054943016
0.00010392556829367125,342.86355340362513
0.00010800523745162529,358.3743678550481
0.00011224505680853065,374.5858460337482
0.00011665131316981963,391.5295262856761
0.00012123054013376525,409.23830314981774
0.00012598952777950273,427.7465261799989
0.00013093533273536104,447.09009344404876
0.00013607528864243335,467.3065209216719
0.00014141701702890234,488.4349860527825
0.00014696843861124463,510.51636056892977
0.00015273778503907136,533.5933129156956
0.00015873361110102093,557.7103817773345
0.00016496480740980205,582.9140489030664
0.0001714406135851971,609.2528370200719
0.00017817063195457305,636.7773704463469
0.00018516484179121546,665.540479503649
0.000192433614111598,695.5972865383852
0.00019998772705352857,727.0052806868057
0.0002078383818579757,759.8244442508486
0.00021599721947827182,794.1173147615484
0.0002244763378413224,829.949104008088
0.0002332883097864157,867.3877965080507
0.00024244620170823283,906.5041800236359
0.0002519635929317015,947.3720401779882
0.0002618545958474233,990.0682549757629
0.0002721338768375308,1034.672916742586
0.0002828166780230032,1081.269459688095
0.0002939188398646886,1129.9446557260508
0.0003054568246515432,1180.7888421984549
0.00031744774091091926,1233.8959658549288
0.00032990936877709396,1289.3636551656364
0.00034286018635565856,1347.293489497763
0.00035631939712285854,1407.7910573397528
0.000370306958400514,1470.9661503108796
0.00038484361094874304,1536.9327744661375
0.0003999509097203664,1605.8091006841473
0.00041565125582259895,1677.7178527804717
0.00043196792973341727,1752.78627899045
0.0004489251258218605,1831.1463542461734
0.0004665479882234472,1912.9348919100594
0.000484862648123908,1998.293361613661
0.000503896262506515,2087.368332589094
0.0005236770544204653,2180.311391569947
0.0005442343548300266,2277.2792628389316
0.0005655986461065005,2378.4340727452286
0.0005878016072274912,2483.9431174800243
0.0006108761607505036,2593.9792394926562
0.0006348565216305217,2708.720527359672
0.0006597782479539537,2828.3501672456164
0.0006856782936641739,2953.0570456641944
0.0007125950633568407,3083.035577636956
0.0007405684692262436,3218.485925646084
0.0007696399902471156,3359.6134574686916
0.0007998527336796708,3506.6279947326784
0.000831251498989063,3659.7448245653595
0.0008638828442740447,3819.1843682173176
0.000897795155303332,3985.1722763430716
0.0009330387172620361,4157.938812815006
0.0009696657893145519,4337.717090004311
0.001007730682094461,4524.744494174209
0.0010472898382363582,4719.261834068833
0.0010884019160690055,4921.513086931986
0.0011311278765939214,5131.745175973727
0.001175531073878369,5350.204914480203
0.0012216773489967915,5577.14061267897
0.0012696351276599736,5812.8011323029605
0.0013194755216767058,6057.434797282114
0.0013712724343984,6311.2896551686445
0.0014251026703029975,6574.6094398551295
0.0014810460488806749,6847.634653266042
0.0015391855229902056,7130.60225039389
0.001599607301861487,7423.743788533276
0.0016624009789266115,7727.285527055216
0.0017276596646690358,8041.443816708329
0.0017954801246878305,8366.425037929794
0.0018659629231817451,8702.424697493392
0.001939212572065829,9049.622523972053
0.0020153376859417325,9408.18457993635
0.002094451143151469,9778.260263161039
0.002176670253153458,10159.980720713187
0.002262116930469025,10553.458404217647
0.002350917875457286,10958.783205721036
0.002443204762186487,11376.02234808833
0.0025391144336803463,11805.216681985145
0.002638789104828933,12246.377737687153
0.002742376573264949,12699.488055844773
0.0028500304385181063,13164.496717380742
0.0029619103297725525,13641.318805908692
0.0030781821425650787,14129.83283327965
0.003199018284775064,14629.877052596365
0.0033245979322709396,15141.249367228707
0.003455107294592217,15663.700657556625
0.0035907398910610534,16196.934316732346
0.0037316968377327513,16740.60462575151
0.0038781871456107214,17294.310156016167
0.0040304280305680515,17857.59671745699
0.00418864523543527,18429.952994300864
0.004353073364731888,19010.809053580695
0.00452395623253805,19599.539412684826
0.004701547224022131,20195.467002305293
0.004886109671160325,20797.856590999974
0.005077917243205399,21405.855990739816
0.005277254352483535,22018.4741478414
0.005484416576121017,22634.68179035398
0.005699711094326071,23253.640699805277
0.005923457145875801,23874.570269099888
0.006155986501483508,24496.306440703924
0.006397643955748424,25116.97632092438
0.0066487878384172625,25734.57750179189
0.0069097905457156435,26347.648854918963
0.007181039092537346,26955.0595953864
0.007462935686310132,27555.42369426955
0.007755898323389004,28146.671365872407
0.00806036140886134,28726.563668506995
0.008376776400682916,29293.204258048765
0.008705612479099857,29845.015908011275
0.009047357242349292,30380.2931660349
0.00940251742967013,30896.791353738652
0.009771619672696168,31392.091560028748
0.010155211276345676,31863.676862450644
0.010553861030365234,32308.92862639665
0.010968160052731372,32725.210075262927
0.011398722666160517,33109.88180899657
0.011846187309026826,33460.324494853456
0.012311217482038896,33773.872966224626
0.012794502732078732,34047.765261923494
0.013296759674662111,34279.276006263106
0.013818733056536317,34465.50012837131
0.014361196859990781,34603.50029262331
0.014924955450518284,34690.44537797673
0.015510844769528393,34723.561625887996
0.016119733573881575,34700.27193648372
0.01675252472408214,34618.02373164433
0.017410156523040152,34474.377128562875
0.018093604107387147,34267.19962179995
0.01880388089340914,33994.57027768016
0.019542040079740527,33654.97721064137
0.02030917620904734,33247.29668807838
0.021106426791015535,32770.819383670656
0.021934973989050584,32225.431258425844
0.02279604637318978,31611.666664515462
0.023690920741826323,30930.725610780068
0.02462092401494623,30184.64194997782
0.02558743520168586,29376.38165539345
0.02659188744512693,28509.6331106253
0.027635770147361564,27589.370928973858
0.028720631177978267,26621.394875018017
0.029848079169243254,25612.378398325556
0.03101978590138095,24570.4997141191
0.03223748878149028,23504.109552484755
0.0335029934197723,22423.050253086767
0.03481817630688963,21337.8233416612
0.03618498759642746,20258.60297288909
0.037605453996581675,19196.908135703354
0.03908168177536263,18163.116592256094
0.04061585988376978,17168.21206218104
0.04221026320156896,16223.643195084527
0.04386725591048496,15338.572632421543
0.0455892949998106,14521.227234404885
0.047378933909631396,13778.055235061716
0.049238826317067365,13112.56283644686
0.05117173007114603,12525.357742587752
0.05318051128214196,12016.42496522999
0.05526814857144601,11585.167064189069
0.057437737488265785,11230.96726264898
0.0596924950997073,10947.388277121925
0.0620357647610427,10717.103142907472
0.06447102107323864,10523.839579392841
0.06700187503509585,10354.586951247584
0.06963207939763882,10195.536576078035
0.0723655342286965,10022.378178518204
0.07520629269592405,9809.086550686421
0.07815856707684081,9533.143513788124
0.08122673500479707,9178.416040292592
0.08441534596012978,8739.025399409267
0.0877291280161335,8219.981192546835
0.09117299484984914,7636.679765327807
0.09475205302806537,7014.230194019269
0.09847160957933764,6379.559955099019
0.1023371798632519,5761.9803001996115
0.10635449574860109,5199.21648683872
0.11052951411260206,4722.594874147871
0.1148684256737553,4351.137562761997
0.1193776641714435,4090.7455146193865
0.1240639159058831,3928.154006217002
0.12893412965257148,3839.238116800907
0.13399552696593373,3791.5181308508213
0.1392556128874462,3746.3163837762518
0.14472218707411338,3664.0674589008495
0.15040335536380234,3515.9820887976825
0.15630754179458153,3290.717876528831
0.16244350109588662,2998.306718210113
0.16882033167003618,2675.7049594847595
0.17544748908334581,2376.510538399269
0.1823348000868439,2139.503816748452
0.189492477187382,1977.4521531408895
0.19693113379074215,1887.0358083332665
0.20466179993919872,1843.3734637423042
0.21269593866686892,1802.3616896383623
0.22104546299710207,1727.6603834108996
0.22972275360711503,1606.487282416041
0.23874067718606454,1452.088641830458
0.2481126055137766,1299.1608231401713
0.25785243528842716,1179.3500498463955
0.26797460873256895,1103.8855300112034
0.27849413500806414,1057.3207160957072
0.28942661247167484,1010.8745178814263
0.3007882518043098,945.8132625839979
0.31259590004822796,863.0426973069739
0.324867065587837,783.0279131431254
0.3376199441111335,721.7610908510414
0.35087344559027084,678.6992648536996
0.36464722232127456,638.896675372629
0.37896169806447155,592.327557459918
0.3938380983288488,542.3949631223192
0.4092984818452433,498.9368921471084
0.4253657732750382,464.3869799043566
0.44206379720285277,432.56101498693727
0.45941731346364734,399.3361013507086
0.47745205385661277,367.3914817170154
0.4961947603002895,339.7756748141388
0.5156732244854959,314.87393033747526
0.5359163290848509,290.62408938240145
0.556954090580013,267.8306745274529
0.5788177037701272,247.37773675933795
0.6015395880274836,228.38530937604986
0.6251534353689703,210.49008310147968
0.6496942604146115,194.07484872991589
0.6751984523072497,178.94492525932395
0.7017038286703824,164.8410542671681
0.7292496916841444,151.8415480947343
0.7578768863625915,139.83275951586683
0.7876278611187046,128.71010494813652
0.8185467307069019,118.44298824065672
0.850679341636415,108.9699886365153
0.8840733401525058,100.23031710407385
0.9187782428863317,92.16791491024047
0.9548455102782278,84.73107006749072
0.9923286228832539,77.87212474421611
1.0312831606721837,71.54799403431029
1.0717668854455022,65.71936861937124
1.1138398264826193,60.34958805969311
1.1575643695533022,55.40446547296285
1.2030053494233226,50.85214594415729
1.2502301459914542,46.662927186020056
1.299308784200415,42.80894682095392
1.3503140378698726,39.264291226509705
1.4033215376054824,36.00496696473532
1.4584098829439835,33.00876599323662
1.5156607589006013,30.25513958216444
1.575159057091621,27.72509413454993
1.6369930016117014,25.401094139533043
1.7012542798525885,23.266923192134666
1.7680381784572046,21.307585364831397
1.8374437246107238,19.50921873116285
1.9095738328780953,17.85901439475127
1.9845354578058014,16.34513812816086
2.0624397525140905,14.95666075824176
2.143402233514853,13.683496000399007
2.227542951999554,12.516338836161466
2.314986671851158,11.446607915001202
2.405863054644063,10.466391280703213
2.5003068519063225,9.568392306479472
2.598458104929248,8.745887654697418
2.7004623524206774,7.992686826042868
2.806470846309834,7.303091575627991
2.916640776023701,6.67185824750876
3.031135501567576,6.0941628395884075
3.150124795755327,5.565568614962476
3.2737850959485697,5.081996159998104
3.4022997656780634,4.6396956212569656
3.5358593665351745,4.235220994563964
3.6746619407366854,3.865406323841237
3.8189133047818515,3.5273432726944374
3.968827354637162,3.218360773552817
4.1246263829013445,2.936006926656549
4.286541408420921,2.6780316035808345
4.4548125188449825,2.442370328157835
4.629689226627261,2.2271293798013674
4.811430839003257,2.0305718782995426
5.000306842491082,1.8511052763458948
5.196597302486189,1.6872698407426527
5.400593278542364,1.5377278667063254
5.612597255954967,1.401253737548911
5.8329235942862,1.2767247357864209
6.06189899349756,1.1631125154903335
6.29986297838068,1.0594754929921204
6.547168402004727,0.9649517425535736
6.804181968927091,0.8787524109935043
7.071284778942991,0.8001556612821593
7.348872892180382,0.728501043945843
7.637357916378006,0.6631843525810274
7.937167617217536,0.6036530558134354
8.248746552614573,0.5494019806864027
8.572556731909314,0.49996933355440154
8.909078300934132,0.45493304338848106
9.258810253973934,0.41390734347735453
9.622271173675122,0.37653973460207063
9.999999999999984,0.34250823564682525
