k [1/Mpc],P(k) [Mpc^3]
0.0001,90.41284281438486
0.00010392556829367125,94.50506765362925
0.00010800523745162529,98.78241624199046
0.00011224505680853065,103.25324261193373
0.00011665131316981963,107.92627552109066
0.00012123054013376525,112.81064466840432
0.00012598952777950273,117.91589709718332
0.00013093533273536104,123.25200632704731
0.00013607528864243335,128.82938044340517
0.00014141701702890234,134.65889142680226
0.00014696843861124463,140.75190497911476
0.00015273778503907136,147.12030405192476
0.00015873361110102093,153.7765029829179
0.00016496480740980205,160.73345656635044
0.0001714406135851971,168.00469279771227
0.00017817063195457305,175.60435133351632
0.00018516484179121546,183.54721748535414
0.000192433614111598,191.848737329823
0.00019998772705352857,200.525019303667
0.0002078383818579757,209.5928717087469
0.00021599721947827182,219.069852896393
0.0002244763378413224,228.97431384668693
0.0002332883097864157,239.32542229444834
0.00024244620170823283,250.14318011545436
0.0002519635929317015,261.4484587166689
0.0002618545958474233,273.2630467229241
0.0002721338768375308,285.60967754438997
0.0002828166780230032,298.51207871872305
0.0002939188398646886,311.99501038639863
0.0003054568246515432,326.08430448975906
0.00031744774091091926,340.80691615726397
0.00032990936877709396,356.19094411654135
0.00034286018635565856,372.26569075107204
0.00035631939712285854,389.0617163829691
0.000370306958400514,406.61087778887435
0.00038484361094874304,424.94639473873735
0.0003999509097203664,444.1028636678938
0.00041565125582259895,464.11631791870013
0.00043196792973341727,485.0243112435638
0.0004489251258218605,506.8659608528296
0.0004665479882234472,529.6820225630348
0.000484862648123908,553.5148926199845
0.000503896262506515,578.4086460845955
0.0005236770544204653,604.409163511349
0.0005442343548300266,631.5641617326479
0.0005655986461065005,659.923284470632
0.0005878016072274912,689.5381420505541
0.0006108761607505036,720.4623294919146
0.0006348565216305217,752.7515613693499
0.0006597782479539537,786.4636615066908
0.0006856782936641739,821.6586570724776
0.0007125950633568407,858.3988585706353
0.0007405684692262436,896.748814847017
0.0007696399902471156,936.7754925462332
0.0007998527336796708,978.548308953165
0.000831251498989063,1022.1391938653616
0.0008638828442740447,1067.6226724416117
0.000897795155303332,1115.0756908655296
0.0009330387172620361,1164.5778384579487
0.0009696657893145519,1216.2114017638928
0.001007730682094461,1270.0613508266451
0.0010472898382363582,1326.2154915066262
0.0010884019160690055,1384.764193209805
0.0011311278765939214,1445.800556784041
0.001175531073878369,1509.4204607226368
0.0012216773489967915,1575.7222783300476
0.0012696351276599736,1644.807216577839
0.0013194755216767058,1716.7789746958897
0.0013712724343984,1791.7437470193129
0.0014251026703029975,1869.8103861829388
0.0014810460488806749,1951.0897976046697
0.0015391855229902056,2035.6953352538592
0.001599607301861487,2123.742406655591
0.0016624009789266115,2215.3481267751654
0.0017276596646690358,2310.6317231354783
0.0017954801246878305,2409.713749682891
0.0018659629231817451,2512.716296431629
0.001939212572065829,2619.7626761181928
0.0020153376859417325,2730.9765784657225
0.002094451143151469,2846.4826040547077
0.002176670253153458,2966.4051070792425
0.002262116930469025,3090.8680791060497
0.002350917875457286,3219.9951666078227
0.002443204762186487,3353.9082492732214
0.0025391144336803463,3492.7279888740172
0.002638789104828933,3636.572999747389
0.002742376573264949,3785.5592021668217
0.0028500304385181063,3939.7997320508234
0.0029619103297725525,4099.402647026493
0.0030781821425650787,4264.471403230131
0.003199018284775064,4435.104280172826
0.0033245979322709396,4611.393074342242
0.003455107294592217,4793.423209426428
0.0035907398910610534,4981.270986052792
0.0037316968377327513,5175.003413157465
0.0038781871456107214,5374.6778950658745
0.0040304280305680515,5580.339785108762
0.00418864523543527,5792.022975484225
0.004353073364731888,6009.747073610766
0.00452395623253805,6233.516199911338
0.004701547224022131,6463.319246876917
0.004886109671160325,6699.126030459751
0.005077917243205399,6940.888177315347
0.005277254352483535,7188.535856277905
0.005484416576121017,7441.974546189087
0.005699711094326071,7701.087426794793
0.005923457145875801,7965.731096713815
0.006155986501483508,8235.7359107735
0.006397643955748424,8510.898046049946
0.0066487878384172625,8790.96460297569
0.0069097905457156435,9075.650033522024
0.007181039092537346,9364.66753311116
0.007462935686310132,9657.726376174893
0.007755898323389004,9954.476049791307
0.00806036140886134,10254.39717805585
0.008376776400682916,10556.888453161831
0.008705612479099857,10861.345162494377
0.009047357242349292,11167.178410119084
0.00940251742967013,11473.762243959483
0.009771619672696168,11780.425495177187
0.010155211276345676,12086.454861950007
0.010553861030365234,12391.053927115707
0.010968160052731372,12693.293917984465
0.011398722666160517,12992.18405176505
0.011846187309026826,13286.65240961954
0.012311217482038896,13575.557081432564
0.012794502732078732,13857.693179119788
0.013296759674662111,14131.754547718629
0.013818733056536317,14396.380647726337
0.014361196859990781,14650.124510638125
0.014924955450518284,14891.453618517415
0.015510844769528393,15118.78969818601
0.016119733573881575,15330.429561365538
0.01675252472408214,15524.623792010052
0.017410156523040152,15699.561633692145
0.018093604107387147,15853.338525124904
0.01880388089340914,15984.061763841817
0.019542040079740527,16089.771393783309
0.02030917620904734,16168.514983948886
0.021106426791015535,16218.382377477232
0.021934973989050584,16237.432561986112
0.02279604637318978,16223.852916504351
0.023690920741826323,16175.911982433165
0.02462092401494623,16092.009246642912
0.02558743520168586,15970.785666628857
0.02659188744512693,15811.074151682824
0.027635770147361564,15612.024143840672
0.028720631177978267,15373.155955937851
0.029848079169243254,15094.38677931367
0.03101978590138095,14776.095388808044
0.03223748878149028,14419.263956935994
0.0335029934197723,14025.396362956373
0.03481817630688963,13596.625219967591
0.03618498759642746,13135.887328280953
0.037605453996581675,12646.54715839704
0.03908168177536263,12132.956171335883
0.04061585988376978,11600.070268424428
0.04221026320156896,11053.116461584063
0.04386725591048496,10498.292960864423
0.0455892949998106,9941.58897990486
0.047378933909631396,9389.921191548037
0.049238826317067365,8850.922013993393
0.05117173007114603,8330.96111204195
0.05318051128214196,7835.415968260592
0.05526814857144601,7368.500817827863
0.057437737488265785,6935.580024323356
0.0596924950997073,6544.621089154661
0.0620357647610427,6201.41718796165
0.06447102107323864,5906.612059921938
0.06700187503509585,5658.93919874496
0.06963207939763882,5456.70629492699
0.0723655342286965,5298.048622710173
0.07520629269592405,5179.807485954288
0.07815856707684081,5097.322197354979
0.08122673500479707,5043.371481997298
0.08441534596012978,5008.1190038610575
0.0877291280161335,4979.563554460568
0.09117299484984914,4944.078306848497
0.09475205302806537,4886.495004583252
0.09847160957933764,4792.762256134233
0.1023371798632519,4651.593439480316
0.10635449574860109,4456.142885927894
0.11052951411260206,4205.898805116785
0.1148684256737553,3907.044664736904
0.1193776641714435,3572.2760116840964
0.1240639159058831,3220.8086562001395
0.12893412965257148,2875.985593435687
0.13399552696593373,2561.53680354814
0.1392556128874462,2297.553113310931
0.14472218707411338,2096.1255738624327
0.15040335536380234,1960.8982909197919
0.15630754179458153,1888.017512121655
0.16244350109588662,1866.597265630934
0.16882033167003618,1878.0692896588591
0.17544748908334581,1896.520354134684
0.1823348000868439,1892.759397145363
0.189492477187382,1841.6761055189356
0.19693113379074215,1730.4169389452268
0.20466179993919872,1565.6081613353815
0.21269593866686892,1374.4757809336334
0.22104546299710207,1193.768923184654
0.22972275360711503,1053.07744199766
0.23874067718606454,967.2272873772473
0.2481126055137766,935.2699979502567
0.25785243528842716,938.850750018228
0.26797460873256895,946.2052766423611
0.27849413500806414,925.1962331677879
0.28942661247167484,859.3678483140134
0.3007882518043098,760.0929568850676
0.31259590004822796,659.4144565227712
0.324867065587837,587.8121966946914
0.3376199441111335,555.9104702186559
0.35087344559027084,549.9739286011096
0.36464722232127456,542.5757232594175
0.37896169806447155,510.23507153735153
0.3938380983288488,455.06719270646505
0.4092984818452433,400.976154161336
0.4253657732750382,368.37017255564444
0.44206379720285277,355.70708078965583
0.45941731346364734,343.9724224903484
0.47745205385661277,318.1301641177264
0.4961947603002895,284.29880964206427
0.5156732244854959,258.93082981530125
0.5359163290848509,245.5947467537114
0.556954090580013,233.00039639210124
0.5788177037701272,213.389673638045
0.6015395880274836,193.47402849065165
0.6251534353689703,180.28422369318696
0.6496942604146115,169.45267097366224
0.6751984523072497,155.71151311308492
0.7017038286703824,142.52037986433186
0.7292496916841444,132.70226056724115
0.7578768863625915,123.06100620636943
0.7876278611187046,112.87650286555542
0.8185467307069019,104.38228247399849
0.850679341636415,96.769174490352
0.8840733401525058,89.44927615322746
0.9187782428863317,82.48972501032979
0.9548455102782278,75.94913450136238
0.9923286228832539,69.8654510490525
1.0312831606721837,64.25922550616296
1.0717668854455022,59.12754412925535
1.1138398264826193,54.42615000638176
1.1575643695533022,50.10795121255344
1.2030053494233226,46.132264615428845
1.2502301459914542,42.46389612920871
1.299308784200415,39.07247967754832
1.3503140378698726,35.9353805317398
1.4033215376054824,33.03643129649886
1.4584098829439835,30.360330518041906
1.5156607589006013,27.892358313674094
1.575159057091621,25.618413568128567
1.6369930016117014,23.524902956889683
1.7012542798525885,21.598089986511802
1.7680381784572046,19.82489862094922
1.8374437246107238,18.19327693528613
1.9095738328780953,16.69211680571886
1.9845354578058014,15.31117949124264
2.0624397525140905,14.041093380591901
2.143402233514853,12.873325287628042
2.227542951999554,11.799974954079099
2.314986671851158,10.8137156403875
2.405863054644063,9.907756235396004
2.5003068519063225,9.075803615837627
2.598458104929248,8.312009839173601
2.7004623524206774,7.610955649841757
2.806470846309834,6.967636815873126
2.916640776023701,6.37743407678016
3.031135501567576,5.836084845275501
3.150124795755327,5.3396576250860415
3.2737850959485697,4.884528846928881
3.4022997656780634,4.467357437277422
3.5358593665351745,4.085063237861464
3.6746619407366854,3.7348075375756857
3.8189133047818515,3.4139749474982644
3.968827354637162,3.1201560147349032
4.1246263829013445,2.85113179484556
4.286541408420921,2.604860075880054
4.4548125188449825,2.3794618690329106
4.629689226627261,2.173208846992202
4.811430839003257,1.9845116385605306
5.000306842491082,1.8119087844889301
5.196597302486189,1.6540571003899776
5.400593278542364,1.509722561015957
5.612597255954967,1.3777717153596774
5.8329235942862,1.2571637475130406
6.06189899349756,1.1469429833738458
6.29986297838068,1.0462320680209254
6.547168402004727,0.954226022840264
6.804181968927091,0.8701864697689635
7.071284778942991,0.7934362705064997
7.348872892180382,0.7233545882402352
7.637357916378006,0.6593723746942305
7.937167617217536,0.6009681289970313
8.248746552614573,0.5476639936084969
8.572556731909314,0.49902219495877004
8.909078300934132,0.45464176569802023
9.258810253973934,0.41415545670053705
9.622271173675122,0.37722686276683354
9.999999999999984,0.34354808819494637
