k [1/Mpc],P(k) [Mpc^3]
0.0001,1034.6918666284967
0.00010392556829367125,1075.0990281948846
0.00010800523745162529,1117.0669434711951
0.00011224505680853065,1160.653752253187
0.00011665131316981963,1205.9196070345386
0.00012123054013376525,1252.9267272605177
0.00012598952777950273,1301.7394286586914
0.00013093533273536104,1352.4237848154348
0.00013607528864243335,1405.0478118130077
0.00014141701702890234,1459.6816903717697
0.00014696843861124463,1516.397735574769
0.00015273778503907136,1575.2705218301487
0.00015873361110102093,1636.376611955553
0.00016496480740980205,1699.7946103165746
0.0001714406135851971,1765.6053046534237
0.00017817063195457305,1833.8911973342458
0.00018516484179121546,1904.73692512009
0.000192433614111598,1978.2291566413692
0.00019998772705352857,2054.4565045250274
0.0002078383818579757,2133.5096715247796
0.00021599721947827182,2215.4806194976013
0.0002244763378413224,2300.4630183962813
0.0002332883097864157,2388.5521907501115
0.00024244620170823283,2479.8447064582706
0.0002519635929317015,2574.4387705227527
0.0002618545958474233,2672.4332029517545
0.0002721338768375308,2773.927661869859
0.0002828166780230032,2879.022700581051
0.0002939188398646886,2987.818833199349
0.0003054568246515432,3100.4171896611965
0.00031744774091091926,3216.918610568191
0.00032990936877709396,3337.4234563933433
0.00034286018635565856,3462.031749800371
0.00035631939712285854,3590.8415981054072
0.000370306958400514,3723.9499640972467
0.00038484361094874304,3861.452016704646
0.0003999509097203664,4003.44048275151
0.00041565125582259895,4150.005981603436
0.00043196792973341727,4301.235561879156
0.0004489251258218605,4457.212933874683
0.0004665479882234472,4618.017601839598
0.000484862648123908,4783.723399627919
0.000503896262506515,4954.399332038734
0.0005236770544204653,5130.108012695975
0.0005442343548300266,5310.905481688539
0.0005655986461065005,5496.840412998436
0.0005878016072274912,5687.951504147722
0.0006108761607505036,5884.268737436099
0.0006348565216305217,6085.810505689962
0.0006597782479539537,6292.582790436354
0.0006856782936641739,6504.579601476624
0.0007125950633568407,6721.778432913489
0.0007405684692262436,6944.142265195552
0.0007696399902471156,7171.616115025111
0.0007998527336796708,7404.124305741787
0.000831251498989063,7641.573123351001
0.0008638828442740447,7883.844823777075
0.000897795155303332,8130.799547119163
0.0009330387172620361,8382.27475318828
0.0009696657893145519,8638.081964944113
0.001007730682094461,8898.008939097848
0.0010472898382363582,9161.81553998879
0.0010884019160690055,9429.234001902048
0.0011311278765939214,9699.968193717905
0.001175531073878369,9973.68770725765
0.0012216773489967915,10250.032714845609
0.0012696351276599736,10528.615386448766
0.0013194755216767058,10809.019677136512
0.0013712724343984,11090.799295380206
0.0014251026703029975,11373.471950163479
0.0014810460488806749,11656.524316564532
0.0015391855229902056,11939.435599602897
0.001599607301861487,12221.689173705528
0.0016624009789266115,12502.749007443348
0.0017276596646690358,12782.06682261655
0.0017954801246878305,13059.078584429844
0.0018659629231817451,13333.170887557048
0.001939212572065829,13603.645517662713
0.0020153376859417325,13869.777416941584
0.002094451143151469,14130.874477633944
0.002176670253153458,14386.266346535402
0.002262116930469025,14635.270962650238
0.002350917875457286,14877.191200095283
0.002443204762186487,15111.323365960185
0.0025391144336803463,15336.97604867274
0.002638789104828933,15553.473822714865
0.002742376573264949,15760.15188925939
0.0028500304385181063,15956.380865725378
0.0029619103297725525,16141.551732477827
0.0030781821425650787,16315.063629539598
0.003199018284775064,16476.32318187995
0.0033245979322709396,16624.758679232298
0.003455107294592217,16759.839300272753
0.0035907398910610534,16881.068666232215
0.0037316968377327513,16987.873935801403
0.0038781871456107214,17079.48128526742
0.0040304280305680515,17155.165997191663
0.00418864523543527,17214.889702627002
0.004353073364731888,17259.116907388525
0.00452395623253805,17287.906041685565
0.004701547224022131,17299.81735592703
0.004886109671160325,17293.172634728347
0.005077917243205399,17267.24627327631
0.005277254352483535,17222.296957264283
0.005484416576121017,17158.667440988564
0.005699711094326071,17076.66043740613
0.005923457145875801,16976.60034240077
0.006155986501483508,16858.627912882366
0.006397643955748424,16722.58463086373
0.0066487878384172625,16568.344294138442
0.0069097905457156435,16395.760664747195
0.007181039092537346,16204.726725705596
0.007462935686310132,15995.259892710534
0.007755898323389004,15767.542939299561
0.00806036140886134,15521.856387212332
0.008376776400682916,15258.495990775295
0.008705612479099857,14977.80155648465
0.009047357242349292,14680.155752017925
0.00940251742967013,14365.840661307438
0.009771619672696168,14035.216762300244
0.010155211276345676,13688.585324110674
0.010553861030365234,13326.199856169118
0.010968160052731372,12948.508946216047
0.011398722666160517,12556.26225979438
0.011846187309026826,12150.409444028277
0.012311217482038896,11731.794888286988
0.012794502732078732,11301.049683404359
0.013296759674662111,10858.98828862622
0.013818733056536317,10406.477314305072
0.014361196859990781,9944.555062859214
0.014924955450518284,9474.48929083493
0.015510844769528393,8997.718106441362
0.016119733573881575,8515.902901115203
0.01675252472408214,8030.65745326486
0.017410156523040152,7543.661975975891
0.018093604107387147,7056.87771108979
0.01880388089340914,6572.513385776254
0.019542040079740527,6092.958114320768
0.02030917620904734,5620.676463526251
0.021106426791015535,5158.157826790597
0.021934973989050584,4707.964489191887
0.02279604637318978,4272.877958975663
0.023690920741826323,3855.5259643744366
0.02462092401494623,3458.4065841357465
0.02558743520168586,3083.8631048045513
0.02659188744512693,2733.7737993618475
0.027635770147361564,2410.3928928806067
0.028720631177978267,2115.3475932033525
0.029848079169243254,1849.4649722905465
0.03101978590138095,1613.2753517883218
0.03223748878149028,1406.199460842736
0.0335029934197723,1227.4061739690528
0.03481817630688963,1075.6204311535098
0.03618498759642746,949.1609043356384
0.037605453996581675,847.0076713790949
0.03908168177536263,767.8639509110409
0.04061585988376978,709.7264468709419
0.04221026320156896,670.4548727625983
0.04386725591048496,648.484453373269
0.0455892949998106,641.0939372360982
0.047378933909631396,645.7962169455847
0.049238826317067365,660.2995824443717
0.05117173007114603,681.689643798675
0.05318051128214196,706.682378876297
0.05526814857144601,730.6334682294829
0.057437737488265785,747.9015445741558
0.0596924950997073,753.1443558924545
0.0620357647610427,741.9628872007346
0.06447102107323864,712.1654337817132
0.06700187503509585,664.2454884291088
0.06963207939763882,599.3607381812507
0.0723655342286965,520.3979217225816
0.07520629269592405,435.26822223505116
0.07815856707684081,352.91496890104884
0.08122673500479707,280.7748896097123
0.08441534596012978,222.5259524975252
0.0877291280161335,179.24087271361853
0.09117299484984914,151.42988628186623
0.09475205302806537,138.1133667496485
0.09847160957933764,136.9544044124851
0.1023371798632519,144.20351897160006
0.10635449574860109,157.45754399782905
0.11052951411260206,172.26575727412674
0.1148684256737553,181.15016451444754
0.1193776641714435,178.1138473447212
0.1240639159058831,163.01507427132566
0.12893412965257148,139.36300417546124
0.13399552696593373,112.07427440370213
0.1392556128874462,87.5275748349399
0.14472218707411338,70.84699614693301
0.15040335536380234,62.0358921245031
0.15630754179458153,59.77699093911754
0.16244350109588662,61.81902075750488
0.16882033167003618,64.45594346594454
0.17544748908334581,64.29593503415418
0.1823348000868439,59.19347157378349
0.189492477187382,50.6755988484019
0.19693113379074215,42.26735528142118
0.20466179993919872,36.06320263656439
0.21269593866686892,33.04026837416138
0.22104546299710207,32.02751793202233
0.22972275360711503,31.246938072865373
0.23874067718606454,29.22962271820174
0.2481126055137766,25.98202361356406
0.25785243528842716,22.75509370410182
0.26797460873256895,20.39881900234631
0.27849413500806414,18.978387761801173
0.28942661247167484,17.79370594339519
0.3007882518043098,16.333439638395898
0.31259590004822796,14.686576388054396
0.324867065587837,13.248714083415024
0.3376199441111335,12.149192156777588
0.35087344559027084,11.176568213831047
0.36464722232127456,10.189683431342345
0.37896169806447155,9.240373663390084
0.3938380983288488,8.419994385454691
0.4092984818452433,7.695250302704443
0.4253657732750382,7.010106746061216
0.44206379720285277,6.376679286881858
0.45941731346364734,5.808369206540616
0.47745205385661277,5.292633634377342
0.4961947603002895,4.816190411376305
0.5156732244854959,4.382213858640713
0.5359163290848509,3.988990272643586
0.556954090580013,3.628921232541089
0.5788177037701272,3.300789981634687
0.6015395880274836,3.002301275846081
0.6251534353689703,2.730066715388258
0.6496942604146115,2.4820907586296705
0.6751984523072497,2.256222979035344
0.7017038286703824,2.050461681502195
0.7292496916841444,1.8631208565261048
0.7578768863625915,1.692608017918891
0.7876278611187046,1.5374422778421686
0.8185467307069019,1.3962698676780756
0.850679341636415,1.2678535586507724
0.8840733401525058,1.1510629370547338
0.9187782428863317,1.0448658718820103
0.9548455102782278,0.9483201836287118
0.9923286228832539,0.8605654632806461
1.0312831606721837,0.78081616066841
1.0717668854455022,0.708355269505773
1.1138398264826193,0.6425281829685323
1.1575643695533022,0.5827361650079931
1.2030053494233226,0.5284332085382
1.2502301459914542,0.47912207139575114
1.299308784200415,0.4343499752424114
1.3503140378698726,0.39370470096474464
1.4033215376054824,0.3568118005066594
1.4584098829439835,0.3233311916515004
1.5156607589006013,0.2929529340206502
1.575159057091621,0.26539456579268567
1.6369930016117014,0.2403987442940705
1.7012542798525885,0.2177309396973863
1.7680381784572046,0.1971769025228118
1.8374437246107238,0.178541609292986
1.9095738328780953,0.16164784991759018
1.9845354578058014,0.14633461611584103
2.0624397525140905,0.13245563914602015
2.143402233514853,0.11987827003130411
2.227542951999554,0.10848224407393073
2.314986671851158,0.09815821806464725
2.405863054644063,0.08880677836348509
2.5003068519063225,0.08033756094814802
2.598458104929248,0.07266841657522356
2.7004623524206774,0.0657245455892706
2.806470846309834,0.05943800179526506
2.916640776023701,0.053747144451650415
3.031135501567576,0.048596058771582344
3.150124795755327,0.04393402970364709
3.2737850959485697,0.03971509636262384
3.4022997656780634,0.03589761654441316
3.5358593665351745,0.032443812961479954
3.6746619407366854,0.029319415925707006
3.8189133047818515,0.026493342840050973
3.968827354637162,0.023937404187035747
4.1246263829013445,0.02162602743880288
4.286541408420921,0.019536029006563795
4.4548125188449825,0.01764640001184593
4.629689226627261,0.01593810471418025
4.811430839003257,0.014393897344340809
5.000306842491082,0.012998155047139606
5.196597302486189,0.01173672671329284
5.400593278542364,0.010596797012786738
5.612597255954967,0.00956676175965823
5.8329235942862,0.008636114662669872
6.06189899349756,0.007795344565031198
6.29986297838068,0.007035842298382562
6.547168402004727,0.006349815889844936
6.804181968927091,0.005730213706877157
7.071284778942991,0.0051706548276484665
7.348872892180382,0.004665365884931238
7.637357916378006,0.004209123705241569
7.937167617217536,0.0037972033582450784
8.248746552614573,0.003425331238674878
8.572556731909314,0.0030896423768336997
8.909078300934132,0.0027866417293062485
9.258810253973934,0.0025131690118697274
9.622271173675122,0.00226636641656544
9.999999999999984,0.0020436503967293028
