k [1/Mpc],P(k) [Mpc^3]
0.0001,79.0407791084381
0.00010392556829367125,82.37952263876232
0.00010800523745162529,85.8591646311619
0.00011224505680853065,89.48563152605385
0.00011665131316981963,93.26509709981829
0.00012123054013376525,97.20399496606063
0.00012598952777950273,101.30903026124545
0.00013093533273536104,105.58718781491365
0.00013607528864243335,110.04573618315099
0.00014141701702890234,114.6922428962246
0.00014696843861124463,119.53459160907859
0.00015273778503907136,124.58099707004237
0.00015873361110102093,129.84001575210456
0.00016496480740980205,135.32055242342162
0.0001714406135851971,141.03187548705853
0.00017817063195457305,146.98363488013325
0.00018516484179121546,153.18587293136846
0.000192433614111598,159.64904426729225
0.00019998772705352857,166.3840319585112
0.0002078383818579757,173.40216426682375
0.00021599721947827182,180.7152310215277
0.0002244763378413224,188.33548518603044
0.0002332883097864157,196.27567114414984
0.00024244620170823283,204.5490512393232
0.0002519635929317015,213.16942667062636
0.0002618545958474233,222.1511547385598
0.0002721338768375308,231.50913971311317
0.0002828166780230032,241.25886271369754
0.0002939188398646886,251.41642089430073
0.0003054568246515432,261.99854968534976
0.00031744774091091926,273.0226466993878
0.00032990936877709396,284.5067665482007
0.00034286018635565856,296.4696421600466
0.00035631939712285854,308.93072723066825
0.000370306958400514,321.91018983274427
0.00038484361094874304,335.42896040547447
0.0003999509097203664,349.5087533971326
0.00041565125582259895,364.172083625929
0.00043196792973341727,379.4423063750279
0.0004489251258218605,395.3435918430827
0.0004665479882234472,411.9009743175876
0.000484862648123908,429.1403741912883
0.000503896262506515,447.08857294464724
0.0005236770544204653,465.7732959949803
0.0005442343548300266,485.2232093545531
0.0005655986461065005,505.4679492484002
0.0005878016072274912,526.5381540913323
0.0006108761607505036,548.4654095804461
0.0006348565216305217,571.282335613068
0.0006597782479539537,595.0225487311156
0.0006856782936641739,619.7206486245348
0.0007125950633568407,645.4123198862717
0.0007405684692262436,672.1342949203395
0.0007696399902471156,699.924406143941
0.0007998527336796708,728.8215190557422
0.000831251498989063,758.8654138086023
0.0008638828442740447,790.0969599319368
0.000897795155303332,822.5580443542358
0.0009330387172620361,856.2915994840491
0.0009696657893145519,891.3415747796244
0.001007730682094461,927.7526919669466
0.0010472898382363582,965.5706458772614
0.0010884019160690055,1004.8419180144134
0.0011311278765939214,1045.613707676071
0.001175531073878369,1087.9340423401586
0.0012216773489967915,1131.8513768730295
0.0012696351276599736,1177.4147826454962
0.0013194755216767058,1224.6737644491704
0.0013712724343984,1273.6779746135896
0.0014251026703029975,1324.477443210431
0.0014810460488806749,1377.121971029534
0.0015391855229902056,1431.6612247961878
0.001599607301861487,1488.1448090912313
0.0016624009789266115,1546.6219114665464
0.0017276596646690358,1607.1413992918137
0.0017954801246878305,1669.7510809838202
0.0018659629231817451,1734.4975322686748
0.001939212572065829,1801.426249641979
0.0020153376859417325,1870.5807482525704
0.002094451143151469,1942.0028898803357
0.002176670253153458,2015.7325597705
0.002262116930469025,2091.8072534707467
0.002350917875457286,2170.2620987664527
0.002443204762186487,2251.1287277666393
0.0025391144336803463,2334.4354105261664
0.002638789104828933,2420.206895584794
0.002742376573264949,2508.463709780951
0.0028500304385181063,2599.222267114956
0.0029619103297725525,2692.493763720633
0.0030781821425650787,2788.283950389101
0.003199018284775064,2886.593195915318
0.0033245979322709396,2987.415649971661
0.003455107294592217,3090.7392641261395
0.0035907398910610534,3196.5446071654524
0.0037316968377327513,3304.8041910015545
0.0038781871456107214,3415.48288885991
0.0040304280305680515,3528.536829116267
0.00418864523543527,3643.913459474876
0.004353073364731888,3761.5509287334326
0.00452395623253805,3881.3771709971074
0.004701547224022131,4003.3102206919007
0.004886109671160325,4127.256516598151
0.005077917243205399,4253.110993196106
0.005277254352483535,4380.758147374905
0.005484416576121017,4510.072858976858
0.005699711094326071,4640.918733061872
0.005923457145875801,4773.139796255619
0.006155986501483508,4906.559566616854
0.006397643955748424,5040.994830439133
0.0066487878384172625,5176.285272365984
0.0069097905457156435,5312.2719461554825
0.007181039092537346,5448.738851273216
0.007462935686310132,5585.3813137523175
0.007755898323389004,5721.875248750901
0.00806036140886134,5857.9376551031955
0.008376776400682916,5993.3033605394785
0.008705612479099857,6127.700851889875
0.009047357242349292,6260.858235893361
0.00940251742967013,6392.495095072563
0.009771619672696168,6522.291480745442
0.010155211276345676,6649.892020191134
0.010553861030365234,6774.9300761179165
0.010968160052731372,6897.028129861267
0.011398722666160517,7015.800515519834
0.011846187309026826,7130.8594026748315
0.012311217482038896,7241.817817018477
0.012794502732078732,7348.284849459111
0.013296759674662111,7449.856334260134
0.013818733056536317,7546.123247260027
0.014361196859990781,7636.675000566386
0.014924955450518284,7721.0975826346985
0.015510844769528393,7798.982144444194
0.016119733573881575,7869.925332167111
0.01675252472408214,7933.5328521916545
0.017410156523040152,7989.422013032071
0.018093604107387147,8037.219141975724
0.01880388089340914,8076.5683077816575
0.019542040079740527,8107.136072788243
0.02030917620904734,8128.614408400569
0.021106426791015535,8140.724409792212
0.021934973989050584,8143.224458311515
0.02279604637318978,8135.908629320153
0.023690920741826323,8118.615014084005
0.02462092401494623,8091.233351821364
0.02558743520168586,8053.697263624934
0.02659188744512693,8006.010769965541
0.027635770147361564,7948.235612864933
0.028720631177978267,7880.493939066062
0.029848079169243254,7802.9992075049095
0.03101978590138095,7716.013836607611
0.03223748878149028,7619.885486915116
0.0335029934197723,7515.036488311319
0.03481817630688963,7401.934566084746
0.03618498759642746,7281.1470242596415
0.037605453996581675,7153.276648601577
0.03908168177536263,7018.960316886798
0.04061585988376978,6878.8724796308725
0.04221026320156896,6733.694625487226
0.04386725591048496,6584.173569718609
0.0455892949998106,6431.068509848381
0.047378933909631396,6275.005219099472
0.049238826317067365,6116.359841215912
0.05117173007114603,5955.5125853030095
0.05318051128214196,5793.315542077173
0.05526814857144601,5630.90624214232
0.057437737488265785,5468.956405743137
0.0596924950997073,5306.737289713069
0.0620357647610427,5143.337780841924
0.06447102107323864,4978.298714935845
0.06700187503509585,4811.612996697985
0.06963207939763882,4643.510250842737
0.0723655342286965,4475.213899315199
0.07520629269592405,4308.181160288295
0.07815856707684081,4143.112759754534
0.08122673500479707,3979.5908628779052
0.08441534596012978,3817.2485310979027
0.0877291280161335,3656.5183069890795
0.09117299484984914,3498.222680990327
0.09475205302806537,3343.408557745981
0.09847160957933764,3193.6411504481925
0.1023371798632519,3049.960405041016
0.10635449574860109,2911.6872046432513
0.11052951411260206,2777.9091124894258
0.1148684256737553,2648.4330764473953
0.1193776641714435,2523.2720581876606
0.1240639159058831,2402.33322213139
0.12893412965257148,2285.1796406917265
0.13399552696593373,2170.674443119487
0.1392556128874462,2058.1448264939754
0.14472218707411338,1947.6354496906197
0.15040335536380234,1840.2417690577536
0.15630754179458153,1737.4635409331881
0.16244350109588662,1640.460432203409
0.16882033167003618,1548.7752686879533
0.17544748908334581,1461.2948434627228
0.1823348000868439,1377.7152346759653
0.189492477187382,1298.4952441113107
0.19693113379074215,1222.5935026596273
0.20466179993919872,1149.4641246437875
0.21269593866686892,1079.5209735967362
0.22104546299710207,1013.271577655208
0.22972275360711503,950.372108827549
0.23874067718606454,890.9972694519421
0.2481126055137766,835.0185984099269
0.25785243528842716,781.9335075786595
0.26797460873256895,731.6427134544334
0.27849413500806414,684.011069326686
0.28942661247167484,639.1756328962412
0.3007882518043098,596.9018652053743
0.31259590004822796,557.1027476316898
0.324867065587837,519.6506097273008
0.3376199441111335,484.40055785511555
0.35087344559027084,451.2784653701129
0.36464722232127456,420.1812224820102
0.37896169806447155,390.9986547074724
0.3938380983288488,363.63930212112746
0.4092984818452433,338.0016074844994
0.4253657732750382,313.9939962447167
0.44206379720285277,291.54110903944036
0.45941731346364734,270.5400391381978
0.47745205385661277,250.92163116698973
0.4961947603002895,232.61277423534167
0.5156732244854959,215.5351999906675
0.5359163290848509,199.61808782348248
0.556954090580013,184.7948564789742
0.5788177037701272,171.0001254438748
0.6015395880274836,158.16906111790587
0.6251534353689703,146.23948938927185
0.6496942604146115,135.15296550010777
0.6751984523072497,124.85217744819774
0.7017038286703824,115.28538454648111
0.7292496916841444,106.40544888617744
0.7578768863625915,98.16732672395653
0.7876278611187046,90.52841320175833
0.8185467307069019,83.45328795709398
0.850679341636415,76.90332441653035
0.8840733401525058,70.84340064616389
0.9187782428863317,65.23974840552438
0.9548455102782278,60.05797032609278
0.9923286228832539,55.26718926815498
1.0312831606721837,50.83946387969879
1.0717668854455022,46.749342933536866
1.1138398264826193,42.97363368730545
1.1575643695533022,39.49117440779979
1.2030053494233226,36.28041798022023
1.2502301459914542,33.320463204949206
1.299308784200415,30.59216123736471
1.3503140378698726,28.07841811363288
1.4033215376054824,25.76336513678573
1.4584098829439835,23.632199385908176
1.5156607589006013,21.671123346998115
1.575159057091621,19.867283299984067
1.6369930016117014,18.208664536585736
1.7012542798525885,16.684068606430277
1.7680381784572046,15.283111514035713
1.8374437246107238,13.996170371692369
1.9095738328780953,12.814331743393621
1.9845354578058014,11.729342783860417
2.0624397525140905,10.733564586265631
2.143402233514853,9.819931009464536
2.227542951999554,8.98190907247673
2.314986671851158,8.213461278727426
2.405863054644063,7.509010363278017
2.5003068519063225,6.8634064366665
2.598458104929248,6.271896219514905
2.7004623524206774,5.7300940491087395
2.806470846309834,5.233955027560759
2.916640776023701,4.779750000757119
3.031135501567576,4.36404232447425
3.150124795755327,3.983667186114141
3.2737850959485697,3.6357105966088348
3.4022997656780634,3.317489600404066
3.5358593665351745,3.026534883302049
3.6746619407366854,2.760574617098739
3.8189133047818515,2.517518410879867
3.968827354637162,2.2954405009369956
4.1246263829013445,2.0925713705265063
4.286541408420921,1.9072868171530273
4.4548125188449825,1.738096390957326
4.629689226627261,1.5836327357911097
4.811430839003257,1.442642875874908
5.000306842491082,1.3139793142000356
5.196597302486189,1.196589480959848
5.400593278542364,1.0895080025264565
5.612597255954967,0.9918497572713848
5.8329235942862,0.9028033593644247
6.06189899349756,0.8216242790091268
6.29986297838068,0.7476301658931555
6.547168402004727,0.6801965851052273
6.804181968927091,0.6187522364434529
7.071284778942991,0.5627745431817222
7.348872892180382,0.5117857187553693
7.637357916378006,0.4653493191242665
7.937167617217536,0.4230663207199687
8.248746552614573,0.38457187946368754
8.572556731909314,0.3495324859816331
8.909078300934132,0.31764334437274566
9.258810253973934,0.2886257341598476
9.622271173675122,0.2622247991415683
9.999999999999984,0.23820791697170454
