k [1/Mpc],P(k) [Mpc^3]
0.0001,187.7522783550214
0.00010392556829367125,195.68504495826772
0.00010800523745162529,203.9528200514785
0.00011224505680853065,212.56972655770156
0.00011665131316981963,221.5504849903467
0.00012123054013376525,230.91043993612988
0.00012598952777950273,240.66558162877308
0.00013093533273536104,250.8325698049578
0.00013607528864243335,261.4287633298635
0.00014141701702890234,272.4722412304998
0.00014696843861124463,283.98182289824655
0.00015273778503907136,295.97711410098043
0.00015873361110102093,308.47855357230355
0.00016496480740980205,321.50744438282896
0.0001714406135851971,335.08597995338107
0.00017817063195457305,349.2372751072381
0.00018516484179121546,363.9854092459139
0.000192433614111598,379.3554492689635
0.00019998772705352857,395.373488554239
0.0002078383818579757,412.06670772192757
0.00021599721947827182,429.4634309995313
0.0002244763378413224,447.593165204294
0.0002332883097864157,466.48662486991583
0.00024244620170823283,486.17576929514325
0.0002519635929317015,506.69387644758655
0.0002618545958474233,528.0755906811578
0.0002721338768375308,550.3569815957104
0.0002828166780230032,573.575592598051
0.0002939188398646886,597.7704813928804
0.0003054568246515432,622.9823026624167
0.00031744774091091926,649.2533668217299
0.00032990936877709396,676.6277071948475
0.00034286018635565856,705.1511267192842
0.00035631939712285854,734.8711873680826
0.000370306958400514,765.8373476524844
0.00038484361094874304,798.1010783947252
0.0003999509097203664,831.7159469683296
0.00041565125582259895,866.7376539013961
0.00043196792973341727,903.2239864568679
0.0004489251258218605,941.2349716499583
0.0004665479882234472,980.8329816788308
0.000484862648123908,1022.0827946807789
0.000503896262506515,1065.0517155685677
0.0005236770544204653,1109.8095977102491
0.0005442343548300266,1156.428958179588
0.0005655986461065005,1204.985055203179
0.0005878016072274912,1255.5558646394697
0.0006108761607505036,1308.2222921407524
0.0006348565216305217,1363.0682145648914
0.0006597782479539537,1420.1805760677323
0.0006856782936641739,1479.6495026994035
0.0007125950633568407,1541.5681914103377
0.0007405684692262436,1606.0331631956878
0.0007696399902471156,1673.1443595453068
0.0007998527336796708,1743.0052053840786
0.000831251498989063,1815.7227547559064
0.0008638828442740447,1891.407490888055
0.000897795155303332,1970.1735656917367
0.0009330387172620361,2052.1388935382874
0.0009696657893145519,2137.4250510606635
0.001007730682094461,2226.1575853564555
0.0010472898382363582,2318.465812804488
0.0010884019160690055,2414.4829547774043
0.0011311278765939214,2514.346284175398
0.001175531073878369,2618.1967956438325
0.0012216773489967915,2726.1796036891496
0.0012696351276599736,2838.443519297795
0.0013194755216767058,2955.140944873078
0.0013712724343984,3076.4282938202273
0.0014251026703029975,3202.465212000886
0.0014810460488806749,3333.4150717803223
0.0015391855229902056,3469.444656395206
0.001599607301861487,3610.7236049500125
0.0016624009789266115,3757.42507291207
0.0017276596646690358,3909.7247840572413
0.0017954801246878305,4067.8012558405753
0.0018659629231817451,4231.835485196604
0.001939212572065829,4402.009485783726
0.0020153376859417325,4578.507400444372
0.002094451143151469,4761.5144753441145
0.002176670253153458,4951.216804557996
0.002262116930469025,5147.80132131325
0.002350917875457286,5351.4534872740005
0.002443204762186487,5562.358384345789
0.0025391144336803463,5780.699551297262
0.002638789104828933,6006.6578707805265
0.002742376573264949,6240.41218869298
0.0028500304385181063,6482.136577374163
0.0029619103297725525,6732.000839446611
0.0030781821425650787,6990.169637306026
0.003199018284775064,7256.800312568425
0.0033245979322709396,7532.043818902323
0.003455107294592217,7816.041972798117
0.0035907398910610534,8108.927013958176
0.0037316968377327513,8410.820719345067
0.0038781871456107214,8721.830147612378
0.0040304280305680515,9042.049441457273
0.00418864523543527,9371.557069590854
0.004353073364731888,9710.414202479824
0.00452395623253805,10058.664482839082
0.004701547224022131,10416.327299192002
0.004886109671160325,10783.399963232529
0.005077917243205399,11159.855418787281
0.005277254352483535,11545.638675330829
0.005484416576121017,11940.668190416523
0.005699711094326071,12344.827883770968
0.005923457145875801,12757.968225550514
0.006155986501483508,13179.905345230476
0.006397643955748424,13610.414754769483
0.0066487878384172625,14049.233653590585
0.0069097905457156435,14496.037201052486
0.007181039092537346,14950.438368334519
0.007462935686310132,15412.016210521842
0.007755898323389004,15880.354962838726
0.00806036140886134,16355.007551039407
0.008376776400682916,16835.36927925315
0.008705612479099857,17320.633304417126
0.009047357242349292,17809.926133420013
0.00940251742967013,18302.40163794262
0.009771619672696168,18797.19232657786
0.010155211276345676,19293.36542824611
0.010553861030365234,19789.915462700767
0.010968160052731372,20285.767923471547
0.011398722666160517,20779.69092257469
0.011846187309026826,21270.323138241773
0.012311217482038896,21756.212104003014
0.012794502732078732,22235.773289834553
0.013296759674662111,22707.33855027666
0.013818733056536317,23169.125948010667
0.014361196859990781,23619.24313133152
0.014924955450518284,24055.718145836876
0.015510844769528393,24476.432823405405
0.016119733573881575,24879.19100605293
0.01675252472408214,25261.686448792603
0.017410156523040152,25621.47584315751
0.018093604107387147,25956.073135841787
0.01880388089340914,26262.853933324724
0.019542040079740527,26539.139933572824
0.02030917620904734,26782.229231517013
0.021106426791015535,26989.342893583813
0.021934973989050584,27157.758685943412
0.02279604637318978,27284.748884945006
0.023690920741826323,27367.640777441375
0.02462092401494623,27403.911739852232
0.02558743520168586,27391.149061444197
0.02659188744512693,27327.173442880743
0.027635770147361564,27210.089742021628
0.028720631177978267,27038.32423123855
0.029848079169243254,26810.702618394833
0.03101978590138095,26526.59963141024
0.03223748878149028,26185.87886572076
0.0335029934197723,25789.071021782816
0.03481817630688963,25337.536354309912
0.03618498759642746,24833.175047208206
0.037605453996581675,24279.000972219004
0.03908168177536263,23678.762905651052
0.04061585988376978,23036.946724563186
0.04221026320156896,22359.508379095772
0.04386725591048496,21652.622538230804
0.0455892949998106,20923.498797986016
0.047378933909631396,20180.00387934393
0.049238826317067365,19430.042879412504
0.05117173007114603,18683.526814892764
0.05318051128214196,17949.896850593566
0.05526814857144601,17236.931969767564
0.057437737488265785,16550.75851497588
0.0596924950997073,15897.151845226701
0.0620357647610427,15286.087153922199
0.06447102107323864,14728.135115293428
0.06700187503509585,14228.143353133297
0.06963207939763882,13783.808224657389
0.0723655342286965,13391.987478489387
0.07520629269592405,13048.099355170802
0.07815856707684081,12746.789786556039
0.08122673500479707,12479.215858659609
0.08441534596012978,12235.546161267474
0.0877291280161335,12004.232138626929
0.09117299484984914,11771.259824113758
0.09475205302806537,11518.354354469819
0.09847160957933764,11226.123547028474
0.1023371798632519,10876.764570513884
0.10635449574860109,10459.344207682461
0.11052951411260206,9972.067925114692
0.1148684256737553,9422.853502003276
0.1193776641714435,8828.376735814138
0.1240639159058831,8210.823195043695
0.12893412965257148,7596.2286949021645
0.13399552696593373,7011.433348564568
0.1392556128874462,6483.743834883972
0.14472218707411338,6035.8929116537665
0.15040335536380234,5681.774177020611
0.15630754179458153,5422.377759011694
0.16244350109588662,5243.698936553543
0.16882033167003618,5118.987574780986
0.17544748908334581,5012.529090586705
0.1823348000868439,4885.764855095438
0.189492477187382,4706.315822515874
0.19693113379074215,4457.240207871683
0.20466179993919872,4142.168220619897
0.21269593866686892,3785.9544676067253
0.22104546299710207,3431.086305688544
0.22972275360711503,3124.230516354685
0.23874067718606454,2895.0965320392716
0.2481126055137766,2745.536693773429
0.25785243528842716,2654.386039315691
0.26797460873256895,2583.235334937441
0.27849413500806414,2486.5447706969985
0.28942661247167484,2337.104193913521
0.3007882518043098,2142.3770098458644
0.31259590004822796,1937.7739410920294
0.324867065587837,1765.6442935055709
0.3376199441111335,1648.0033844050542
0.35087344559027084,1575.5679115618952
0.36464722232127456,1513.3603951329897
0.37896169806447155,1427.1006307813013
0.3938380983288488,1312.1170508211042
0.4092984818452433,1192.208743420094
0.4253657732750382,1097.5255116204528
0.44206379720285277,1033.724401893983
0.45941731346364734,980.3822411794101
0.47745205385661277,915.0180895009975
0.4961947603002895,838.5133601391616
0.5156732244854959,769.779559037893
0.5359163290848509,718.429436254329
0.556954090580013,674.0795096867537
0.5788177037701272,624.5070988378513
0.6015395880274836,573.6207628303912
0.6251534353689703,531.0844601260445
0.6496942604146115,494.94047394256853
0.6751984523072497,458.03486381729476
0.7017038286703824,421.84166184667237
0.7292496916841444,390.54573686552686
0.7578768863625915,361.8685339778237
0.7876278611187046,333.6980018740577
0.8185467307069019,308.03921165485406
0.850679341636415,284.76526500083287
0.8840733401525058,262.6033064014883
0.9187782428863317,242.07371386568508
0.9548455102782278,223.15128167778636
0.9923286228832539,205.6926929259423
1.0312831606721837,189.5680837251517
1.0717668854455022,174.66166872808952
1.1138398264826193,160.870040438568
1.1575643695533022,148.10140198119205
1.2030053494233226,136.28300735498053
1.2502301459914542,125.3540460191766
1.299308784200415,115.25645773703445
1.3503140378698726,105.93478746313271
1.4033215376054824,97.33622672037464
1.4584098829439835,89.41035253477094
1.5156607589006013,82.1074119306976
1.575159057091621,75.38009345070702
1.6369930016117014,69.18456153111742
1.7012542798525885,63.4802148124403
1.7680381784572046,58.229453820564295
1.8374437246107238,53.397541799700825
1.9095738328780953,48.952647263161204
1.9845354578058014,44.86529854746446
2.0624397525140905,41.10810848039982
2.143402233514853,37.655643129391784
2.227542951999554,34.484297205866646
2.314986671851158,31.572149503953618
2.405863054644063,28.898813535623344
2.5003068519063225,26.445415202620367
2.598458104929248,24.194503054464473
2.7004623524206774,22.12994761232394
2.806470846309834,20.236847240782307
2.916640776023701,18.501443420133526
3.031135501567576,16.911039826979206
3.150124795755327,15.453918663051669
3.2737850959485697,14.119268879273974
3.4022997656780634,12.89711996905854
3.5358593665351745,11.778280098935909
3.6746619407366854,10.754275101986677
3.8189133047818515,9.8172956739719
3.968827354637162,8.96015237194561
4.1246263829013445,8.176228931820965
4.286541408420921,7.459438611093117
4.4548125188449825,6.804183632267793
4.629689226627261,6.205317205337535
4.811430839003257,5.658108907547772
5.000306842491082,5.158212719490294
5.196597302486189,4.701637031243418
5.400593278542364,4.284716859491434
5.612597255954967,3.9040879912360515
5.8329235942862,3.556662258933752
6.06189899349756,3.239606533052945
6.29986297838068,2.950323006143157
6.547168402004727,2.686430288875106
6.804181968927091,2.4457459577556535
7.071284778942991,2.226270432448195
7.348872892180382,2.026172054166917
7.637357916378006,1.8437735021163126
7.937167617217536,1.6775392080588054
8.248746552614573,1.5260637228234675
8.572556731909314,1.388061003306238
8.909078300934132,1.2623543354617752
9.258810253973934,1.1478669298388244
9.622271173675122,1.0436142914681372
9.999999999999984,0.9486966297329221
