k [1/Mpc],P(k) [Mpc^3]
0.0001,55.838744245558125
0.00010392556829367125,58.19778219474205
0.00010800523745162529,60.6564238467431
0.00011224505680853065,63.21886225585074
0.00011665131316981963,65.8894656820396
0.00012123054013376525,68.67279065029952
0.00012598952777950273,71.57358880360603
0.00013093533273536104,74.59680921087941
0.00013607528864243335,77.74759997925071
0.00014141701702890234,81.03132259255118
0.00014696843861124463,84.45356627250581
0.00015273778503907136,88.0201582943295
0.00015873361110102093,91.7371684898329
0.00016496480740980205,95.61091062667374
0.0001714406135851971,99.6479577723288
0.00017817063195457305,103.85516073875849
0.00018516484179121546,108.23966353891869
0.000192433614111598,112.8089074338276
0.00019998772705352857,117.57062694566933
0.0002078383818579757,122.53286689291556
0.00021599721947827182,127.70400648165125
0.0002244763378413224,133.09277851696163
0.0002332883097864157,138.70827754098283
0.00024244620170823283,144.55996388683667
0.0002519635929317015,150.6576779875651
0.0002618545958474233,157.01166145257147
0.0002721338768375308,163.63256620042978
0.0002828166780230032,170.53147581792044
0.0002939188398646886,177.71992030315232
0.0003054568246515432,185.209890905429
0.00031744774091091926,193.01386154808247
0.00032990936877709396,201.1447923275218
0.00034286018635565856,209.6161552080958
0.00035631939712285854,218.44195596362547
0.000370306958400514,227.63674684198173
0.00038484361094874304,237.21565458021436
0.0003999509097203664,247.19437843330894
0.00041565125582259895,257.58921400460497
0.00043196792973341727,268.417089457914
0.0004489251258218605,279.6955786970638
0.0004665479882234472,291.4429318926058
0.000484862648123908,303.6780651624217
0.000503896262506515,316.4205703394284
0.0005236770544204653,329.69077263949225
0.0005442343548300266,343.50973508060554
0.0005655986461065005,357.8992951707142
0.0005878016072274912,372.8820733340594
0.0006108761607505036,388.4814694254962
0.0006348565216305217,404.72172197841695
0.0006597782479539537,421.62788849406917
0.0006856782936641739,439.2258817642895
0.0007125950633568407,457.5424979331981
0.0007405684692262436,476.6053775272304
0.0007696399902471156,496.443085983278
0.0007998527336796708,517.085115190048
0.000831251498989063,538.5619001696434
0.0008638828442740447,560.9048463608658
0.000897795155303332,584.1462215683046
0.0009330387172620361,608.3192567301612
0.0009696657893145519,633.4581573037804
0.001007730682094461,659.59807909946
0.0010472898382363582,686.7751903795534
0.0010884019160690055,715.0265135088106
0.0011311278765939214,744.3899958267519
0.001175531073878369,774.9045166943423
0.0012216773489967915,806.609725850555
0.0012696351276599736,839.5462017546453
0.0013194755216767058,873.7552608518554
0.0013712724343984,909.2789447069551
0.0014251026703029975,946.1600883865774
0.0014810460488806749,984.4419996858702
0.0015391855229902056,1024.1686475362924
0.001599607301861487,1065.3844503824475
0.0016624009789266115,1108.1340925660159
0.0017276596646690358,1152.4627184968192
0.0017954801246878305,1198.4155309668436
0.0018659629231817451,1246.037890133271
0.001939212572065829,1295.375152159234
0.0020153376859417325,1346.4722481154906
0.002094451143151469,1399.3739483803813
0.002176670253153458,1454.1242935145453
0.002262116930469025,1510.7665438047766
0.002350917875457286,1569.343194946734
0.002443204762186487,1629.8952941127084
0.0025391144336803463,1692.4627227936312
0.002638789104828933,1757.083808911048
0.002742376573264949,1823.7950338755427
0.0028500304385181063,1892.6310121440163
0.0029619103297725525,1963.6234157892889
0.0030781821425650787,2036.8012412524242
0.003199018284775064,2112.1905708503828
0.0033245979322709396,2189.8139914708627
0.003455107294592217,2269.690694444177
0.0035907398910610534,2351.8352235716366
0.0037316968377327513,2436.25746059073
0.0038781871456107214,2522.9625437283385
0.0040304280305680515,2611.9497896397634
0.00418864523543527,2703.2130516408392
0.004353073364731888,2796.7394839277827
0.00452395623253805,2892.509080242997
0.004701547224022131,2990.4948974743306
0.004886109671160325,3090.6613811967245
0.005077917243205399,3192.9648996550904
0.005277254352483535,3297.3523633594114
0.005484416576121017,3403.7598862130285
0.005699711094326071,3512.1140354288905
0.005923457145875801,3622.3300267475292
0.006155986501483508,3734.3120466504834
0.006397643955748424,3847.9498308270145
0.0066487878384172625,3963.112163348245
0.0069097905457156435,4079.654572203385
0.007181039092537346,4197.433601397645
0.007462935686310132,4316.305617098373
0.007755898323389004,4436.101925531384
0.00806036140886134,4556.5806777395355
0.008376776400682916,4677.466454859101
0.008705612479099857,4798.4854648531345
0.009047357242349292,4919.374009217078
0.00940251742967013,5039.855135662462
0.009771619672696168,5159.6352768505585
0.010155211276345676,5278.405859724729
0.010553861030365234,5395.825700102541
0.010968160052731372,5511.500118294997
0.011398722666160517,5625.012195302642
0.011846187309026826,5735.914869807181
0.012311217482038896,5843.73620520274
0.012794502732078732,5947.982796156822
0.013296759674662111,6048.123731057198
0.013818733056536317,6143.611181417718
0.014361196859990781,6233.867055319789
0.014924955450518284,6318.283853459604
0.015510844769528393,6396.241977868246
0.016119733573881575,6467.076564843819
0.01675252472408214,6530.111288700951
0.017410156523040152,6584.652245364413
0.018093604107387147,6629.97468687653
0.01880388089340914,6665.367587511841
0.019542040079740527,6690.100613393025
0.02030917620904734,6703.4554653807445
0.021106426791015535,6704.740134047696
0.021934973989050584,6693.258437999673
0.02279604637318978,6668.375598433711
0.023690920741826323,6629.498058348899
0.02462092401494623,6576.093288189699
0.02558743520168586,6507.733995000265
0.02659188744512693,6424.076533105373
0.027635770147361564,6324.910208639551
0.028720631177978267,6210.1773452992575
0.029848079169243254,6079.981575115731
0.03101978590138095,5934.611509034851
0.03223748878149028,5774.594858380625
0.0335029934197723,5600.66234608084
0.03481817630688963,5413.787354481427
0.03618498759642746,5215.252028428237
0.037605453996581675,5006.4936909133
0.03908168177536263,4789.323286459577
0.04061585988376978,4565.76930625242
0.04221026320156896,4337.94368366599
0.04386725591048496,4108.314390976426
0.0455892949998106,3879.2396161531815
0.047378933909631396,3653.4113114748084
0.049238826317067365,3433.7680499221165
0.05117173007114603,3222.7258884087273
0.05318051128214196,3022.290021766279
0.05526814857144601,2833.9947111578754
0.057437737488265785,2659.7970858139984
0.0596924950997073,2502.626538558151
0.0620357647610427,2364.548934432282
0.06447102107323864,2245.64770070807
0.06700187503509585,2145.2801985371975
0.06963207939763882,2062.6493033124684
0.0723655342286965,1996.9011857358269
0.07520629269592405,1946.70468244974
0.07815856707684081,1910.1802911347688
0.08122673500479707,1884.5126268873912
0.08441534596012978,1865.9437728516
0.0877291280161335,1849.9543502162057
0.09117299484984914,1831.4745674117728
0.09475205302806537,1804.9236271984428
0.09847160957933764,1765.1965777191879
0.1023371798632519,1708.2630969347401
0.10635449574860109,1631.7662155097137
0.11052951411260206,1535.689687105173
0.1148684256737553,1422.4560081006937
0.1193776641714435,1296.8247622830672
0.1240639159058831,1165.861689400843
0.12893412965257148,1038.0412986714148
0.13399552696593373,921.8798991089313
0.1392556128874462,824.4894916786659
0.14472218707411338,750.0369877261016
0.15040335536380234,699.6265332985668
0.15630754179458153,671.6809657719751
0.16244350109588662,662.1455547587074
0.16882033167003618,664.2939130989316
0.17544748908334581,668.8858201870297
0.1823348000868439,665.6343287848023
0.189492477187382,645.801982017928
0.19693113379074215,605.0380633033429
0.20466179993919872,545.8343155932288
0.21269593866686892,477.81597988003796
0.22104546299710207,413.79921897118396
0.22972275360711503,363.9783290662084
0.23874067718606454,333.34164694736916
0.2481126055137766,321.3985099255181
0.25785243528842716,321.69864588174005
0.26797460873256895,323.2837389458458
0.27849413500806414,315.19416568591896
0.28942661247167484,291.9236192835535
0.3007882518043098,257.4557887865963
0.31259590004822796,222.71026585304332
0.324867065587837,197.954867388104
0.3376199441111335,186.6716064175406
0.35087344559027084,184.14559431446767
0.36464722232127456,181.1446065972906
0.37896169806447155,169.85611097176124
0.3938380983288488,151.0539949363261
0.4092984818452433,132.71531866298466
0.4253657732750382,121.5717826569875
0.44206379720285277,117.05410732266668
0.45941731346364734,112.86611888642594
0.47745205385661277,104.08559643763874
0.4961947603002895,92.74844698522864
0.5156732244854959,84.22891136615144
0.5359163290848509,79.66036956894189
0.556954090580013,75.35736828321916
0.5788177037701272,68.81581882877357
0.6015395880274836,62.21331980332551
0.6251534353689703,57.80484561304046
0.6496942604146115,54.175229474358
0.6751984523072497,49.638526959584865
0.7017038286703824,45.302372928044164
0.7292496916841444,42.05988879736703
0.7578768863625915,38.89162416221926
0.7876278611187046,35.57009159277401
0.8185467307069019,32.79850484215945
0.850679341636415,30.318667684054578
0.8840733401525058,27.944460309504116
0.9187782428863317,25.695943652429072
0.9548455102782278,23.590294570531004
0.9923286228832539,21.63808494645455
1.0312831606721837,19.844385744366033
1.0717668854455022,18.206976594109282
1.1138398264826193,16.71096104088148
1.1575643695533022,15.340738879649995
1.2030053494233226,14.082839369193348
1.2502301459914542,12.925611830343978
1.299308784200415,11.85899986077716
1.3503140378698726,10.875397949715456
1.4033215376054824,9.969235517271757
1.4584098829439835,9.135262755818744
1.5156607589006013,8.368461129832275
1.575159057091621,7.6640515873541055
1.6369930016117014,7.017458403085854
1.7012542798525885,6.424113007563298
1.7680381784572046,5.879692590260809
1.8374437246107238,5.380224464263353
1.9095738328780953,4.922057683677112
1.9845354578058014,4.501836842761792
2.0624397525140905,4.1164974471647655
2.143402233514853,3.7632535975127057
2.227542951999554,3.4395343186996796
2.314986671851158,3.1429634174230334
2.405863054644063,2.8713458990480696
2.5003068519063225,2.622654668580618
2.598458104929248,2.395013070147081
2.7004623524206774,2.1866881417928417
2.806470846309834,1.9960847800111094
2.916640776023701,1.8217353066959538
3.031135501567576,1.662289699766128
3.150124795755327,1.5165067490643522
3.2737850959485697,1.3832460360859153
3.4022997656780634,1.2614593993354015
3.5358593665351745,1.150183619565128
3.6746619407366854,1.0485338136510325
3.8189133047818515,0.9556973086492891
3.968827354637162,0.8709278187518851
4.1246263829013445,0.7935402595217138
4.286541408420921,0.7229061023095209
4.4548125188449825,0.658448875543704
4.629689226627261,0.5996399986145944
4.811430839003257,0.5459949172265591
5.000306842491082,0.49706948130635836
5.196597302486189,0.452456765234565
5.400593278542364,0.4117840804854242
5.612597255954967,0.3747101798859084
5.8329235942862,0.3409226812860262
6.06189899349756,0.31013565261590215
6.29986297838068,0.2820874161127914
6.547168402004727,0.2565386239029712
6.804181968927091,0.23327040878779404
7.071284778942991,0.21208267528149494
7.348872892180382,0.1927925303859212
7.637357916378006,0.17523285230981
7.937167617217536,0.15925095392967173
8.248746552614573,0.14470735655397446
8.572556731909314,0.13147467400098295
8.909078300934132,0.11943658838886109
9.258810253973934,0.10848689190935928
9.622271173675122,0.09852859967608052
9.999999999999984,0.08947321731857234
