k [1/Mpc],P(k) [Mpc^3]
0.0001,226.83181693029667
0.00010392556829367125,234.3740303311721
0.00010800523745162529,242.1666500539059
0.00011224505680853065,250.21793810638934
0.00011665131316981963,258.5364246314648
0.00012123054013376525,267.13092272263714
0.00012598952777950273,276.0105398224411
0.00013093533273536104,285.1846785867986
0.00013607528864243335,294.6630261616315
0.00014141701702890234,304.45557331115145
0.00014696843861124463,314.572637099286
0.00015273778503907136,325.0248762146624
0.00015873361110102093,335.82329376344
0.00016496480740980205,346.97922896259007
0.0001714406135851971,358.50437100344357
0.00017817063195457305,370.41077810034017
0.00018516484179121546,382.7108773929969
0.000192433614111598,395.4174866706781
0.00019998772705352857,408.5438251391901
0.0002078383818579757,422.10352446252676
0.00021599721947827182,436.1106376893414
0.0002244763378413224,450.57961161872254
0.0002332883097864157,465.52532328583135
0.00024244620170823283,480.96310979134427
0.0002519635929317015,496.90878272557035
0.0002618545958474233,513.3786326635015
0.0002721338768375308,530.3893722252164
0.0002828166780230032,547.9581699059006
0.0002939188398646886,566.1027023800702
0.0003054568246515432,584.8411655056765
0.00031744774091091926,604.1922876031937
0.00032990936877709396,624.1752773726217
0.00034286018635565856,644.8098312618584
0.00035631939712285854,666.1161851909911
0.000370306958400514,688.1150583483213
0.00038484361094874304,710.8277142222984
0.0003999509097203664,734.2759622633953
0.00041565125582259895,758.4821475240248
0.00043196792973341727,783.4691888944931
0.0004489251258218605,809.2604800433769
0.0004665479882234472,835.8799461263807
0.000484862648123908,863.3520420312036
0.000503896262506515,891.7016559401472
0.0005236770544204653,920.9542301916483
0.0005442343548300266,951.1357060604429
0.0005655986461065005,982.2725344293514
0.0005878016072274912,1014.3916894891586
0.0006108761607505036,1047.520514802419
0.0006348565216305217,1081.6868448624173
0.0006597782479539537,1116.9188858638931
0.0006856782936641739,1153.2451464266253
0.0007125950633568407,1190.6945836616892
0.0007405684692262436,1229.2964869387226
0.0007696399902471156,1269.080528608863
0.0007998527336796708,1310.0765971120616
0.000831251498989063,1352.3145460484495
0.0008638828442740447,1395.8244734006498
0.000897795155303332,1440.6365537772263
0.0009330387172620361,1486.781052301863
0.0009696657893145519,1534.2882399219732
0.001007730682094461,1583.1879432951284
0.0010472898382363582,1633.5098713351763
0.0010884019160690055,1685.2832753254875
0.0011311278765939214,1738.5368217014927
0.001175531073878369,1793.2987669093663
0.0012216773489967915,1849.5962880255352
0.0012696351276599736,1907.455803647935
0.0013194755216767058,1966.9026811065064
0.0013712724343984,2027.9607955062525
0.0014251026703029975,2090.652926913099
0.0014810460488806749,2154.9998280330137
0.0015391855229902056,2221.0204303399955
0.001599607301861487,2288.732005523755
0.0016624009789266115,2358.1496694405278
0.0017276596646690358,2429.2865960089225
0.0017954801246878305,2502.1529698731715
0.0018659629231817451,2576.7558344949134
0.001939212572065829,2653.0994330023204
0.0020153376859417325,2731.1839933912293
0.002094451143151469,2811.0063600047315
0.002176670253153458,2892.5596622046896
0.002262116930469025,2975.8328757673808
0.002350917875457286,3060.8110246364286
0.002443204762186487,3147.473769098609
0.0025391144336803463,3235.7958200501994
0.002638789104828933,3325.746935091162
0.002742376573264949,3417.29118380781
0.0028500304385181063,3510.3873494341105
0.0029619103297725525,3604.987691014314
0.0030781821425650787,3701.0379406537586
0.003199018284775064,3798.4776912583206
0.0033245979322709396,3897.2395972331747
0.003455107294592217,3997.2497337844125
0.0035907398910610534,4098.426400121984
0.0037316968377327513,4200.679641662651
0.0038781871456107214,4303.912182855252
0.0040304280305680515,4408.0184175602435
0.00418864523543527,4512.884910318233
0.004353073364731888,4618.390044242001
0.00452395623253805,4724.403334936404
0.004701547224022131,4830.786275614816
0.004886109671160325,4937.390744126341
0.005077917243205399,5044.059622672272
0.005277254352483535,5150.628544656871
0.005484416576121017,5256.92727607682
0.005699711094326071,5362.7781717138305
0.005923457145875801,5467.987106459064
0.006155986501483508,5572.343260488331
0.006397643955748424,5675.635494697811
0.0066487878384172625,5777.685594939547
0.0069097905457156435,5878.323188066094
0.007181039092537346,5977.321448964574
0.007462935686310132,6074.365279691449
0.007755898323389004,6169.129968016544
0.00806036140886134,6261.346504549698
0.008376776400682916,6350.774789563708
0.008705612479099857,6437.177207447752
0.009047357242349292,6520.324919508149
0.00940251742967013,6599.989268798123
0.009771619672696168,6675.910221914249
0.010155211276345676,6747.80207826544
0.010553861030365234,6815.379094069501
0.010968160052731372,6878.356100478933
0.011398722666160517,6936.451418064433
0.011846187309026826,6989.392807926317
0.012311217482038896,7036.920236613392
0.012794502732078732,7078.780966347194
0.013296759674662111,7114.720562479087
0.013818733056536317,7144.491138931174
0.014361196859990781,7167.854392231729
0.014924955450518284,7184.57967849432
0.015510844769528393,7194.451819268258
0.016119733573881575,7197.270950324493
0.01675252472408214,7192.85529506752
0.017410156523040152,7181.0428610219205
0.018093604107387147,7161.688464507633
0.01880388089340914,7134.670877668724
0.019542040079740527,7099.896112229337
0.02030917620904734,7057.29891446872
0.021106426791015535,7006.844842496273
0.021934973989050584,6948.536000970592
0.02279604637318978,6882.408194422757
0.023690920741826323,6808.536502471012
0.02462092401494623,6727.039955965762
0.02558743520168586,6638.073235930351
0.02659188744512693,6541.8467664761965
0.027635770147361564,6438.613976214257
0.028720631177978267,6328.671491542813
0.029848079169243254,6212.3817407353345
0.03101978590138095,6090.136514086234
0.03223748878149028,5962.383863746581
0.0335029934197723,5829.617227466784
0.03481817630688963,5692.350666128636
0.03618498759642746,5551.158954987308
0.037605453996581675,5406.626171810078
0.03908168177536263,5259.3438589010575
0.04061585988376978,5109.912880881362
0.04221026320156896,4958.92012081173
0.04386725591048496,4806.981212822334
0.0455892949998106,4654.700562725501
0.047378933909631396,4502.566766086943
0.049238826317067365,4350.874500887246
0.05117173007114603,4199.911443109628
0.05318051128214196,4050.285417269754
0.05526814857144601,3902.7811525004995
0.057437737488265785,3757.8359995535993
0.0596924950997073,3614.9176449031593
0.0620357647610427,3473.3881982766165
0.06447102107323864,3332.9338016933525
0.06700187503509585,3193.5511987465907
0.06963207939763882,3055.392868670083
0.0723655342286965,2919.254162283207
0.07520629269592405,2786.0539734374106
0.07815856707684081,2656.1939300313957
0.08122673500479707,2529.349887310048
0.08441534596012978,2405.2397892129216
0.0877291280161335,2284.089689216583
0.09117299484984914,2166.358415852213
0.09475205302806537,2052.6257241479725
0.09847160957933764,1943.7655976104786
0.1023371798632519,1840.3034287906976
0.10635449574860109,1741.7162754657832
0.11052951411260206,1647.358733858979
0.1148684256737553,1557.0286782268959
0.1193776641714435,1470.6493835646681
0.1240639159058831,1388.0840763772533
0.12893412965257148,1309.002057812898
0.13399552696593373,1232.6850654909063
0.1392556128874462,1158.6995311459877
0.14472218707411338,1087.0262416695973
0.15040335536380234,1018.2272131662487
0.15630754179458153,953.0659945873333
0.16244350109588662,892.093740283364
0.16882033167003618,834.969468888244
0.17544748908334581,781.0116290648652
0.1823348000868439,729.9894232366427
0.189492477187382,682.0793923240652
0.19693113379074215,636.6695901047141
0.20466179993919872,593.4237213934913
0.21269593866686892,552.5073046229656
0.22104546299710207,514.126818530327
0.22972275360711503,478.0524390693686
0.23874067718606454,444.31982088579286
0.2481126055137766,412.8125777397414
0.25785243528842716,383.2340198500166
0.26797460873256895,355.4927438654991
0.27849413500806414,329.48244261170066
0.28942661247167484,305.22971793237565
0.3007882518043098,282.58362981070565
0.31259590004822796,261.4669627064532
0.324867065587837,241.78559383076842
0.3376199441111335,223.44007712583533
0.35087344559027084,206.36617092719297
0.36464722232127456,190.4881634392216
0.37896169806447155,175.72925817419875
0.3938380983288488,162.02315561267238
0.4092984818452433,149.30092370973975
0.4253657732750382,137.49994717595732
0.44206379720285277,126.56640567554152
0.45941731346364734,116.43610043706211
0.47745205385661277,107.06109077678057
0.4961947603002895,98.39308573334318
0.5156732244854959,90.38298596234202
0.5359163290848509,82.98619025883701
0.556954090580013,76.16111149910627
0.5788177037701272,69.86783431366172
0.6015395880274836,64.06780536965242
0.6251534353689703,58.724649193373374
0.6496942604146115,53.80452561121426
0.6751984523072497,49.275019680606555
0.7017038286703824,45.10683926560513
0.7292496916841444,41.27332621431283
0.7578768863625915,37.749397510301165
0.7876278611187046,34.511626391403475
0.8185467307069019,31.53998107929207
0.850679341636415,28.81380075563498
0.8840733401525058,26.314328560159396
0.9187782428863317,24.02385116166955
0.9548455102782278,21.92494235721317
0.9923286228832539,20.001964197316802
1.0312831606721837,18.24079185773096
1.0717668854455022,16.628600325044165
1.1138398264826193,15.1537360899985
1.1575643695533022,13.805595653874573
1.2030053494233226,12.573750552089088
1.2502301459914542,11.448301191939777
1.299308784200415,10.420237901670879
1.3503140378698726,9.481511360783315
1.4033215376054824,8.624719506806766
1.4584098829439835,7.843032081906464
1.5156607589006013,7.130151070483307
1.575159057091621,6.480272228357789
1.6369930016117014,5.888034130792575
1.7012542798525885,5.34849567757028
1.7680381784572046,4.857120995489356
1.8374437246107238,4.409748476999307
1.9095738328780953,4.002561556030803
1.9845354578058014,3.6320614981763164
2.0624397525140905,3.2950419416605388
2.143402233514853,2.9885661143359097
2.227542951999554,2.709945418083752
2.314986671851158,2.456719436154058
2.405863054644063,2.22663745177304
2.5003068519063225,2.017641405210847
2.598458104929248,1.8278501375619858
2.7004623524206774,1.6555447738065523
2.806470846309834,1.4991553029309146
2.916640776023701,1.3572482138139093
3.031135501567576,1.228515128519565
3.150124795755327,1.1117626035189354
3.2737850959485697,1.005902244975142
3.4022997656780634,0.9099415570857686
3.5358593665351745,0.8229758131277735
3.6746619407366854,0.7441805866165717
3.8189133047818515,0.6728046114391206
3.968827354637162,0.6081627309959771
4.1246263829013445,0.5496313546477919
4.286541408420921,0.4966434198780223
4.4548125188449825,0.4486833923358532
4.629689226627261,0.4052827000486874
4.811430839003257,0.3660158468404031
5.000306842491082,0.3304966333131948
5.196597302486189,0.29837411952658305
5.400593278542364,0.2693294551182909
5.612597255954967,0.24307303159210594
5.8329235942862,0.21934185436258025
6.06189899349756,0.1978969344291256
6.29986297838068,0.17852131490506762
6.547168402004727,0.1610182736866623
6.804181968927091,0.1452094761825236
7.071284778942991,0.13093328962577952
7.348872892180382,0.11804327670047178
7.637357916378006,0.10640686168574841
7.937167617217536,0.09590394307071747
8.248746552614573,0.08642571732002122
8.572556731909314,0.07787363945561912
8.909078300934132,0.07015847564309072
9.258810253973934,0.0631993909866244
9.622271173675122,0.056923167997810366
9.999999999999984,0.05126358218639926
