k [1/Mpc],P(k) [Mpc^3]
0.0001,13069.287847726377
0.00010392556829367125,13501.464505583786
0.00010800523745162529,13947.716755964435
0.00011224505680853065,14408.479021453322
0.00011665131316981963,14884.19683396145
0.00012123054013376525,15375.325543466966
0.00012598952777950273,15882.332023263636
0.00013093533273536104,16405.69203587214
0.00013607528864243335,16945.890532355905
0.00014141701702890234,17503.423663582238
0.00014696843861124463,18078.797169875215
0.00015273778503907136,18672.527829038885
0.00015873361110102093,19285.140316776116
0.00016496480740980205,19917.165718272103
0.0001714406135851971,20569.14466302589
0.00017817063195457305,21241.622363090246
0.00018516484179121546,21935.15126732365
0.000192433614111598,22650.29005603986
0.00019998772705352857,23387.6001788959
0.0002078383818579757,24147.64932831232
0.00021599721947827182,24931.003382064493
0.0002244763378413224,25738.228116858336
0.0002332883097864157,26569.89007475347
0.00024244620170823283,27426.54824125127
0.0002519635929317015,28308.760498367876
0.0002618545958474233,29217.0772648884
0.0002721338768375308,30152.039855221974
0.0002828166780230032,31114.18255095057
0.0002939188398646886,32104.019206013545
0.0003054568246515432,33122.05049920233
0.00031744774091091926,34168.757172025355
0.00032990936877709396,35244.592807291854
0.00034286018635565856,36349.99210842743
0.00035631939712285854,37485.36144122076
0.000370306958400514,38651.08060316877
0.00038484361094874304,39847.49552336248
0.0003999509097203664,41074.90334493991
0.00041565125582259895,42333.56483906452
0.00043196792973341727,43623.69661120753
0.0004489251258218605,44945.46954119289
0.0004665479882234472,46299.0049698388
0.000484862648123908,47684.35548614019
0.000503896262506515,49101.515823026966
0.0005236770544204653,50550.41350164109
0.0005442343548300266,52030.90304852369
0.0005655986461065005,53542.76651670405
0.0005878016072274912,55085.681583952304
0.0006108761607505036,56659.23595475251
0.0006348565216305217,58262.91859879949
0.0006597782479539537,59896.103226477484
0.0006856782936641739,61558.05978341193
0.0007125950633568407,63247.89985762293
0.0007405684692262436,64964.5926950461
0.0007696399902471156,66706.97191037086
0.0007998527336796708,68473.70089116236
0.000831251498989063,70263.30110601884
0.0008638828442740447,72074.10791543502
0.000897795155303332,73904.27026915945
0.0009330387172620361,75751.77480548566
0.0009696657893145519,77614.41240574002
0.001007730682094461,79489.80231940951
0.0010472898382363582,81375.38430953345
0.0010884019160690055,83268.41195375532
0.0011311278765939214,85165.96134470172
0.001175531073878369,87064.8801007998
0.0012216773489967915,88961.82014207615
0.0012696351276599736,90853.27931619369
0.0013194755216767058,92735.62151538169
0.0013712724343984,94605.04814698418
0.0014251026703029975,96457.50970846211
0.0014810460488806749,98288.74204227971
0.0015391855229902056,100094.47592743456
0.001599607301861487,101870.74757076438
0.0016624009789266115,103613.57775424962
0.0017276596646690358,105318.69487735018
0.0017954801246878305,106981.54165560902
0.0018659629231817451,108597.44820311764
0.001939212572065829,110161.53072108023
0.0020153376859417325,111668.8118632733
0.002094451143151469,113114.43916263196
0.002176670253153458,114493.78400467364
0.002262116930469025,115802.27333093314
0.002350917875457286,117035.47094144188
0.002443204762186487,118189.0552417349
0.0025391144336803463,119258.82860874788
0.002638789104828933,120240.77404384704
0.002742376573264949,121131.03093960203
0.0028500304385181063,121926.00611174734
0.0029619103297725525,122622.3673208662
0.0030781821425650787,123216.95708112213
0.003199018284775064,123706.72868258557
0.0033245979322709396,124088.85344908996
0.003455107294592217,124360.81548660934
0.0035907398910610534,124520.43476354993
0.0037316968377327513,124565.50105577432
0.0038781871456107214,124492.28744724703
0.0040304280305680515,124296.81384766023
0.00418864523543527,123978.38320746424
0.004353073364731888,123541.44258073022
0.00452395623253805,122990.09907024738
0.004701547224022131,122318.78625014234
0.004886109671160325,121517.08856235728
0.005077917243205399,120578.41492504206
0.005277254352483535,119504.89096715576
0.005484416576121017,118300.34375333814
0.005699711094326071,116968.51499140201
0.005923457145875801,115513.15606547332
0.006155986501483508,113937.58551307513
0.006397643955748424,112242.18556926696
0.0066487878384172625,110427.1302272946
0.0069097905457156435,108492.5619780787
0.007181039092537346,106438.49831050127
0.007462935686310132,104265.80908840019
0.007755898323389004,101976.26083478698
0.00806036140886134,99572.56552835554
0.008376776400682916,97057.69015685443
0.008705612479099857,94434.31294312698
0.009047357242349292,91705.97961148132
0.00940251742967013,88875.33519505177
0.009771619672696168,85945.24317503179
0.010155211276345676,82919.16316464257
0.010553861030365234,79799.30477906825
0.010968160052731372,76589.59243798419
0.011398722666160517,73295.53821711772
0.011846187309026826,69924.39492332842
0.012311217482038896,66484.56582182666
0.012794502732078732,62981.15629798307
0.013296759674662111,59421.34005384475
0.013818733056536317,55814.80418622188
0.014361196859990781,52173.331249346396
0.014924955450518284,48511.09346938088
0.015510844769528393,44834.63554385869
0.016119733573881575,41152.82836061555
0.01675252472408214,37488.89848538453
0.017410156523040152,33882.95767530882
0.018093604107387147,30369.966711870904
0.01880388089340914,26924.136596017594
0.019542040079740527,23508.96524948861
0.02030917620904734,20176.484744837126
0.021106426791015535,17120.721480799595
0.021934973989050584,14460.258398028593
0.02279604637318978,11956.421645444487
0.023690920741826323,9280.434241757474
0.02462092401494623,6608.080985913086
0.02558743520168586,4724.73365782375
0.02659188744512693,3849.246522974891
0.027635770147361564,3156.5472290371413
0.028720631177978267,1521.0375811218194
0.029848079169243254,274.2835108244033
0.03101978590138095,38.02525787603139
0.03223748878149028,15.714510892312415
0.0335029934197723,38.85912572242775
0.03481817630688963,210.1094839662317
0.03618498759642746,731.7668076000157
0.037605453996581675,1185.850820426126
0.03908168177536263,1357.8234349183938
0.04061585988376978,1565.0578477258975
0.04221026320156896,1819.3000663985392
0.04386725591048496,1955.8270500398114
0.0455892949998106,1870.8425407467084
0.047378933909631396,1626.9475380374383
0.049238826317067365,1303.4777931972174
0.05117173007114603,920.0654302443216
0.05318051128214196,534.6663921029041
0.05526814857144601,224.38532357409994
0.057437737488265785,61.02174694655088
0.0596924950997073,24.40704358661987
0.0620357647610427,54.87836490354002
0.06447102107323864,306.75578671662464
0.06700187503509585,692.3086277532409
0.06963207939763882,813.1360185646392
0.0723655342286965,947.5283931704801
0.07520629269592405,983.0696521240578
0.07815856707684081,789.0446062801732
0.08122673500479707,523.5200626703182
0.08441534596012978,365.65184408605745
0.0877291280161335,50.69444935403317
0.09117299484984914,6.295978402984371
0.09475205302806537,30.11180433041813
0.09847160957933764,140.29124173864633
0.1023371798632519,204.13949314161545
0.10635449574860109,221.16729374440416
0.11052951411260206,163.33316495296435
0.1148684256737553,49.077550618588006
0.1193776641714435,9.565277500332398
0.1240639159058831,12.855185688140736
0.12893412965257148,103.05077650684571
0.13399552696593373,150.71817012447912
0.1392556128874462,143.83498561431526
0.14472218707411338,92.33199899532067
0.15040335536380234,11.765056342266309
0.15630754179458153,1.1121795093215308
0.16244350109588662,21.698363117096513
0.16882033167003618,32.21217839089345
0.17544748908334581,19.74350012843372
0.1823348000868439,1.950125596441722
0.189492477187382,4.024407444768049
0.19693113379074215,24.178268251631064
0.20466179993919872,25.602569232685667
0.21269593866686892,9.386075816865416
0.22104546299710207,0.3136094913931532
0.22972275360711503,2.9340999529110388
0.23874067718606454,2.6617423113634313
0.2481126055137766,0.09635343244653698
0.25785243528842716,3.1882398854835285
0.26797460873256895,5.177113783465331
0.27849413500806414,2.197013543406184
0.28942661247167484,0.03855174078835038
0.3007882518043098,0.22696317726920356
0.31259590004822796,0.015339500375862482
0.324867065587837,0.690023475690068
0.3376199441111335,1.0703984071751407
0.35087344559027084,0.309585269659849
0.36464722232127456,0.011206344407556707
0.37896169806447155,0.04155294880561852
0.3938380983288488,0.2752154313660885
0.4092984818452433,0.28787720235903347
0.4253657732750382,0.08624288794821457
0.44206379720285277,0.053089418841779965
0.45941731346364734,0.12023788815645596
0.47745205385661277,0.12565467972348657
0.4961947603002895,0.06710608736187974
0.5156732244854959,0.06091913149199025
0.5359163290848509,0.0769278884812144
0.556954090580013,0.06037368911291728
0.5788177037701272,0.04815439919649516
0.6015395880274836,0.05030985416635325
0.6251534353689703,0.043623102110877714
0.6496942604146115,0.037753537229283055
0.6751984523072497,0.033812321185986545
0.7017038286703824,0.030495535816603716
0.7292496916841444,0.027632000566659008
0.7578768863625915,0.025094629612280893
0.7876278611187046,0.0227886854265603
0.8185467307069019,0.020644771355634826
0.850679341636415,0.018633789032993626
0.8840733401525058,0.016768552346551006
0.9187782428863317,0.015058716430577372
0.9548455102782278,0.01350743898978731
0.9923286228832539,0.01211282483160617
1.0312831606721837,0.010868731598725638
1.0717668854455022,0.00976048579975731
1.1138398264826193,0.00877056757019519
1.1575643695533022,0.007884028617561725
1.2030053494233226,0.007088158935260156
1.2502301459914542,0.006372120753357539
1.299308784200415,0.005726901528755183
1.3503140378698726,0.005145625263037029
1.4033215376054824,0.0046222812542998344
1.4584098829439835,0.004151369656231395
1.5156607589006013,0.0037278662691921814
1.575159057091621,0.003347187606360644
1.6369930016117014,0.003005119145635716
1.7012542798525885,0.0026977889852294835
1.7680381784572046,0.0024217035881987895
1.8374437246107238,0.002173716013945043
1.9095738328780953,0.0019509921463291714
1.9845354578058014,0.001750979099095752
2.0624397525140905,0.0015713702769697378
2.143402233514853,0.0014100883183554146
2.227542951999554,0.0012652675449534372
2.314986671851158,0.001135232349843391
2.405863054644063,0.0010184777593281813
2.5003068519063225,0.0009136534404611818
2.598458104929248,0.0008195499756098652
2.7004623524206774,0.0007350800607444015
2.806470846309834,0.0006592654951287576
2.916640776023701,0.0005912263776000181
3.031135501567576,0.0005301713407959555
3.150124795755327,0.00047538839574529817
3.2737850959485697,0.00042623714470221743
3.4022997656780634,0.0003821420993866502
3.5358593665351745,0.0003425861766775702
3.6746619407366854,0.0003071048174336804
3.8189133047818515,0.0002752805686507305
3.968827354637162,0.0002467377220221514
4.1246263829013445,0.0002211388095030926
4.286541408420921,0.00019818106580143024
4.4548125188449825,0.00017759285206550706
4.629689226627261,0.00015913045049538994
4.811430839003257,0.00014257559787278213
5.000306842491082,0.00012773318787596304
5.196597302486189,0.00011442789320734361
5.400593278542364,0.00010250206496220485
5.612597255954967,9.181398754917084e-05
5.8329235942862,8.223627511698918e-05
6.06189899349756,7.3654050931942e-05
6.29986297838068,6.596392651762111e-05
6.547168402004727,5.9073263768832305e-05
6.804181968927091,5.2899064209596085e-05
7.071284778942991,4.736696081261235e-05
7.348872892180382,4.241036157305903e-05
7.637357916378006,3.796979097608658e-05
7.937167617217536,3.3991932813679856e-05
8.248746552614573,3.0428923001229552e-05
8.572556731909314,2.7237799408402098e-05
8.909078300934132,2.4380005661066854e-05
9.258810253973934,2.1820889980239872e-05
9.622271173675122,1.9529291988213626e-05
9.999999999999984,1.747729496207983e-05
