k [1/Mpc],P(k) [Mpc^3]
0.0001,529.157884848366
0.00010392556829367125,548.3392168434872
0.00010800523745162529,568.2153899524335
0.00011224505680853065,588.811558124927
0.00011665131316981963,610.1537591798294
0.00012123054013376525,632.2689267118965
0.00012598952777950273,655.1849596332677
0.00013093533273536104,678.930783984605
0.00013607528864243335,703.5363806128628
0.00014141701702890234,729.0327938383194
0.00014696843861124463,755.4521405216997
0.00015273778503907136,782.8276801467675
0.00015873361110102093,811.1938683561056
0.00016496480740980205,840.586399180649
0.0001714406135851971,871.0422429603021
0.00017817063195457305,902.5996894237725
0.00018516484179121546,935.2983948880903
0.000192433614111598,969.179392269763
0.00019998772705352857,1004.2851196943714
0.0002078383818579757,1040.6595180185318
0.00021599721947827182,1078.3481071267017
0.0002244763378413224,1117.3980306219892
0.0002332883097864157,1157.858048981942
0.00024244620170823283,1199.7785232695237
0.0002519635929317015,1243.2115671269676
0.0002618545958474233,1288.2111939698252
0.0002721338768375308,1334.833370078906
0.0002828166780230032,1383.1359775878145
0.0002939188398646886,1433.178730099777
0.0003054568246515432,1485.0233631052429
0.00031744774091091926,1538.7337014933178
0.00032990936877709396,1594.3757167671242
0.00034286018635565856,1652.0176365850814
0.00035631939712285854,1711.730013898822
0.000370306958400514,1773.5858050669542
0.00038484361094874304,1837.6603191989664
0.0003999509097203664,1904.0311646958974
0.00041565125582259895,1972.7785110092545
0.00043196792973341727,2043.9851546664665
0.0004489251258218605,2117.736610090536
0.0004665479882234472,2194.1210989520223
0.000484862648123908,2273.229383570202
0.000503896262506515,2355.1550858028913
0.0005236770544204653,2439.9948098461227
0.0005442343548300266,2527.8482243004073
0.0005655986461065005,2618.818057420244
0.0005878016072274912,2713.0097351264844
0.0006108761607505036,2810.5317577935193
0.0006348565216305217,2911.495838042611
0.0006597782479539537,3016.0169158319154
0.0006856782936641739,3124.213286535551
0.0007125950633568407,3236.206153918982
0.0007405684692262436,3352.11990858754
0.0007696399902471156,3472.082419112655
0.0007998527336796708,3596.225023350524
0.000831251498989063,3724.6826374405678
0.0008638828442740447,3857.5931144737942
0.000897795155303332,3995.0973263209635
0.0009330387172620361,4137.339617251368
0.0009696657893145519,4284.467429307384
0.001007730682094461,4436.631654490656
0.0010472898382363582,4593.986189802444
0.0010884019160690055,4756.687682392331
0.0011311278765939214,4924.896040882816
0.001175531073878369,5098.773563688741
0.0012216773489967915,5278.485369851166
0.0012696351276599736,5464.199009700828
0.0013194755216767058,5656.083484765779
0.0013712724343984,5854.310259735521
0.0014251026703029975,6059.051994600865
0.0014810460488806749,6270.482682141028
0.0015391855229902056,6488.777598799877
0.001599607301861487,6714.111115945528
0.0016624009789266115,6946.658262886717
0.0017276596646690358,7186.593751616863
0.0017954801246878305,7434.091420129481
0.0018659629231817451,7689.324604595094
0.001939212572065829,7952.463128863561
0.0020153376859417325,8223.674600146907
0.002094451143151469,8503.12329748815
0.002176670253153458,8790.968179566598
0.002262116930469025,9087.364494415884
0.002350917875457286,9392.460389025866
0.002443204762186487,9706.39733377391
0.0025391144336803463,10029.309750811806
0.002638789104828933,10361.321364644113
0.002742376573264949,10702.547397985938
0.0028500304385181063,11053.091531854961
0.0029619103297725525,11413.044935220978
0.0030781821425650787,11782.486742631261
0.003199018284775064,12161.478873684147
0.0033245979322709396,12550.068174401533
0.003455107294592217,12948.284450400488
0.0035907398910610534,13356.138003036653
0.0037316968377327513,13773.620724145785
0.0038781871456107214,14200.699820292803
0.0040304280305680515,14637.319061699356
0.00418864523543527,15083.39764609585
0.004353073364731888,15538.825157831096
0.00452395623253805,16003.464492685844
0.004701547224022131,16477.144529539055
0.004886109671160325,16959.659660178364
0.005077917243205399,17450.770915642875
0.005277254352483535,17950.196930635764
0.005484416576121017,18457.61917800706
0.005699711094326071,18972.675696684437
0.005923457145875801,19494.95738334236
0.006155986501483508,20024.013223117105
0.006397643955748424,20559.34121848702
0.0066487878384172625,21100.392192281473
0.0069097905457156435,21646.551922103357
0.007181039092537346,22197.11828508451
0.007462935686310132,22751.33810236128
0.007755898323389004,23308.467524585067
0.00806036140886134,23867.756837219313
0.008376776400682916,24428.334982459248
0.008705612479099857,24989.025263869524
0.009047357242349292,25548.532648308083
0.00940251742967013,26105.591987796142
0.009771619672696168,26658.982404376806
0.010155211276345676,27207.433287023207
0.010553861030365234,27749.61294645667
0.010968160052731372,28284.136909145254
0.011398722666160517,28809.491286959783
0.011846187309026826,29323.9770289882
0.012311217482038896,29825.823193613054
0.012794502732078732,30313.13903507599
0.013296759674662111,30783.949539069905
0.013818733056536317,31236.212419445266
0.014361196859990781,31667.779581617226
0.014924955450518284,32076.462710572963
0.015510844769528393,32459.987340176187
0.016119733573881575,32816.012662720146
0.01675252472408214,33142.167341640896
0.017410156523040152,33435.93800344356
0.018093604107387147,33694.80095459014
0.01880388089340914,33916.20929355544
0.019542040079740527,34097.5848650751
0.02030917620904734,34236.42274274107
0.021106426791015535,34330.20869359044
0.021934973989050584,34376.51880346211
0.02279604637318978,34373.05635823119
0.023690920741826323,34317.62169555876
0.02462092401494623,34208.241200539655
0.02558743520168586,34043.18319926377
0.02659188744512693,33820.99974975379
0.027635770147361564,33540.604128250496
0.028720631177978267,33201.35650483883
0.029848079169243254,32803.02964334049
0.03101978590138095,32346.003667277353
0.03223748878149028,31831.293061802404
0.0335029934197723,31260.428419207718
0.03481817630688963,30635.940250820015
0.03618498759642746,29960.917044336125
0.037605453996581675,29239.243599974547
0.03908168177536263,28475.905389941378
0.04061585988376978,27676.172354170172
0.04221026320156896,26846.645212173215
0.04386725591048496,25994.481477737452
0.0455892949998106,25126.997600251572
0.047378933909631396,24252.532053575873
0.049238826317067365,23379.007127062374
0.05117173007114603,22515.30983150951
0.05318051128214196,21670.884810444975
0.05526814857144601,20853.59839208911
0.057437737488265785,20068.618025769178
0.0596924950997073,19319.844329575855
0.0620357647610427,18613.227939405406
0.06447102107323864,17957.748000061994
0.06700187503509585,17359.572646579218
0.06963207939763882,16813.855068759294
0.0723655342286965,16312.616009324349
0.07520629269592405,15848.496757922281
0.07815856707684081,15414.568007072952
0.08122673500479707,15001.515326649307
0.08441534596012978,14598.137684388208
0.0877291280161335,14193.810497982467
0.09117299484984914,13777.783854680412
0.09475205302806537,13334.072373691588
0.09847160957933764,12847.197345299443
0.1023371798632519,12307.226075520213
0.10635449574860109,11712.432613932515
0.11052951411260206,11069.804776268813
0.1148684256737553,10395.265469786493
0.1193776641714435,9709.858458129305
0.1240639159058831,9036.358138386959
0.12893412965257148,8397.02925479749
0.13399552696593373,7812.6441779897295
0.1392556128874462,7300.373300620876
0.14472218707411338,6871.297496406451
0.15040335536380234,6526.334522542992
0.15630754179458153,6253.2768122801635
0.16244350109588662,6028.795654967303
0.16882033167003618,5822.337882738784
0.17544748908334581,5602.293416990819
0.1823348000868439,5343.487056499621
0.189492477187382,5034.7374995376995
0.19693113379074215,4682.41944213148
0.20466179993919872,4307.5738297412245
0.21269593866686892,3940.4820934663444
0.22104546299710207,3614.461459629495
0.22972275360711503,3353.7550859574485
0.23874067718606454,3160.267565386158
0.2481126055137766,3014.154270958979
0.25785243528842716,2885.1115467350255
0.26797460873256895,2741.57768441374
0.27849413500806414,2564.0910149593738
0.28942661247167484,2359.147460757647
0.3007882518043098,2152.4882070182503
0.31259590004822796,1972.5655545262955
0.324867065587837,1834.6863571284912
0.3376199441111335,1730.6755513652101
0.35087344559027084,1637.2849608085153
0.36464722232127456,1531.5543913862514
0.37896169806447155,1410.2450358916556
0.3938380983288488,1289.8198615830054
0.4092984818452433,1187.8554422633536
0.4253657732750382,1108.1039031596888
0.44206379720285277,1037.5722626478137
0.45941731346364734,962.7831272586172
0.47745205385661277,884.2502359805851
0.4961947603002895,812.5926429720269
0.5156732244854959,752.9621484646256
0.5359163290848509,699.488329867302
0.556954090580013,645.5970748969211
0.5788177037701272,593.1617600122647
0.6015395880274836,546.7940604727728
0.6251534353689703,505.5320668336877
0.6496942604146115,465.81356835493756
0.6751984523072497,428.14742900042677
0.7017038286703824,394.2875344668212
0.7292496916841444,363.1586205466605
0.7578768863625915,333.7472992023542
0.7876278611187046,306.7419476521814
0.8185467307069019,282.0097170641232
0.850679341636415,258.9607681743514
0.8840733401525058,237.74703486011373
0.9187782428863317,218.23128020379062
0.9548455102782278,200.2178182476359
0.9923286228832539,183.6060964643866
1.0312831606721837,168.30059028996033
1.0717668854455022,154.2104733541191
1.1138398264826193,141.24959594710722
1.1575643695533022,129.33475580144187
1.2030053494233226,118.38548534560509
1.2502301459914542,108.32695939177603
1.299308784200415,99.08986448382959
1.3503140378698726,90.61001601718488
1.4033215376054824,82.82807305693429
1.4584098829439835,75.68951197171612
1.5156607589006013,69.1439118422042
1.575159057091621,63.144507600039084
1.6369930016117014,57.64795535695347
1.7012542798525885,52.61410821961443
1.7680381784572046,48.005742284049646
1.8374437246107238,43.788365650662364
1.9095738328780953,39.93012771702029
1.9845354578058014,36.40163787029859
2.0624397525140905,33.17578886303705
2.143402233514853,30.227593851872562
2.227542951999554,27.5340394825206
2.314986671851158,25.073930415523602
2.405863054644063,22.82775142234125
2.5003068519063225,20.7775428371305
2.598458104929248,18.906784078138617
2.7004623524206774,17.200277620845306
2.806470846309834,15.644050684620082
2.916640776023701,14.225271878705351
3.031135501567576,12.932163254294359
3.150124795755327,11.753918126372652
3.2737850959485697,10.680624532591173
3.4022997656780634,9.703193746733973
3.5358593665351745,8.813296362261601
3.6746619407366854,8.003302078452752
3.8189133047818515,7.266223568448109
3.968827354637162,6.595664548602145
4.1246263829013445,5.985770926346331
4.286541408420921,5.431187007912544
4.4548125188449825,4.927015757429693
4.629689226627261,4.468781028590208
4.811430839003257,4.052392713925383
5.000306842491082,3.6741142914077423
5.196597302486189,3.330532592268535
5.400593278542364,3.018531935195984
5.612597255954967,2.7352693149160667
5.8329235942862,2.4781512785844435
6.06189899349756,2.2448126779230053
6.29986297838068,2.0330970307017218
6.547168402004727,1.8410387166412874
6.804181968927091,1.666846705102051
7.071284778942991,1.5088894819110017
7.348872892180382,1.3656812288969586
7.637357916378006,1.2358691017443237
7.937167617217536,1.118221548809594
8.248746552614573,1.0116178846983659
8.572556731909314,0.915038590201583
8.909078300934132,0.8275564001653931
9.258810253973934,0.7483281308512684
9.622271173675122,0.67658697375945
9.999999999999984,0.6116358907899686
