k [1/Mpc],P(k) [Mpc^3]
0.0001,222.76726058267548
0.00010392556829367125,230.8399816902962
0.00010800523745162529,239.20487829595663
0.00011224505680853065,247.8724789072594
0.00011665131316981963,256.85368699215303
0.00012123054013376525,266.15979057111133
0.00012598952777950273,275.80247751063956
0.00013093533273536104,285.79385075666676
0.00013607528864243335,296.14644079482144
0.00014141701702890234,306.8732227039195
0.00014696843861124463,317.98762672906145
0.00015273778503907136,329.5035546655212
0.00015873361110102093,341.43539646229925
0.00016496480740980205,353.7980358918323
0.0001714406135851971,366.6068768900654
0.00017817063195457305,379.8778538899208
0.00018516484179121546,393.62744686609796
0.000192433614111598,407.8727093928848
0.00019998772705352857,422.63128195940357
0.0002078383818579757,437.9214156555293
0.00021599721947827182,453.76197650712504
0.0002244763378413224,470.1724504401916
0.0002332883097864157,487.17298658758057
0.00024244620170823283,504.784395971051
0.0002519635929317015,523.0281826653168
0.0002618545958474233,541.9265688146321
0.0002721338768375308,561.5024992732791
0.0002828166780230032,581.7796813219372
0.0002939188398646886,602.7825541893571
0.0003054568246515432,624.5363166925925
0.00031744774091091926,647.0669866288249
0.00032990936877709396,670.4014070525608
0.00034286018635565856,694.5672837707275
0.00035631939712285854,719.5931299742007
0.000370306958400514,745.5082639891369
0.00038484361094874304,772.3429078578229
0.0003999509097203664,800.1281674662187
0.00041565125582259895,828.8960843576833
0.00043196792973341727,858.6796074752865
0.0004489251258218605,889.512556345297
0.0004665479882234472,921.4297219419657
0.000484862648123908,954.4667619303679
0.000503896262506515,988.6602691291465
0.0005236770544204653,1024.0478197836824
0.0005442343548300266,1060.6679212017834
0.0005655986461065005,1098.5600938131481
0.0005878016072274912,1137.7647023570746
0.0006108761607505036,1178.3229828476988
0.0006348565216305217,1220.2771445663845
0.0006597782479539537,1263.6702237938885
0.0006856782936641739,1308.5462161557732
0.0007125950633568407,1354.9499963910125
0.0007405684692262436,1402.9272804662485
0.0007696399902471156,1452.5246800017555
0.0007998527336796708,1503.7893450669485
0.000831251498989063,1556.769164739601
0.0008638828442740447,1611.512730090269
0.000897795155303332,1668.0691813555866
0.0009330387172620361,1726.4883448311327
0.0009696657893145519,1786.8202769792297
0.001007730682094461,1849.1153882045628
0.0010472898382363582,1913.42436862645
0.0010884019160690055,1979.7976920159906
0.0011311278765939214,2048.286009822568
0.001175531073878369,2118.9396123299925
0.0012216773489967915,2191.808392049247
0.0012696351276599736,2266.941868289756
0.0013194755216767058,2344.3882130217694
0.0013712724343984,2424.194844243682
0.0014251026703029975,2506.4078468898665
0.0014810460488806749,2591.0716239660806
0.0015391855229902056,2678.2292718717667
0.001599607301861487,2767.9216129947904
0.0016624009789266115,2860.187515865421
0.0017276596646690358,2955.0631784469633
0.0017954801246878305,3052.581210597881
0.0018659629231817451,3152.771441427935
0.001939212572065829,3255.6597821685177
0.0020153376859417325,3361.2683503160188
0.002094451143151469,3469.6149914156567
0.002176670253153458,3580.711748194799
0.002262116930469025,3694.5659060218813
0.002350917875457286,3811.1790063561616
0.002443204762186487,3930.5466095076436
0.0025391144336803463,4052.658276869571
0.002638789104828933,4177.496119345868
0.002742376573264949,4305.035361514664
0.0028500304385181063,4435.242874897052
0.0029619103297725525,4568.076410016368
0.0030781821425650787,4703.485454111987
0.003199018284775064,4841.409837829403
0.0033245979322709396,4981.780056794758
0.003455107294592217,5124.515952131472
0.0035907398910610534,5269.525220785543
0.0037316968377327513,5416.704767298588
0.0038781871456107214,5565.9385064065655
0.0040304280305680515,5717.097871132282
0.00418864523543527,5870.041870418287
0.004353073364731888,6024.615565485959
0.00452395623253805,6180.651109485926
0.004701547224022131,6337.964232130946
0.004886109671160325,6496.354500095545
0.005077917243205399,6655.60765846487
0.005277254352483535,6815.494889694831
0.005484416576121017,6975.773002741656
0.005699711094326071,7136.169112380742
0.005923457145875801,7296.3767935574315
0.006155986501483508,7456.082142556518
0.006397643955748424,7615.013374372125
0.0066487878384172625,7772.908484318183
0.0069097905457156435,7929.410780709076
0.007181039092537346,8084.002848401794
0.007462935686310132,8236.144410652609
0.007755898323389004,8385.41530912475
0.00806036140886134,8531.461594699631
0.008376776400682916,8673.866554975026
0.008705612479099857,8812.059285978245
0.009047357242349292,8945.437637358202
0.00940251742967013,9073.475518460631
0.009771619672696168,9195.712044077307
0.010155211276345676,9311.653826589807
0.010553861030365234,9420.67571256342
0.010968160052731372,9522.118830147509
0.011398722666160517,9615.30290425929
0.011846187309026826,9699.526657148466
0.012311217482038896,9774.092360670229
0.012794502732078732,9838.293678030284
0.013296759674662111,9891.435079000285
0.013818733056536317,9932.802988419919
0.014361196859990781,9961.643009214145
0.014924955450518284,9977.22520460982
0.015510844769528393,9978.7980215931
0.016119733573881575,9965.629707385471
0.01675252472408214,9937.0182332279
0.017410156523040152,9892.24936175321
0.018093604107387147,9830.681590937496
0.01880388089340914,9751.70020458628
0.019542040079740527,9654.749935976493
0.02030917620904734,9539.38012160182
0.021106426791015535,9405.183878379636
0.021934973989050584,9251.89678858803
0.02279604637318978,9079.380905660737
0.023690920741826323,8887.634488592063
0.02462092401494623,8676.858491353301
0.02558743520168586,8447.426423131003
0.02659188744512693,8199.92987153439
0.027635770147361564,7935.214009620103
0.028720631177978267,7654.381521529148
0.029848079169243254,7358.778310046155
0.03101978590138095,7050.09544473069
0.03223748878149028,6730.260949384231
0.0335029934197723,6401.465952953559
0.03481817630688963,6066.283497983524
0.03618498759642746,5727.334628204811
0.037605453996581675,5387.622962224352
0.03908168177536263,5050.262604787434
0.04061585988376978,4718.259946164144
0.04221026320156896,4394.990136408348
0.04386725591048496,4083.382970440778
0.0455892949998106,3786.423058427678
0.047378933909631396,3507.029306466319
0.049238826317067365,3247.341639844175
0.05117173007114603,3009.3534087315315
0.05318051128214196,2794.412344991323
0.05526814857144601,2603.587058567842
0.057437737488265785,2438.020403332864
0.0596924950997073,2298.1188003903967
0.0620357647610427,2182.553477689188
0.06447102107323864,2089.6091579392196
0.06700187503509585,2016.8531710305026
0.06963207939763882,1961.4763397943302
0.0723655342286965,1920.6450976848923
0.07520629269592405,1891.3487719819716
0.07815856707684081,1869.4668034393571
0.08122673500479707,1849.7986944944557
0.08441534596012978,1825.9958261679483
0.0877291280161335,1791.418292460819
0.09117299484984914,1740.1084879739287
0.09475205302806537,1668.1288771838174
0.09847160957933764,1574.3217644707095
0.1023371798632519,1460.7571785555435
0.10635449574860109,1331.567776207983
0.11052951411260206,1192.8741124521491
0.1148684256737553,1052.7466539585491
0.1193776641714435,920.170112946369
0.1240639159058831,803.619166064683
0.12893412965257148,709.4441468102289
0.13399552696593373,640.7215006633626
0.1392556128874462,596.9191956003897
0.14472218707411338,574.9128128864998
0.15040335536380234,569.4876970121412
0.15630754179458153,573.3188942079853
0.16244350109588662,577.1504013394066
0.16882033167003618,571.1867287017374
0.17544748908334581,547.7616029813486
0.1823348000868439,504.259106228465
0.189492477187382,445.3259036572163
0.19693113379074215,381.79144957874547
0.20466179993919872,325.3793760669935
0.21269593866686892,283.8824243109455
0.22104546299710207,260.2695704474178
0.22972275360711503,252.6640849832669
0.23874067718606454,253.91256074915822
0.2481126055137766,254.0207853743109
0.25785243528842716,244.43516683751542
0.26797460873256895,222.07206992238537
0.27849413500806414,192.10582840726863
0.28942661247167484,164.25408362348693
0.3007882518043098,145.8816355037028
0.31259590004822796,138.1795811130359
0.324867065587837,136.17545862170388
0.3376199441111335,132.4873121174535
0.35087344559027084,122.04779858237609
0.36464722232127456,106.98398391429143
0.37896169806447155,93.57017889096032
0.3938380983288488,85.89784443469412
0.4092984818452433,82.4159130511412
0.4253657732750382,78.42305164835071
0.44206379720285277,71.2650075684883
0.45941731346364734,63.09925642034294
0.47745205385661277,57.300547608510186
0.4961947603002895,53.88944936264474
0.5156732244854959,50.30327779375567
0.5359163290848509,45.47685725158764
0.556954090580013,41.01569304961101
0.5788177037701272,37.920733244306476
0.6015395880274836,35.13546782043512
0.6251534353689703,31.925032839286267
0.6496942604146115,29.034065350030232
0.6751984523072497,26.75069656357969
0.7017038286703824,24.49986407991989
0.7292496916841444,22.290707277795867
0.7578768863625915,20.420368067676097
0.7876278611187046,18.679346050873775
0.8185467307069019,17.060639720567885
0.850679341636415,15.576564106600877
0.8840733401525058,14.216922482377312
0.9187782428863317,12.972139278735067
0.9548455102782278,11.833254213220739
0.9923286228832539,10.791898149436115
1.0312831606721837,9.840133454943976
1.0717668854455022,8.970353030015144
1.1138398264826193,8.175565277078423
1.1575643695533022,7.44937894695535
1.2030053494233226,6.785950354438513
1.2502301459914542,6.179939067806387
1.299308784200415,5.626521856971957
1.3503140378698726,5.121318851719734
1.4033215376054824,4.660295385551458
1.4584098829439835,4.239735194848145
1.5156607589006013,3.8562174356023995
1.575159057091621,3.5065925908183346
1.6369930016117014,3.1879519542366395
1.7012542798525885,2.8976226913266383
1.7680381784572046,2.633155209747623
1.8374437246107238,2.392305241583369
1.9095738328780953,2.173017289348587
1.9845354578058014,1.973410099628955
2.0624397525140905,1.7917631074115865
2.143402233514853,1.6265015099244895
2.227542951999554,1.4761841789084034
2.314986671851158,1.3394927743591925
2.405863054644063,1.2152216736912358
2.5003068519063225,1.1022682608314047
2.598458104929248,0.9996246147795604
2.7004623524206774,0.9063701546396246
2.806470846309834,0.8216643388669975
2.916640776023701,0.7447399301947646
3.031135501567576,0.6748968096464882
3.150124795755327,0.6114963114327417
3.2737850959485697,0.5539559674019284
3.4022997656780634,0.5017446970752858
3.5358593665351745,0.4543784080190807
3.6746619407366854,0.4114159589275733
3.8189133047818515,0.3724553949791472
3.968827354637162,0.3371304963214136
4.1246263829013445,0.305107838695374
4.286541408420921,0.27608395374342093
4.4548125188449825,0.24978270273667774
4.629689226627261,0.22595287360396427
4.811430839003257,0.20436597768281237
5.000306842491082,0.18481424307707486
5.196597302486189,0.16710878544599794
5.400593278542364,0.15107792922588914
5.612597255954967,0.13656567381875534
5.8329235942862,0.12343029003764919
6.06189899349756,0.11154302597629541
6.29986297838068,0.10078695884159825
6.547168402004727,0.0910559390883294
6.804181968927091,0.08225361685146022
7.071284778942991,0.07429255433552845
7.348872892180382,0.06709341711811567
7.637357916378006,0.06058423732765258
7.937167617217536,0.05469974118766463
8.248746552614573,0.049380737328014
8.572556731909314,0.044573559968586036
8.909078300934132,0.040229561580261364
9.258810253973934,0.03630463990216374
9.622271173675122,0.03275882234609827
9.999999999999984,0.029555900133232022
