k [1/Mpc],P(k) [Mpc^3]
0.0001,705.3056591769117
0.00010392556829367125,730.8694736471824
0.00010800523745162529,757.3590698290348
0.00011224505680853065,784.8078614371095
0.00011665131316981963,813.2504547106181
0.00012123054013376525,842.7227002515245
0.00012598952777950273,873.2617381265117
0.00013093533273536104,904.9060417795693
0.00013607528864243335,937.6954743150158
0.00014141701702890234,971.6713318786591
0.00014696843861124463,1006.8763399720109
0.00015273778503907136,1043.3546537299896
0.00015873361110102093,1081.1519925863508
0.00016496480740980205,1120.3157968718097
0.0001714406135851971,1160.8952627407562
0.00017817063195457305,1202.941284983734
0.00018516484179121546,1246.5063716838613
0.000192433614111598,1291.644842157918
0.00019998772705352857,1338.4129960539947
0.0002078383818579757,1386.8691937051553
0.00021599721947827182,1437.0738283975154
0.0002244763378413224,1489.0892383344187
0.0002332883097864157,1542.9798727817517
0.00024244620170823283,1598.812465012414
0.0002519635929317015,1656.6561474038808
0.0002618545958474233,1716.5824424211182
0.0002721338768375308,1778.665065110903
0.0002828166780230032,1842.9800812869457
0.0002939188398646886,1909.6061918142263
0.0003054568246515432,1978.6249264136854
0.00031744774091091926,2050.1206150816292
0.00032990936877709396,2124.1801860778933
0.00034286018635565856,2200.893218723407
0.00035631939712285854,2280.352248465503
0.000370306958400514,2362.6528055063636
0.00038484361094874304,2447.893545191924
0.0003999509097203664,2536.1762005497926
0.00041565125582259895,2627.605547221024
0.00043196792973341727,2722.289679269686
0.0004489251258218605,2820.339855079754
0.0004665479882234472,2921.8706807066674
0.000484862648123908,3027.0002717657835
0.000503896262506515,3135.850199936372
0.0005236770544204653,3248.5457128439352
0.0005442343548300266,3365.215395622895
0.0005655986461065005,3485.9912248410988
0.0005878016072274912,3611.0089527250843
0.0006108761607505036,3740.407873875263
0.0006348565216305217,3874.331125969519
0.0006597782479539537,4012.925568154276
0.0006856782936641739,4156.341641024712
0.0007125950633568407,4304.733715869749
0.0007405684692262436,4458.2593775167825
0.0007696399902471156,4617.079781991079
0.0007998527336796708,4781.359974732396
0.000831251498989063,4951.2686834695605
0.0008638828442740447,5126.978545860254
0.000897795155303332,5308.664933045775
0.0009330387172620361,5496.505936385195
0.0009696657893145519,5690.683235677669
0.001007730682094461,5891.381735536831
0.0010472898382363582,6098.789775640488
0.0010884019160690055,6313.097639030343
0.0011311278765939214,6534.496543768147
0.001175531073878369,6763.180243331614
0.0012216773489967915,6999.343943854622
0.0012696351276599736,7243.184626396316
0.0013194755216767058,7494.900157348833
0.0013712724343984,7754.687079844425
0.0014251026703029975,8022.7424715208435
0.0014810460488806749,8299.261431433939
0.0015391855229902056,8584.436880519857
0.001599607301861487,8878.460587205036
0.0016624009789266115,9181.520793073947
0.0017276596646690358,9493.803270223723
0.0017954801246878305,9815.488487390621
0.0018659629231817451,10146.749579358719
0.001939212572065829,10487.754610212112
0.0020153376859417325,10838.662714375067
0.002094451143151469,11199.625015704069
0.002176670253153458,11570.782911371385
0.002262116930469025,11952.26358595637
0.002350917875457286,12344.183379812517
0.002443204762186487,12746.64469945014
0.0025391144336803463,13159.735360687628
0.002638789104828933,13583.527769086717
0.002742376573264949,14018.07200140505
0.0028500304385181063,14463.399399625874
0.0029619103297725525,14919.520455633947
0.0030781821425650787,15386.422513895483
0.003199018284775064,15864.070484895636
0.0033245979322709396,16352.4002009226
0.003455107294592217,16851.319935061052
0.0035907398910610534,17360.707999286755
0.0037316968377327513,17880.406921096775
0.0038781871456107214,18410.227421569478
0.0040304280305680515,18949.942217125576
0.00418864523543527,19499.285600687796
0.004353073364731888,20057.95268201543
0.00452395623253805,20625.588779607075
0.004701547224022131,21201.796053390615
0.004886109671160325,21786.12819435029
0.005077917243205399,22378.087112490448
0.005277254352483535,22977.126416584906
0.005484416576121017,23582.63739761749
0.005699711094326071,24193.955770058514
0.005923457145875801,24810.361311918226
0.006155986501483508,25431.071372668746
0.006397643955748424,26055.244746689285
0.0066487878384172625,26681.93297775071
0.0069097905457156435,27310.09216572103
0.007181039092537346,27938.647295718303
0.007462935686310132,28566.57312094234
0.007755898323389004,29192.81138263175
0.00806036140886134,29816.011230540327
0.008376776400682916,30434.477816920335
0.008705612479099857,31046.450045831603
0.009047357242349292,31650.288386994707
0.00940251742967013,32244.369976423524
0.009771619672696168,32827.0322987375
0.010155211276345676,33396.58710031913
0.010553861030365234,33951.2913458867
0.010968160052731372,34489.142993349335
0.011398722666160517,35007.955428684676
0.011846187309026826,35505.47360926883
0.012311217482038896,35979.32471798822
0.012794502732078732,36427.09259120935
0.013296759674662111,36846.268597644295
0.013818733056536317,37234.25821750258
0.014361196859990781,37588.455741422214
0.014924955450518284,37906.16808588517
0.015510844769528393,38184.70621783838
0.016119733573881575,38421.320449072555
0.01675252472408214,38613.12641352977
0.017410156523040152,38757.31348062906
0.018093604107387147,38851.05739848597
0.01880388089340914,38891.61194439222
0.019542040079740527,38876.35803925093
0.02030917620904734,38802.69624987377
0.021106426791015535,38668.25709857035
0.021934973989050584,38470.85876814255
0.02279604637318978,38208.55148667907
0.023690920741826323,37879.76192281031
0.02462092401494623,37483.26671037184
0.02558743520168586,37018.29212744278
0.02659188744512693,36484.6185945045
0.027635770147361564,35882.63168440799
0.028720631177978267,35213.31161027762
0.029848079169243254,34478.52986385415
0.03101978590138095,33680.876314554494
0.03223748878149028,32823.74525686414
0.0335029934197723,31911.769636673598
0.03481817630688963,30950.101201525093
0.03618498759642746,29945.15927162946
0.037605453996581675,28904.33077310389
0.03908168177536263,27835.3365183213
0.04061585988376978,26747.627412842947
0.04221026320156896,25650.59859253038
0.04386725591048496,24554.084105279922
0.0455892949998106,23468.67682568371
0.047378933909631396,22404.029509378473
0.049238826317067365,21371.175787281176
0.05117173007114603,20380.645496240373
0.05318051128214196,19440.50926281488
0.05526814857144601,18556.032050842186
0.057437737488265785,17731.247582714925
0.0596924950997073,16972.93373238582
0.0620357647610427,16289.580898151586
0.06447102107323864,15684.09948957015
0.06700187503509585,15146.313403626864
0.06963207939763882,14665.247182702455
0.0723655342286965,14233.075813116786
0.07520629269592405,13842.846106282615
0.07815856707684081,13481.447005445045
0.08122673500479707,13132.922778770637
0.08441534596012978,12778.8134301217
0.0877291280161335,12400.33114666796
0.09117299484984914,11978.938540619001
0.09475205302806537,11500.694364734705
0.09847160957933764,10958.683317610257
0.1023371798632519,10355.106293117235
0.10635449574860109,9700.734251217244
0.11052951411260206,9014.028062127283
0.1148684256737553,8317.973749274526
0.1193776641714435,7638.356345858782
0.1240639159058831,7003.068002561398
0.12893412965257148,6439.088303945025
0.13399552696593373,5967.042170189264
0.1392556128874462,5595.469813708434
0.14472218707411338,5318.328385425455
0.15040335536380234,5115.386765195713
0.15630754179458153,4957.746505326484
0.16244350109588662,4811.738531335374
0.16882033167003618,4643.315717439724
0.17544748908334581,4425.230164092785
0.1823348000868439,4146.043759811625
0.189492477187382,3814.8337011503163
0.19693113379074215,3459.2392863146783
0.20466179993919872,3118.8823009761945
0.21269593866686892,2831.798129521848
0.22104546299710207,2617.618899560662
0.22972275360711503,2472.166732834989
0.23874067718606454,2373.35052541169
0.2481126055137766,2285.897191039936
0.25785243528842716,2173.190039702509
0.26797460873256895,2019.6300441850053
0.27849413500806414,1837.2084417229585
0.28942661247167484,1655.7794487859003
0.3007882518043098,1506.701946592239
0.31259590004822796,1401.7799857825898
0.324867065587837,1329.2722984029897
0.3376199441111335,1261.1457173501349
0.35087344559027084,1175.2752237411355
0.36464722232127456,1073.0552728107755
0.37896169806447155,972.8913650956641
0.3938380983288488,893.8529568947018
0.4092984818452433,835.5712797956414
0.4253657732750382,783.223734539577
0.44206379720285277,723.6045922317553
0.45941731346364734,660.3357532499531
0.47745205385661277,604.6744193482785
0.4961947603002895,560.4588061408248
0.5156732244854959,520.2703082608002
0.5359163290848509,478.2587472254152
0.556954090580013,437.6958349588611
0.5788177037701272,402.96438459073903
0.6015395880274836,372.11364590693773
0.6251534353689703,341.8415320057609
0.6496942604146115,313.3422183286652
0.6751984523072497,288.1411362062323
0.7017038286703824,264.8609538931297
0.7292496916841444,242.80541514666652
0.7578768863625915,222.75307817636002
0.7876278611187046,204.41306775045962
0.8185467307069019,187.30602796395567
0.850679341636415,171.6510900525097
0.8840733401525058,157.26454095766303
0.9187782428863317,144.01882808620823
0.9548455102782278,131.833501009694
0.9923286228832539,120.63246069798797
1.0312831606721837,110.34389583108101
1.0717668854455022,100.9001365633969
1.1138398264826193,92.23626296391916
1.1575643695533022,84.29047791427688
1.2030053494233226,77.00558833259754
1.2502301459914542,70.32875298864562
1.299308784200415,64.21116864694976
1.3503140378698726,58.60782668979729
1.4033215376054824,53.477400975080606
1.4584098829439835,48.7817557536406
1.5156607589006013,44.485640783749915
1.575159057091621,40.55649265872518
1.6369930016117014,36.964247029947806
1.7012542798525885,33.681129326371945
1.7680381784572046,30.681492139533486
1.8374437246107238,27.94171486574092
1.9095738328780953,25.440057020735328
1.9845354578058014,23.15651742315736
2.0624397525140905,21.072703659969644
2.143402233514853,19.171713076836177
2.227542951999554,17.4380155863176
2.314986671851158,15.85734649404533
2.405863054644063,14.416608930284628
2.5003068519063225,13.103783219284692
2.598458104929248,11.907839586475893
2.7004623524206774,10.818659082706922
2.806470846309834,9.826968088968934
2.916640776023701,8.924271458971118
3.031135501567576,8.102789950518607
3.150124795755327,7.355402357498546
3.2737850959485697,6.675591733487618
3.4022997656780634,6.057396461913484
3.5358593665351745,5.4953650399304435
3.6746619407366854,4.984514079120449
3.8189133047818515,4.520289591883029
3.968827354637162,4.098530818311484
4.1246263829013445,3.7154369202373716
4.286541408420921,3.367538160365274
4.4548125188449825,3.0516681877963725
4.629689226627261,2.7649383441223567
4.811430839003257,2.504714027396958
5.000306842491082,2.268592624202608
5.196597302486189,2.054383913627344
5.400593278542364,1.860092183020994
5.612597255954967,1.683899434160189
5.8329235942862,1.5241499824171472
6.06189899349756,1.3793363309032223
6.29986297838068,1.2480862200427691
6.547168402004727,1.129150853929035
6.804181968927091,1.0213940794325282
7.071284778942991,0.9237824730945563
7.348872892180382,0.8353762684517803
7.637357916378006,0.7553209438408247
7.937167617217536,0.6828397072574389
8.248746552614573,0.6172267217444407
8.572556731909314,0.5578407670956415
8.909078300934132,0.5040994475708831
9.258810253973934,0.45547386990620287
9.622271173675122,0.41148371652821214
9.999999999999984,0.3716930165773509
