k [1/Mpc],P(k) [Mpc^3]
0.0001,998.3735969825282
0.00010392556829367125,1034.5530229384394
0.00010800523745162529,1072.0418886305358
0.00011224505680853065,1110.887379556267
0.00011665131316981963,1151.1383616687667
0.00012123054013376525,1192.845424366018
0.00012598952777950273,1236.0609490315933
0.00013093533273536104,1280.8391773059814
0.00013607528864243335,1327.23626692967
0.00014141701702890234,1375.3103681715747
0.00014696843861124463,1425.1216712143746
0.00015273778503907136,1476.7324795820073
0.00015873361110102093,1530.2072845516304
0.00016496480740980205,1585.6127905634987
0.0001714406135851971,1643.0180332689783
0.00017817063195457305,1702.4944258419382
0.00018516484179121546,1764.1158264048684
0.000192433614111598,1827.9586637752657
0.00019998772705352857,1894.1019971404237
0.0002078383818579757,1962.6276222103581
0.00021599721947827182,2033.6200906469796
0.0002244763378413224,2107.166732311872
0.0002332883097864157,2183.3578493535124
0.00024244620170823283,2262.286710300661
0.0002519635929317015,2344.049689729931
0.0002618545958474233,2428.7463803823457
0.0002721338768375308,2516.4796139605623
0.0002828166780230032,2607.3556391252882
0.0002939188398646886,2701.4839849009036
0.0003054568246515432,2798.9775845503837
0.00031744774091091926,2899.953041750991
0.00032990936877709396,3004.530658726721
0.00034286018635565856,3112.834604289666
0.00035631939712285854,3224.992665695733
0.000370306958400514,3341.1362385668194
0.00038484361094874304,3461.4007686995233
0.0003999509097203664,3585.9256630029768
0.00041565125582259895,3714.8545217118476
0.00043196792973341727,3848.3350117441714
0.0004489251258218605,3986.5187017011895
0.0004665479882234472,4129.561513911949
0.000484862648123908,4277.623254944292
0.000503896262506515,4430.867922433585
0.0005236770544204653,4589.463921428053
0.0005442343548300266,4753.583829708229
0.0005655986461065005,4923.404765551944
0.0005878016072274912,5099.107631170142
0.0006108761607505036,5280.877233556677
0.0006348565216305217,5468.902741586508
0.0006597782479539537,5663.377030488725
0.0006856782936641739,5864.49727497756
0.0007125950633568407,6072.4645896802
0.0007405684692262436,6287.48385934469
0.0007696399902471156,6509.763982760162
0.0007998527336796708,6739.516271877378
0.000831251498989063,6976.955350652786
0.0008638828442740447,7222.298989156214
0.000897795155303332,7475.767418649095
0.0009330387172620361,7737.583945095743
0.0009696657893145519,8007.9729059962465
0.001007730682094461,8287.160225110318
0.0010472898382363582,8575.37307979167
0.0010884019160690055,8872.83767778859
0.0011311278765939214,9179.781023148167
0.001175531073878369,9496.428501285704
0.0012216773489967915,9823.003714922357
0.0012696351276599736,10159.728594205952
0.0013194755216767058,10506.81903092905
0.0013712724343984,10864.487537816794
0.0014251026703029975,11232.940653215874
0.0014810460488806749,11612.377377591883
0.0015391855229902056,12002.99085560717
0.001599607301861487,12404.964040511257
0.0016624009789266115,12818.471128971436
0.0017276596646690358,13243.674349004215
0.0017954801246878305,13680.71984785586
0.0018659629231817451,14129.741310321562
0.001939212572065829,14590.85486248385
0.0020153376859417325,15064.159628084557
0.002094451143151469,15549.735585308646
0.002176670253153458,16047.636705915735
0.002262116930469025,16557.895640661915
0.002350917875457286,17080.519297888295
0.002443204762186487,17615.487780284744
0.0025391144336803463,18162.754305261453
0.002638789104828933,18722.238699452053
0.002742376573264949,19293.82992711915
0.0028500304385181063,19877.379516720895
0.0029619103297725525,20472.6981192395
0.0030781821425650787,21079.55935218776
0.003199018284775064,21697.69355522722
0.0033245979322709396,22326.78923136521
0.003455107294592217,22966.487133440674
0.0035907398910610534,23616.373587865342
0.0037316968377327513,24275.986552850172
0.0038781871456107214,24944.805770336076
0.0040304280305680515,25622.255043106565
0.00418864523543527,26307.702493080444
0.004353073364731888,27000.453732827
0.00452395623253805,27699.75652495591
0.004701547224022131,28404.785027334845
0.004886109671160325,29114.6409601197
0.005077917243205399,29828.36409940032
0.005277254352483535,30544.928956090254
0.005484416576121017,31263.245623546616
0.005699711094326071,31982.09111504086
0.005923457145875801,32700.092128754633
0.006155986501483508,33415.84184583837
0.006397643955748424,34128.122210401736
0.0066487878384172625,34835.75899890681
0.0069097905457156435,35537.15363012469
0.007181039092537346,36229.9872102641
0.007462935686310132,36911.83838694774
0.007755898323389004,37580.824141149875
0.00806036140886134,38235.35818297429
0.008376776400682916,38873.57293700245
0.008705612479099857,39492.90978913975
0.009047357242349292,40090.67008873901
0.00940251742967013,40664.496061065016
0.009771619672696168,41212.322161917364
0.010155211276345676,41731.93718139915
0.010553861030365234,42220.539376194734
0.010968160052731372,42675.17588753237
0.011398722666160517,43092.79793400871
0.011846187309026826,43470.26260679499
0.012311217482038896,43804.44290529054
0.012794502732078732,44092.173247604405
0.013296759674662111,44330.336483514104
0.013818733056536317,44515.73459102281
0.014361196859990781,44644.98659700462
0.014924955450518284,44714.82115180129
0.015510844769528393,44721.8700284849
0.016119733573881575,44662.85373862579
0.01675252472408214,44534.62600760754
0.017410156523040152,44333.985845628056
0.018093604107387147,44058.05824007819
0.01880388089340914,43704.0882241078
0.019542040079740527,43269.587264912974
0.02030917620904734,42752.53562878307
0.021106426791015535,42151.10979225378
0.021934973989050584,41464.12471731081
0.02279604637318978,40690.96217033585
0.023690920741826323,39831.614348682684
0.02462092401494623,38886.981865568116
0.02558743520168586,37858.738673031185
0.02659188744512693,36749.536082794286
0.027635770147361564,35563.161897707905
0.028720631177978267,34304.55800523482
0.029848079169243254,32979.75632317466
0.03101978590138095,31596.335699489715
0.03223748878149028,30162.936937378396
0.0335029934197723,28689.379995493207
0.03481817630688963,27187.19645048492
0.03618498759642746,25668.13300539423
0.037605453996581675,24145.650944903264
0.03908168177536263,22633.706718212885
0.04061585988376978,21145.774031737703
0.04221026320156896,19696.97925858489
0.04386725591048496,18300.452828629015
0.0455892949998106,16969.57083663135
0.047378933909631396,15717.414912145385
0.049238826317067365,14553.575534943326
0.05117173007114603,13486.986280696703
0.05318051128214196,12523.687264565373
0.05526814857144601,11668.467664057129
0.057437737488265785,10926.449394878096
0.0596924950997073,10299.453910048065
0.0620357647610427,9781.526066387967
0.06447102107323864,9364.978524414526
0.06700187503509585,9038.908813084072
0.06963207939763882,8790.727073782962
0.0723655342286965,8607.734142292766
0.07520629269592405,8476.437119588923
0.07815856707684081,8378.368940334005
0.08122673500479707,8290.222591441421
0.08441534596012978,8183.5455366198175
0.0877291280161335,8028.579781725331
0.09117299484984914,7798.625191755253
0.09475205302806537,7476.03495679002
0.09847160957933764,7055.620645023715
0.1023371798632519,6546.659481550247
0.10635449574860109,5967.672749045679
0.11052951411260206,5346.090872066015
0.1148684256737553,4718.083172880998
0.1193776641714435,4123.916338043485
0.1240639159058831,3601.5712332662797
0.12893412965257148,3179.5080787747156
0.13399552696593373,2871.514546653595
0.1392556128874462,2675.2062347972555
0.14472218707411338,2576.5804699107384
0.15040335536380234,2552.2667873913083
0.15630754179458153,2569.4370219902326
0.16244350109588662,2586.608645624046
0.16882033167003618,2559.88131914473
0.17544748908334581,2454.897189232368
0.1823348000868439,2259.932525002552
0.189492477187382,1995.812235158968
0.19693113379074215,1711.0705667255897
0.20466179993919872,1458.2491934328636
0.21269593866686892,1272.2727582954374
0.22104546299710207,1166.447289215775
0.22972275360711503,1132.361868136475
0.23874067718606454,1137.9571483310524
0.2481126055137766,1138.4421774507402
0.25785243528842716,1095.4824156219543
0.26797460873256895,995.2579685985047
0.27849413500806414,860.9585915210954
0.28942661247167484,736.1357313337759
0.3007882518043098,653.7961313999862
0.31259590004822796,619.277918418185
0.324867065587837,610.2960645531635
0.3376199441111335,593.7669386752591
0.35087344559027084,546.9802849654565
0.36464722232127456,479.4689514099031
0.37896169806447155,419.35244804519436
0.3938380983288488,384.9674305685679
0.4092984818452433,369.36249674323176
0.4253657732750382,351.46773343497085
0.44206379720285277,319.38760551725346
0.45941731346364734,282.79124784550993
0.47745205385661277,256.803237941446
0.4961947603002895,241.5157562151015
0.5156732244854959,225.44365029045423
0.5359163290848509,203.81313409776467
0.556954090580013,183.81958325278256
0.5788177037701272,169.9489357202136
0.6015395880274836,157.46624211205884
0.6251534353689703,143.07807074601303
0.6496942604146115,130.1216533467116
0.6751984523072497,119.88830441292512
0.7017038286703824,109.80077307174513
0.7292496916841444,99.90001917700287
0.7578768863625915,91.5177403811844
0.7876278611187046,83.71502103726348
0.8185467307069019,76.46048256864455
0.850679341636415,69.80931710997335
0.8840733401525058,63.7158261031139
0.9187782428863317,58.13709482441005
0.9548455102782278,53.03296607392324
0.9923286228832539,48.36593198452941
1.0312831606721837,44.10041855569036
1.0717668854455022,40.20233313169281
1.1138398264826193,36.64034154611776
1.1575643695533022,33.38580020737627
1.2030053494233226,30.4125195353438
1.2502301459914542,27.69656537554309
1.299308784200415,25.21632151040945
1.3503140378698726,22.952158723468617
1.4033215376054824,20.885994893972885
1.4584098829439835,19.001174883878555
1.5156607589006013,17.28236753398635
1.575159057091621,15.715457688398967
1.6369930016117014,14.28740943006522
1.7012542798525885,12.98624394568216
1.7680381784572046,11.800982924029658
1.8374437246107238,10.72156825411665
1.9095738328780953,9.73878783532921
1.9845354578058014,8.844210474801839
2.0624397525140905,8.030125135121475
2.143402233514853,7.289474039916943
2.227542951999554,6.615798500419762
2.314986671851158,6.003190126642404
2.405863054644063,5.446245693019941
2.5003068519063225,4.940023617148653
2.598458104929248,4.480006710498454
2.7004623524206774,4.062069215729027
2.806470846309834,3.682444086986775
2.916640776023701,3.33769280539821
3.031135501567576,3.024677655398696
3.150124795755327,2.7405363355001597
3.2737850959485697,2.482658404553772
3.4022997656780634,2.2486637249823915
3.5358593665351745,2.036382745016723
3.6746619407366854,1.8438384064883595
3.8189133047818515,1.6692292728664908
3.968827354637162,1.5109140606413267
4.1246263829013445,1.3673984659555267
4.286541408420921,1.2373224379876095
4.4548125188449825,1.1194484088144703
4.629689226627261,1.0126505240423649
4.811430839003257,0.9159047685300129
5.000306842491082,0.8282799732413286
5.196597302486189,0.7489296172907974
5.400593278542364,0.6770843041809751
5.612597255954967,0.612044887736869
5.8329235942862,0.5531761818103896
6.06189899349756,0.4999011603903979
6.29986297838068,0.4516958118730031
6.547168402004727,0.40808440700153437
6.804181968927091,0.3686351356389641
7.071284778942991,0.33295612877303465
7.348872892180382,0.3006918341898918
7.637357916378006,0.27151971426610794
7.937167617217536,0.24514723223107746
8.248746552614573,0.22130911076819518
8.572556731909314,0.1997648365372703
8.909078300934132,0.18029638643874946
9.258810253973934,0.1627061078520864
9.622271173675122,0.14681485606565495
9.999999999999984,0.13246035459110928
