k [1/Mpc],P(k) [Mpc^3]
0.0001,194.66630696947934
0.00010392556829367125,201.72272466476844
0.00010800523745162529,209.03476012071442
0.00011224505680853065,216.61166695828442
0.00011665131316981963,224.46302395573042
0.00012123054013376525,232.59873942884013
0.00012598952777950273,241.02907681382052
0.00013093533273536104,249.76467740634575
0.00013607528864243335,258.8165705436391
0.00014141701702890234,268.1961767928963
0.00014696843861124463,277.91531128689286
0.00015273778503907136,287.9862095059295
0.00015873361110102093,298.42154697254466
0.00016496480740980205,309.2344547868922
0.0001714406135851971,320.43853357695565
0.00017817063195457305,332.04786934673484
0.00018516484179121546,344.0770508399777
0.000192433614111598,356.5411732230785
0.00019998772705352857,369.45584860996047
0.0002078383818579757,382.83724193840004
0.00021599721947827182,396.7020990380537
0.0002244763378413224,411.0677630712877
0.0002332883097864157,425.95217201533325
0.00024244620170823283,441.37385266989065
0.0002519635929317015,457.35197657254196
0.0002618545958474233,473.9064141484159
0.0002721338768375308,491.05775424162107
0.0002828166780230032,508.82729049912183
0.0002939188398646886,527.2369903279034
0.0003054568246515432,546.3095649456927
0.00031744774091091926,566.0684942170268
0.00032990936877709396,586.5380477016075
0.00034286018635565856,607.7433249522866
0.00035631939712285854,629.710280949484
0.000370306958400514,652.4657548376338
0.00038484361094874304,676.0374512898502
0.0003999509097203664,700.4539208413372
0.00041565125582259895,725.7446561851146
0.00043196792973341727,751.9401164614238
0.0004489251258218605,779.0717606684111
0.0004665479882234472,807.172043744941
0.000484862648123908,836.2743552823084
0.000503896262506515,866.4131368372481
0.0005236770544204653,897.6239271074113
0.0005442343548300266,929.9433921218567
0.0005655986461065005,963.4093234934415
0.0005878016072274912,998.0605052510141
0.0006108761607505036,1033.9368524516715
0.0006348565216305217,1071.079461872096
0.0006597782479539537,1109.530617559862
0.0006856782936641739,1149.3338379510938
0.0007125950633568407,1190.533711419298
0.0007405684692262436,1233.1759987108505
0.0007696399902471156,1277.3077400443533
0.0007998527336796708,1322.9772519169483
0.000831251498989063,1370.2341672026103
0.0008638828442740447,1419.1291992194233
0.000897795155303332,1469.7141718324795
0.0009330387172620361,1522.0421863309023
0.0009696657893145519,1576.1674836108466
0.001007730682094461,1632.145573737554
0.0010472898382363582,1690.0330722538467
0.0010884019160690055,1749.8876064255742
0.0011311278765939214,1811.7680033474192
0.001175531073878369,1875.7339692695377
0.0012216773489967915,1941.8462480924811
0.0012696351276599736,2010.1664781382892
0.0013194755216767058,2080.756831594659
0.0013712724343984,2153.680386795745
0.0014251026703029975,2229.0006618024795
0.0014810460488806749,2306.7816649812485
0.0015391855229902056,2387.087876932272
0.001599607301861487,2469.9834452970103
0.0016624009789266115,2555.532759759748
0.0017276596646690358,2643.800093270991
0.0017954801246878305,2734.849397254648
0.0018659629231817451,2828.744438524265
0.001939212572065829,2925.547691782827
0.0020153376859417325,3025.320816277829
0.002094451143151469,3128.124246891813
0.002176670253153458,3234.0164612548924
0.002262116930469025,3343.0545719269226
0.002350917875457286,3455.293079139744
0.002443204762186487,3570.784026936724
0.0025391144336803463,3689.5768664639445
0.002638789104828933,3811.7171134230025
0.002742376573264949,3937.247155881941
0.0028500304385181063,4066.205135955605
0.0029619103297725525,4198.624592833654
0.0030781821425650787,4334.534638489116
0.003199018284775064,4473.958051869226
0.0033245979322709396,4616.91206666234
0.003455107294592217,4763.407647742209
0.0035907398910610534,4913.448584765788
0.0037316968377327513,5067.031894906148
0.0038781871456107214,5224.145514132718
0.0040304280305680515,5384.76875666606
0.00418864523543527,5548.87189701239
0.004353073364731888,5716.4143155236525
0.00452395623253805,5887.345574376289
0.004701547224022131,6061.602721627914
0.004886109671160325,6239.110118244271
0.005077917243205399,6419.779852457561
0.005277254352483535,6603.508415759624
0.005484416576121017,6790.178628560534
0.005699711094326071,6979.657332823276
0.005923457145875801,7171.7940278450715
0.006155986501483508,7366.422794529893
0.006397643955748424,7563.358958310007
0.0066487878384172625,7762.400488194774
0.0069097905457156435,7963.321424391995
0.007181039092537346,8165.863470333295
0.007462935686310132,8369.749546999212
0.007755898323389004,8574.706007507066
0.00806036140886134,8780.457047292115
0.008376776400682916,8986.682222095906
0.008705612479099857,9192.948649491374
0.009047357242349292,9398.779913409928
0.00940251742967013,9603.710591920128
0.009771619672696168,9807.291549121455
0.010155211276345676,10009.055353339396
0.010553861030365234,10208.512103466303
0.010968160052731372,10405.152480152925
0.011398722666160517,10598.419555080303
0.011846187309026826,10787.68828234839
0.012311217482038896,10972.307168944615
0.012794502732078732,11151.580648375992
0.013296759674662111,11324.782153482918
0.013818733056536317,11491.160369177991
0.014361196859990781,11649.925055625756
0.014924955450518284,11800.271176722192
0.015510844769528393,11941.36200313611
0.016119733573881575,12072.336399836466
0.01675252472408214,12192.32200085328
0.017410156523040152,12300.39418774981
0.018093604107387147,12395.6245455576
0.01880388089340914,12477.076121566857
0.019542040079740527,12543.800465459659
0.02030917620904734,12594.876066308847
0.021106426791015535,12629.377989497043
0.021934973989050584,12646.41452683722
0.02279604637318978,12645.140764420581
0.023690920741826323,12624.747491695123
0.02462092401494623,12584.508656312437
0.02558743520168586,12523.78721104219
0.02659188744512693,12442.050487798917
0.027635770147361564,12338.898703253362
0.028720631177978267,12214.09647713394
0.029848079169243254,12067.560213922357
0.03101978590138095,11899.429753247417
0.03223748878149028,11710.07830334028
0.0335029934197723,11500.06893763801
0.03481817630688963,11270.332579233365
0.03618498759642746,11022.005419254318
0.037605453996581675,10756.51659583431
0.03908168177536263,10475.700161702498
0.04061585988376978,10181.494819416645
0.04221026320156896,9876.32883798226
0.04386725591048496,9562.835319571463
0.0455892949998106,9243.705835496721
0.047378933909631396,8922.007938861985
0.049238826317067365,8600.656077046875
0.05117173007114603,8282.9195986176
0.05318051128214196,7972.272993757196
0.05526814857144601,7671.61012289543
0.057437737488265785,7382.8319844031
0.0596924950997073,7107.373535483624
0.0620357647610427,6847.423892745138
0.06447102107323864,6606.286298960395
0.06700187503509585,6386.2298841986185
0.06963207939763882,6185.471606632792
0.0723655342286965,6001.076061554566
0.07520629269592405,5830.336130711865
0.07815856707684081,5670.702664341192
0.08122673500479707,5518.749075092575
0.08441534596012978,5370.354733476508
0.0877291280161335,5221.611074091143
0.09117299484984914,5068.563425040751
0.09475205302806537,4905.33109337323
0.09847160957933764,4726.219780007997
0.1023371798632519,4527.575451032981
0.10635449574860109,4308.763164771671
0.11052951411260206,4072.353594970735
0.1148684256737553,3824.2044518538464
0.1193776641714435,3572.057303430412
0.1240639159058831,3324.2903821748096
0.12893412965257148,3089.0944297551537
0.13399552696593373,2874.1111742701846
0.1392556128874462,2685.6572501753258
0.14472218707411338,2527.8090831007357
0.15040335536380234,2400.9042970510077
0.15630754179458153,2300.451979191965
0.16244350109588662,2217.8699764861913
0.16882033167003618,2141.918406613263
0.17544748908334581,2060.968571521033
0.1823348000868439,1965.759032251916
0.189492477187382,1852.1764177748341
0.19693113379074215,1722.565847701626
0.20466179993919872,1584.6678532899318
0.21269593866686892,1449.6223504904742
0.22104546299710207,1329.6860619042145
0.22972275360711503,1233.7775468479085
0.23874067718606454,1162.5974659064943
0.2481126055137766,1108.8453888049057
0.25785243528842716,1061.373223530157
0.26797460873256895,1008.5700664702237
0.27849413500806414,943.2763696959709
0.28942661247167484,867.8818495045505
0.3007882518043098,791.8561587259939
0.31259590004822796,725.6663138731699
0.324867065587837,674.9433917852987
0.3376199441111335,636.6799546853115
0.35087344559027084,602.3234764206435
0.36464722232127456,563.4273736268426
0.37896169806447155,518.8001557186229
0.3938380983288488,474.4982098909831
0.4092984818452433,436.98759629229903
0.4253657732750382,407.64864465428036
0.44206379720285277,381.7015041578668
0.45941731346364734,354.1881188251938
0.47745205385661277,325.29748266825374
0.4961947603002895,298.93612739657465
0.5156732244854959,276.99929440041507
0.5359163290848509,257.32737589752855
0.556954090580013,237.50189113499712
0.5788177037701272,218.21201679758113
0.6015395880274836,201.15429340258754
0.6251534353689703,185.9748542410213
0.6496942604146115,171.36323521648987
0.6751984523072497,157.5066369196668
0.7017038286703824,145.05027784052
0.7292496916841444,133.59859038329733
0.7578768863625915,122.77876992304023
0.7876278611187046,112.84405628612431
0.8185467307069019,103.74557711846623
0.850679341636415,95.26634268130783
0.8840733401525058,87.46224632450605
0.9187782428863317,80.28280140749895
0.9548455102782278,73.6560190895057
0.9923286228832539,67.54490816298848
1.0312831606721837,61.914327104694486
1.0717668854455022,56.730862760296944
1.1138398264826193,51.962822422713835
1.1575643695533022,47.5795976882794
1.2030053494233226,43.551586191751184
1.2502301459914542,39.8512612848481
1.299308784200415,36.45312397206518
1.3503140378698726,33.33356205693742
1.4033215376054824,30.470745229492383
1.4584098829439835,27.84461536669412
1.5156607589006013,25.43662364891756
1.575159057091621,23.229566168948274
1.6369930016117014,21.207497601392298
1.7012542798525885,19.355648729565548
1.7680381784572046,17.660325644476462
1.8374437246107238,16.10883948537645
1.9095738328780953,14.689473070441746
1.9845354578058014,13.39141419745066
2.0624397525140905,12.204690667355829
2.143402233514853,11.120110334184206
2.227542951999554,10.129207058022107
2.314986671851158,9.224183509234454
2.405863054644063,8.397860436451497
2.5003068519063225,7.643630847839274
2.598458104929248,6.955417161014759
2.7004623524206774,6.327628519150237
2.806470846309834,5.755124623515755
2.916640776023701,5.2331850692499575
3.031135501567576,4.75747699112767
3.150124795755327,4.3240248319048575
3.2737850959485697,3.9291821844116384
3.4022997656780634,3.569605493126728
3.5358593665351745,3.2422305406271037
3.6746619407366854,2.9442502961474415
3.8189133047818515,2.6730942657874546
3.968827354637162,2.4264093882940503
4.1246263829013445,2.2020420633645554
4.286541408420921,1.9980220413684646
4.4548125188449825,1.8125478034861267
4.629689226627261,1.643972667515309
4.811430839003257,1.4907919670060945
5.000306842491082,1.3516311123230902
5.196597302486189,1.225234468847024
5.400593278542364,1.1104558414780512
5.612597255954967,1.0062493470247165
5.8329235942862,0.9116609075039405
6.06189899349756,0.8258204334888843
6.29986297838068,0.7479345995018681
6.547168402004727,0.6772802942529862
6.804181968927091,0.6131986343914024
7.071284778942991,0.5550894193948864
7.348872892180382,0.5024060473049418
7.637357916378006,0.45465083451075433
7.937167617217536,0.4113707184819381
8.248746552614573,0.3721534221018715
8.572556731909314,0.3366238852136628
8.909078300934132,0.30444098603069536
9.258810253973934,0.2752945345904346
9.622271173675122,0.2489024378105038
9.999999999999984,0.225008269704211
