k [1/Mpc],P(k) [Mpc^3]
0.0001,538.8129470757374
0.00010392556829367125,556.7341304256145
0.00010800523745162529,575.25093387505
0.00011224505680853065,594.3831606755996
0.00011665131316981963,614.1512074048151
0.00012123054013376525,634.5760767731678
0.00012598952777950273,655.6794699196386
0.00013093533273536104,677.4838758502711
0.00013607528864243335,700.0125502013506
0.00014141701702890234,723.289470079853
0.00014696843861124463,747.339327850703
0.00015273778503907136,772.1876241601024
0.00015873361110102093,797.860766484255
0.00016496480740980205,824.3860674631777
0.0001714406135851971,851.7916859152531
0.00017817063195457305,880.1065759229675
0.00018516484179121546,909.3606134086511
0.000192433614111598,939.5846866686518
0.00019998772705352857,970.8107211786942
0.0002078383818579757,1003.0716771426962
0.00021599721947827182,1036.4015723298207
0.0002244763378413224,1070.835521921235
0.0002332883097864157,1106.4097160108154
0.00024244620170823283,1143.1614390753423
0.0002519635929317015,1181.1291572348282
0.0002618545958474233,1220.3525269246718
0.0002721338768375308,1260.8724510598486
0.0002828166780230032,1302.7311189379118
0.0002939188398646886,1345.9720370216876
0.0003054568246515432,1390.6400742235344
0.00031744774091091926,1436.7814303030377
0.00032990936877709396,1484.4437031171478
0.00034286018635565856,1533.6759193569385
0.00035631939712285854,1584.52848718097
0.000370306958400514,1637.0533326290806
0.00038484361094874304,1691.303912277549
0.0003999509097203664,1747.3352584181064
0.00041565125582259895,1805.2040345315195
0.00043196792973341727,1864.968492873915
0.0004489251258218605,1926.6885834769228
0.0004665479882234472,1990.4258432394724
0.000484862648123908,2056.243365502144
0.000503896262506515,2124.2060157489127
0.0005236770544204653,2194.380361487179
0.0005442343548300266,2266.8347815067846
0.0005655986461065005,2341.6394518984816
0.0005878016072274912,2418.8662710558037
0.0006108761607505036,2498.5890355319116
0.0006348565216305217,2580.883217576372
0.0006597782479539537,2665.8260763573408
0.0006856782936641739,2753.496743726741
0.0007125950633568407,2843.976008321415
0.0007405684692262436,2937.346577709555
0.0007696399902471156,3033.6929038259955
0.0007998527336796708,3133.1011856053447
0.000831251498989063,3235.659469182726
0.0008638828442740447,3341.457123965796
0.000897795155303332,3450.585241857983
0.0009330387172620361,3563.136707998948
0.0009696657893145519,3679.206138814283
0.001007730682094461,3798.8898483704097
0.0010472898382363582,3922.2846995317964
0.0010884019160690055,4049.488616752157
0.0011311278765939214,4180.600960412941
0.001175531073878369,4315.722319106461
0.0012216773489967915,4454.954577233513
0.0012696351276599736,4598.399529241935
0.0013194755216767058,4746.159052052927
0.0013712724343984,4898.33549782259
0.0014251026703029975,5055.030507435574
0.0014810460488806749,5216.345855686788
0.0015391855229902056,5382.382627855848
0.001599607301861487,5553.2408768169635
0.0016624009789266115,5729.019881083915
0.0017276596646690358,5909.8156965591015
0.0017954801246878305,6095.722430775117
0.0018659629231817451,6286.831970510647
0.001939212572065829,6483.233070053485
0.0020153376859417325,6685.011929446061
0.002094451143151469,6892.2494612796045
0.002176670253153458,7105.021970711096
0.002262116930469025,7323.400937409228
0.002350917875457286,7547.45070510117
0.002443204762186487,7777.230149844031
0.0025391144336803463,8012.790349854724
0.002638789104828933,8254.17432960146
0.002742376573264949,8501.41735223839
0.0028500304385181063,8754.543571623446
0.0029619103297725525,9013.567843841147
0.0030781821425650787,9278.493875415206
0.003199018284775064,9549.312942304934
0.0033245979322709396,9826.00475372203
0.003455107294592217,10108.532862802607
0.0035907398910610534,10396.846422643466
0.0037316968377327513,10690.87940615991
0.0038781871456107214,10990.548230987544
0.0040304280305680515,11295.753151625135
0.00418864523543527,11606.37222600781
0.004353073364731888,11922.262464437299
0.00452395623253805,12243.26054786094
0.004701547224022131,12569.17846723775
0.004886109671160325,12899.80649156651
0.005077917243205399,13234.90724453566
0.005277254352483535,13574.215050259585
0.005484416576121017,13917.438615621062
0.005699711094326071,14264.254023024332
0.005923457145875801,14614.309315658504
0.006155986501483508,14967.220147403805
0.006397643955748424,15322.566614643725
0.0066487878384172625,15679.895546128091
0.0069097905457156435,16038.69176602162
0.007181039092537346,16398.39384502464
0.007462935686310132,16758.4334448698
0.007755898323389004,17118.265761724248
0.00806036140886134,17477.313442253206
0.008376776400682916,17834.80274087808
0.008705612479099857,18189.8059541066
0.009047357242349292,18541.380986780612
0.00940251742967013,18888.65265832447
0.009771619672696168,19230.73539370029
0.010155211276345676,19566.704418175246
0.010553861030365234,19895.597295927575
0.010968160052731372,20216.398422761944
0.011398722666160517,20527.92347951215
0.011846187309026826,20828.91393055269
0.012311217482038896,21118.094710445213
0.012794502732078732,21394.185077780803
0.013296759674662111,21655.872429607778
0.013818733056536317,21901.66531131122
0.014361196859990781,22129.980094951003
0.014924955450518284,22339.226810688877
0.015510844769528393,22527.81319780386
0.016119733573881575,22694.157201067028
0.01675252472408214,22836.572738488198
0.017410156523040152,22953.314009769267
0.018093604107387147,23042.651613795362
0.01880388089340914,23102.789356322388
0.019542040079740527,23131.987258747708
0.02030917620904734,23128.511090356693
0.021106426791015535,23090.641170286224
0.021934973989050584,23016.78306111473
0.02279604637318978,22905.365372690372
0.023690920741826323,22754.972388510603
0.02462092401494623,22564.35444244882
0.02558743520168586,22332.404789764485
0.02659188744512693,22058.302944629333
0.027635770147361564,21741.482948095785
0.028720631177978267,21381.699395313022
0.029848079169243254,20979.102417303704
0.03101978590138095,20534.26490939653
0.03223748878149028,20048.191695586924
0.0335029934197723,19522.48199651226
0.03481817630688963,18959.279042548784
0.03618498759642746,18361.227261212603
0.037605453996581675,17731.79595263243
0.03908168177536263,17074.831727630986
0.04061585988376978,16394.951726106723
0.04221026320156896,15697.525774203235
0.04386725591048496,14987.991848320418
0.0455892949998106,14272.678929697891
0.047378933909631396,13557.842903530696
0.049238826317067365,12850.133817757176
0.05117173007114603,12157.220698493435
0.05318051128214196,11485.685829369437
0.05526814857144601,10841.06792234573
0.057437737488265785,10227.810403242423
0.0596924950997073,9650.557907264356
0.0620357647610427,9116.478964214166
0.06447102107323864,8631.321651412101
0.06700187503509585,8196.79115105677
0.06963207939763882,7812.179795404755
0.0723655342286965,7475.6291308376385
0.07520629269592405,7184.086182910711
0.07815856707684081,6933.545056485688
0.08122673500479707,6718.336532999874
0.08441534596012978,6532.016988006113
0.0877291280161335,6366.877829579388
0.09117299484984914,6213.431809053162
0.09475205302806537,6060.442925742605
0.09847160957933764,5894.26719147955
0.1023371798632519,5702.068798185371
0.10635449574860109,5474.052595527405
0.11052951411260206,5205.35193242087
0.1148684256737553,4896.798587695176
0.1193776641714435,4554.857407443981
0.1240639159058831,4190.52993624644
0.12893412965257148,3818.361704996359
0.13399552696593373,3454.813145306453
0.1392556128874462,3117.269988572458
0.14472218707411338,2822.066709738177
0.15040335536380234,2580.8912968412374
0.15630754179458153,2398.734875728149
0.16244350109588662,2272.7742838580434
0.16882033167003618,2192.6784089547314
0.17544748908334581,2142.0022862865217
0.1823348000868439,2100.08233369132
0.189492477187382,2045.3067497629784
0.19693113379074215,1959.8924175013103
0.20466179993919872,1834.706841934284
0.21269593866686892,1673.008800804887
0.22104546299710207,1491.9259390110649
0.22972275360711503,1317.7618920686307
0.23874067718606454,1174.2471143991331
0.2481126055137766,1073.2330072474947
0.25785243528842716,1013.9781766409898
0.26797460873256895,984.3828009389721
0.27849413500806414,962.0665769624244
0.28942661247167484,923.3703717057365
0.3007882518043098,856.3918438462188
0.31259590004822796,767.1335830122969
0.324867065587837,675.9936762912974
0.3376199441111335,604.1563709296645
0.35087344559027084,560.7935702577902
0.36464722232127456,538.3690273644462
0.37896169806447155,517.9411390914746
0.3938380983288488,483.91662424004477
0.4092984818452433,435.3046923042284
0.4253657732750382,386.55642386654796
0.44206379720285277,351.7126009627721
0.45941731346364734,331.43536879504256
0.47745205385661277,314.23585463112715
0.4961947603002895,289.633066047406
0.5156732244854959,260.01149080161025
0.5359163290848509,235.29144881911026
0.556954090580013,218.99509108673584
0.5788177037701272,204.70936417302113
0.6015395880274836,186.98845460473723
0.6251534353689703,169.00617897293094
0.6496942604146115,155.3240007346323
0.6751984523072497,144.02503769113858
0.7017038286703824,131.65196153916145
0.7292496916841444,119.65695058151292
0.7578768863625915,109.99362315194291
0.7876278611187046,101.04201791265776
0.8185467307069019,92.03287540197161
0.850679341636415,84.19065699257364
0.8840733401525058,77.20666525842088
0.9187782428863317,70.65764957164642
0.9548455102782278,64.54960453672378
0.9923286228832539,58.894474256039736
1.0312831606721837,53.69311904916764
1.0717668854455022,48.93756921129807
1.1138398264826193,44.60917741878653
1.1575643695533022,40.66885911641542
1.2030053494233226,37.07663522824574
1.2502301459914542,33.79743798820109
1.299308784200415,30.800443937546955
1.3503140378698726,28.05856436170752
1.4033215376054824,25.54971873157692
1.4584098829439835,23.25593028909572
1.5156607589006013,21.16046365419725
1.575159057091621,19.247638964367
1.6369930016117014,17.502799706866345
1.7012542798525885,15.91218723967569
1.7680381784572046,14.462603034009845
1.8374437246107238,13.141808660091955
1.9095738328780953,11.938609861614726
1.9845354578058014,10.842768512335086
2.0624397525140905,9.844923125020005
2.143402233514853,8.936556888691397
2.227542951999554,8.10992187737509
2.314986671851158,7.357913086104334
2.405863054644063,6.674014687786193
2.5003068519063225,6.052254328428173
2.598458104929248,5.487158016580736
2.7004623524206774,4.9737007643986715
2.806470846309834,4.507283919453606
2.916640776023701,4.083705757704757
3.031135501567576,3.6991285220471006
3.150124795755327,3.3500480828774246
3.2737850959485697,3.0332668486389074
3.4022997656780634,2.745867967557576
3.5358593665351745,2.4851902785345024
3.6746619407366854,2.248806633930767
3.8189133047818515,2.0345040698467667
3.968827354637162,1.8402654661008608
4.1246263829013445,1.6642523195033845
4.286541408420921,1.5047900112319696
4.4548125188449825,1.3603539302859247
4.629689226627261,1.229556448451026
4.811430839003257,1.1111349801907615
5.000306842491082,1.003940921200837
5.196597302486189,0.906929633966332
5.400593278542364,0.8191515020607115
5.612597255954967,0.7397435346966478
5.8329235942862,0.6679216718322695
6.06189899349756,0.6029737383337921
6.29986297838068,0.54425295685676
6.547168402004727,0.49117215671047426
6.804181968927091,0.4431984478344469
7.071284778942991,0.3998483198732429
7.348872892180382,0.36068317100945996
7.637357916378006,0.32530521474551627
7.937167617217536,0.2933537610956303
8.248746552614573,0.2645018593634353
8.572556731909314,0.238453210929721
8.909078300934132,0.21493935486586238
9.258810253973934,0.19371709315401364
9.622271173675122,0.17456609079796068
9.999999999999984,0.1572868362319473
