k [1/Mpc],P(k) [Mpc^3]
0.0001,320.95048098922115
0.00010392556829367125,332.58454693838905
0.00010800523745162529,344.6400553267207
0.00011224505680853065,357.1322627959356
0.00011665131316981963,370.07696208148514
0.00012123054013376525,383.49048923436527
0.00012598952777950273,397.38976580016094
0.00013093533273536104,411.79233630939785
0.00013607528864243335,426.71638506495805
0.00014141701702890234,442.1807413989001
0.00014696843861124463,458.2048851719475
0.00015273778503907136,474.80898928072924
0.00015873361110102093,492.0139521288718
0.00016496480740980205,509.84142324050606
0.0001714406135851971,528.313826260284
0.00017817063195457305,547.4543850826187
0.00018516484179121546,567.2871524796406
0.000192433614111598,587.8370161732684
0.00019998772705352857,609.1297161878081
0.0002078383818579757,631.1919040000112
0.00021599721947827182,654.0511888154278
0.0002244763378413224,677.7361646747526
0.0002332883097864157,702.2764063025998
0.00024244620170823283,727.7024592277132
0.0002519635929317015,754.0459319718966
0.0002618545958474233,781.3395853277173
0.0002721338768375308,809.6173645603967
0.0002828166780230032,838.9143769586153
0.0002939188398646886,869.266840653532
0.0003054568246515432,900.7122001128965
0.00031744774091091926,933.2891670888043
0.00032990936877709396,967.0377553205666
0.00034286018635565856,1001.9993469748549
0.00035631939712285854,1038.2167345799678
0.000370306958400514,1075.7341684042217
0.00038484361094874304,1114.5973257314777
0.0003999509097203664,1154.8532784364163
0.00041565125582259895,1196.5506517493495
0.00043196792973341727,1239.739664302681
0.0004489251258218605,1284.4721832158086
0.0004665479882234472,1330.8017176367784
0.000484862648123908,1378.7833176949778
0.000503896262506515,1428.4737679175914
0.0005236770544204653,1479.9316617113702
0.0005442343548300266,1533.217451138335
0.0005655986461065005,1588.3934440344576
0.0005878016072274912,1645.5235844530637
0.0006108761607505036,1704.6736811978105
0.0006348565216305217,1765.9114913985713
0.0006597782479539537,1829.3067296639936
0.0006856782936641739,1894.931145765382
0.0007125950633568407,1962.8582535025644
0.0007405684692262436,2033.1634995914528
0.0007696399902471156,2105.9244402410345
0.0007998527336796708,2181.220735887874
0.000831251498989063,2259.134217307019
0.0008638828442740447,2339.7484966247025
0.000897795155303332,2423.149016949632
0.0009330387172620361,2509.423327506686
0.0009696657893145519,2598.660856415098
0.001007730682094461,2690.9531243001693
0.0010472898382363582,2786.3934744116036
0.0010884019160690055,2885.076918048378
0.0011311278765939214,2987.100444692791
0.001175531073878369,3092.562493309467
0.0012216773489967915,3201.5632136593117
0.0012696351276599736,3314.204230154961
0.0013194755216767058,3430.5880474047185
0.0013712724343984,3550.818663999824
0.0014251026703029975,3675.00080351841
0.0014810460488806749,3803.2399979156407
0.0015391855229902056,3935.6425577286464
0.001599607301861487,4072.3142445383664
0.0016624009789266115,4213.361218986896
0.0017276596646690358,4358.889449254865
0.0017954801246878305,4509.004373415161
0.0018659629231817451,4663.811125169646
0.001939212572065829,4823.412707890009
0.0020153376859417325,4987.910780489131
0.002094451143151469,5157.404983243351
0.002176670253153458,5331.991729465297
0.002262116930469025,5511.765181847229
0.002350917875457286,5696.815196080636
0.002443204762186487,5887.2275782868355
0.0025391144336803463,6083.083859622231
0.002638789104828933,6284.459082792197
0.002742376573264949,6491.423133906139
0.0028500304385181063,6704.038898680111
0.0029619103297725525,6922.36167388951
0.0030781821425650787,7146.439457063496
0.003199018284775064,7376.309804336899
0.0033245979322709396,7612.001129258286
0.003455107294592217,7853.531509848241
0.0035907398910610534,8100.907194194794
0.0037316968377327513,8354.123264447742
0.0038781871456107214,8613.159830383269
0.0040304280305680515,8877.982786916815
0.00418864523543527,9148.543124994498
0.004353073364731888,9424.773874138558
0.00452395623253805,9706.591876436449
0.004701547224022131,9993.893341681729
0.004886109671160325,10286.55356218972
0.005077917243205399,10584.42759595891
0.005277254352483535,10887.344786310196
0.005484416576121017,11195.111936761175
0.005699711094326071,11507.509506823857
0.005923457145875801,11824.289362788315
0.006155986501483508,12145.177950311712
0.006397643955748424,12469.870792506072
0.0066487878384172625,12798.03479657978
0.0069097905457156435,13129.297417817124
0.007181039092537346,13463.232797171666
0.007462935686310132,13799.384108570359
0.007755898323389004,14137.300184577072
0.00806036140886134,14476.526300339347
0.008376776400682916,14816.534132592207
0.008705612479099857,15156.609978870445
0.009047357242349292,15495.968361868056
0.00940251742967013,15833.841930546829
0.009771619672696168,16169.49018499415
0.010155211276345676,16502.142460665647
0.010553861030365234,16830.991047184598
0.010968160052731372,17155.196218906316
0.011398722666160517,17473.83975626508
0.011846187309026826,17785.891132790322
0.012311217482038896,18090.27621809449
0.012794502732078732,18385.848216905422
0.013296759674662111,18671.40922249249
0.013818733056536317,18945.72052569009
0.014361196859990781,19207.479241272555
0.014924955450518284,19455.358089091504
0.015510844769528393,19687.97753570079
0.016119733573881575,19903.91780945778
0.01675252472408214,20101.740622031946
0.017410156523040152,20279.921535339334
0.018093604107387147,20436.92985187342
0.01880388089340914,20571.22079777193
0.019542040079740527,20681.2306428215
0.02030917620904734,20765.440072355348
0.021106426791015535,20822.32412699579
0.021934973989050584,20850.41262848762
0.02279604637318978,20848.312549297487
0.023690920741826323,20814.689726775836
0.02462092401494623,20748.347102972202
0.02558743520168586,20648.234364567492
0.02659188744512693,20513.473290358976
0.027635770147361564,20343.404749068046
0.028720631177978267,20137.640664234226
0.029848079169243254,19896.043210148375
0.03101978590138095,19618.842943380994
0.03223748878149028,19306.655180281185
0.0335029934197723,18960.408272001612
0.03481817630688963,18581.637051246682
0.03618498759642746,18172.214780496673
0.037605453996581675,17734.497710190957
0.03908168177536263,17271.509682075677
0.04061585988376978,16786.447076295382
0.04221026320156896,16283.313431610432
0.04386725591048496,15766.449999579925
0.0455892949998106,15240.294431078342
0.047378933909631396,14709.904266157162
0.049238826317067365,14180.0846162035
0.05117173007114603,13656.225725739803
0.05318051128214196,13144.056060635676
0.05526814857144601,12648.34679013612
0.057437737488265785,12172.232130690627
0.0596924950997073,11718.077926763022
0.0620357647610427,11289.49342146918
0.06447102107323864,10891.924741430825
0.06700187503509585,10529.113049659078
0.06963207939763882,10198.118607167178
0.0723655342286965,9894.101749774363
0.07520629269592405,9612.599194036133
0.07815856707684081,9349.40810251521
0.08122673500479707,9098.878987761786
0.08441534596012978,8854.218080287836
0.0877291280161335,8608.981245177409
0.09117299484984914,8356.64833075738
0.09475205302806537,8087.52371347116
0.09847160957933764,7792.219081302864
0.1023371798632519,7464.7099508178
0.10635449574860109,7103.949480168252
0.11052951411260206,6714.175993840384
0.1148684256737553,6305.04722327756
0.1193776641714435,5889.3268563254605
0.1240639159058831,5480.828263075466
0.12893412965257148,5093.055693538603
0.13399552696593373,4738.608227376176
0.1392556128874462,4427.900234174074
0.14472218707411338,4167.652603577171
0.15040335536380234,3958.4219834633354
0.15630754179458153,3792.8041103180008
0.16244350109588662,3656.649405879976
0.16882033167003618,3531.426437087412
0.17544748908334581,3397.962722111185
0.1823348000868439,3240.988729544633
0.189492477187382,3053.7226570745356
0.19693113379074215,2840.0309532872675
0.20466179993919872,2612.6755967138197
0.21269593866686892,2390.023203735961
0.22104546299710207,2192.2816936149657
0.22972275360711503,2034.1552848003705
0.23874067718606454,1916.799171302104
0.2481126055137766,1828.1769784404012
0.25785243528842716,1749.9086097857314
0.26797460873256895,1662.8509215808997
0.27849413500806414,1555.1998148665448
0.28942661247167484,1430.8952657327197
0.3007882518043098,1305.5500922264428
0.31259590004822796,1196.4214871132506
0.324867065587837,1112.793526554912
0.3376199441111335,1049.7077839180665
0.35087344559027084,993.063527416762
0.36464722232127456,928.9346953932838
0.37896169806447155,855.3568519758322
0.3938380983288488,782.3152915563977
0.4092984818452433,720.4707450392337
0.4253657732750382,672.09899141359
0.44206379720285277,629.3193889633083
0.45941731346364734,583.9574853363614
0.47745205385661277,536.3248789803562
0.4961947603002895,492.8623518194559
0.5156732244854959,456.69462864689115
0.5359163290848509,424.26111817570273
0.556954090580013,391.5744197457759
0.5788177037701272,359.77079361654563
0.6015395880274836,331.6473622255005
0.6251534353689703,306.62069800252766
0.6496942604146115,282.5302109174161
0.6751984523072497,259.68454256589666
0.7017038286703824,239.14747839662874
0.7292496916841444,220.26683770049587
0.7578768863625915,202.42796956251354
0.7876278611187046,186.04839587101566
0.8185467307069019,171.04753973627575
0.850679341636415,157.0676455604797
0.8840733401525058,144.20086589842722
0.9187782428863317,132.3639623519377
0.9548455102782278,121.43824538796272
0.9923286228832539,111.36272681580583
1.0312831606721837,102.07946805859527
1.0717668854455022,93.53338013807132
1.1138398264826193,85.67221061394186
1.1575643695533022,78.44549476002089
1.2030053494233226,71.80442652707016
1.2502301459914542,65.70362214455756
1.299308784200415,60.1010408762126
1.3503140378698726,54.957752791475436
1.4033215376054824,50.23776579394855
1.4584098829439835,45.90800962953224
1.5156607589006013,41.937902464764285
1.575159057091621,38.299079851881096
1.6369930016117014,34.96525239373742
1.7012542798525885,31.912069768634627
1.7680381784572046,29.11695453753929
1.8374437246107238,26.558986305834253
1.9095738328780953,24.218846706614027
1.9845354578058014,22.078709432092584
2.0624397525140905,20.122133105584894
2.143402233514853,18.333962440501807
2.227542951999554,16.700239131886914
2.314986671851158,15.208107556516195
2.405863054644063,13.845731129948645
2.5003068519063225,12.602216764212264
2.598458104929248,11.46754421995773
2.7004623524206774,10.432495732611747
2.806470846309834,9.488596382320491
2.916640776023701,8.628063537182728
3.031135501567576,7.843753510138633
3.150124795755327,7.129111715397084
3.2737850959485697,6.478126243895461
3.4022997656780634,5.885284504526055
3.5358593665351745,5.345534456845481
3.6746619407366854,4.854248089523437
3.8189133047818515,4.407187374590317
3.968827354637162,4.000472769906887
4.1246263829013445,3.6305535888455407
4.286541408420921,3.294181438931879
4.4548125188449825,2.9883861177683726
4.629689226627261,2.710452705382119
4.811430839003257,2.4579004261918316
5.000306842491082,2.228462965027153
5.196597302486189,2.0200701303830617
5.400593278542364,1.830832166018072
5.612597255954967,1.6590247020677646
5.8329235942862,1.5030747298675287
6.06189899349756,1.361547714471924
6.29986297838068,1.2331356832913114
6.547168402004727,1.11664642736094
6.804181968927091,1.0109936316853763
7.071284778942991,0.9151877328969334
7.348872892180382,0.8283275367200321
7.637357916378006,0.7495925015994443
7.937167617217536,0.6782356537043656
8.248746552614573,0.6135772629831986
8.572556731909314,0.5549989597774841
8.909078300934132,0.501938329341728
9.258810253973934,0.4538839548867417
9.622271173675122,0.41037074354729336
9.999999999999984,0.37097592034476384
