k [1/Mpc],P(k) [Mpc^3]
0.0001,198.21819647530256
0.00010392556829367125,204.8110499567435
0.00010800523745162529,211.62302653879948
0.00011224505680853065,218.66138661599948
0.00011665131316981963,225.93362921602284
0.00012123054013376525,233.44749868852963
0.00012598952777950273,241.2109942598924
0.00013093533273536104,249.2323856598767
0.00013607528864243335,257.5202224489781
0.00014141701702890234,266.08333157658956
0.00014696843861124463,274.93080308487515
0.00015273778503907136,284.0720151819868
0.00015873361110102093,293.5166613012837
0.00016496480740980205,303.27476716529526
0.0001714406135851971,313.3566873482143
0.00017817063195457305,323.7731036977687
0.00018516484179121546,334.5350401142062
0.000192433614111598,345.6538719453521
0.00019998772705352857,357.14132327927183
0.0002078383818579757,369.00949400987236
0.00021599721947827182,381.2708889667669
0.0002244763378413224,393.9384310259116
0.0002332883097864157,407.02545136833476
0.00024244620170823283,420.5456578379005
0.0002519635929317015,434.5131793795835
0.0002618545958474233,448.9426118784759
0.0002721338768375308,463.8490441242731
0.0002828166780230032,479.2480400735745
0.0002939188398646886,495.15557278983187
0.0003054568246515432,511.5880694417585
0.00031744774091091926,528.562490130422
0.00032990936877709396,546.0963854445731
0.00034286018635565856,564.2078615919648
0.00035631939712285854,582.9154972667822
0.000370306958400514,602.2383589339707
0.00038484361094874304,622.1960872908074
0.0003999509097203664,642.8089149422897
0.00041565125582259895,664.0976823444611
0.00043196792973341727,686.0838206638417
0.0004489251258218605,708.7893480211509
0.0004665479882234472,732.2369158510119
0.000484862648123908,756.4497500436487
0.000503896262506515,781.4516998569388
0.0005236770544204653,807.2672764505934
0.0005442343548300266,833.9216433711613
0.0005655986461065005,861.4406539805807
0.0005878016072274912,889.8507593300818
0.0006108761607505036,919.1790267845532
0.0006348565216305217,949.4532171473651
0.0006597782479539537,980.7017231927508
0.0006856782936641739,1012.9536393668668
0.0007125950633568407,1046.2387296685656
0.0007405684692262436,1080.5874029621484
0.0007696399902471156,1116.0307758425427
0.0007998527336796708,1152.6005103197394
0.000831251498989063,1190.3289007871997
0.0008638828442740447,1229.2488945737764
0.000897795155303332,1269.3939937752498
0.0009330387172620361,1310.7983675145763
0.0009696657893145519,1353.4967090173022
0.001007730682094461,1397.5242470406622
0.0010472898382363582,1442.9167763632067
0.0010884019160690055,1489.710373004365
0.0011311278765939214,1537.941601494402
0.001175531073878369,1587.647392705549
0.0012216773489967915,1638.8649384243768
0.0012696351276599736,1691.6318098450313
0.0013194755216767058,1745.985457490065
0.0013712724343984,1801.9634170635952
0.0014251026703029975,1859.6032671274972
0.0014810460488806749,1918.9422726065482
0.0015391855229902056,1980.0176892103354
0.001599607301861487,2042.8662351231997
0.0016624009789266115,2107.52409649088
0.0017276596646690358,2174.0270419453022
0.0017954801246878305,2242.4097504521287
0.0018659629231817451,2312.7062129905016
0.001939212572065829,2384.9492099277622
0.0020153376859417325,2459.169970412213
0.002094451143151469,2535.398598677006
0.002176670253153458,2613.6632794200136
0.002262116930469025,2693.990523156994
0.002350917875457286,2776.4047007704467
0.002443204762186487,2860.927080755494
0.0025391144336803463,2947.5766763092474
0.002638789104828933,3036.369476126126
0.002742376573264949,3127.3183962113867
0.0028500304385181063,3220.433217245459
0.0029619103297725525,3315.719263331962
0.0030781821425650787,3413.178155570811
0.003199018284775064,3512.8070002253617
0.0033245979322709396,3614.5978652850363
0.003455107294592217,3718.538320899108
0.0035907398910610534,3824.6101806157044
0.0037316968377327513,3932.7898648782902
0.0038781871456107214,4043.047814838942
0.0040304280305680515,4155.347321171507
0.00418864523543527,4269.645462683829
0.004353073364731888,4385.891794716124
0.00452395623253805,4504.028373061834
0.004701547224022131,4623.9896412889975
0.004886109671160325,4745.700367081064
0.005077917243205399,4869.077036978724
0.005277254352483535,4994.026348722317
0.005484416576121017,5120.444535218797
0.005699711094326071,5248.218411239949
0.005923457145875801,5377.2221955312825
0.006155986501483508,5507.319221679903
0.006397643955748424,5638.361977884761
0.0066487878384172625,5770.190859133153
0.0069097905457156435,5902.635059491162
0.007181039092537346,6035.50395756382
0.007462935686310132,6168.5895093617555
0.007755898323389004,6301.6772835475385
0.00806036140886134,6434.559482612711
0.008376776400682916,6567.021038275613
0.008705612479099857,6698.7939560592795
0.009047357242349292,6829.549743711726
0.00940251742967013,6958.947789881671
0.009771619672696168,7086.666493080063
0.010155211276345676,7212.385399876967
0.010553861030365234,7335.777873452824
0.010968160052731372,7456.514975658101
0.011398722666160517,7574.257738109236
0.011846187309026826,7688.620311146771
0.012311217482038896,7799.183878564591
0.012794502732078732,7905.517117290255
0.013296759674662111,8007.167572471514
0.013818733056536317,8103.674816652331
0.014361196859990781,8194.56407036909
0.014924955450518284,8279.347651059385
0.015510844769528393,8357.536395592491
0.016119733573881575,8428.630500234853
0.01675252472408214,8492.132028944592
0.017410156523040152,8547.533980440838
0.018093604107387147,8594.309098734415
0.01880388089340914,8631.942565104026
0.019542040079740527,8659.924294709042
0.02030917620904734,8677.760483002103
0.021106426791015535,8684.980700967693
0.021934973989050584,8681.127668451049
0.02279604637318978,8665.781528258356
0.023690920741826323,8638.563391628453
0.02462092401494623,8599.141006718051
0.02558743520168586,8547.242446087355
0.02659188744512693,8482.66992901706
0.027635770147361564,8405.297456624103
0.028720631177978267,8315.096403460238
0.029848079169243254,8212.153493406011
0.03101978590138095,8096.642947910047
0.03223748878149028,7968.9040649468825
0.0335029934197723,7829.394944426988
0.03481817630688963,7678.694691068826
0.03618498759642746,7517.595675436318
0.037605453996581675,7346.9626009371095
0.03908168177536263,7167.880616905171
0.04061585988376978,6981.611599338358
0.04221026320156896,6789.440957546613
0.04386725591048496,6592.83977407376
0.0455892949998106,6393.270471669868
0.047378933909631396,6192.388557934223
0.049238826317067365,5992.150237169378
0.05117173007114603,5794.284861342375
0.05318051128214196,5599.805638523702
0.05526814857144601,5409.334819308474
0.057437737488265785,5223.970508042696
0.0596924950997073,5046.100700697261
0.0620357647610427,4877.92148252751
0.06447102107323864,4719.73304238894
0.06700187503509585,4570.387042564903
0.06963207939763882,4428.686589215711
0.0723655342286965,4293.194866247924
0.07520629269592405,4162.491701320392
0.07815856707684081,4034.877881623355
0.08122673500479707,3908.6362593654053
0.08441534596012978,3782.012313901132
0.0877291280161335,3653.30834991934
0.09117299484984914,3520.7167999604553
0.09475205302806537,3382.436658108875
0.09847160957933764,3236.4596402661477
0.1023371798632519,3082.082313726206
0.10635449574860109,2920.554093626
0.11052951411260206,2754.936905621633
0.1148684256737553,2589.3083664143164
0.1193776641714435,2428.1274531399545
0.1240639159058831,2275.361982875008
0.12893412965257148,2134.227999981058
0.13399552696593373,2007.1120596306455
0.1392556128874462,1895.4809022372485
0.14472218707411338,1799.1248034816747
0.15040335536380234,1715.823643884109
0.15630754179458153,1641.2887983643016
0.16244350109588662,1570.0261624772472
0.16882033167003618,1496.8140572226791
0.17544748908334581,1417.9239887128372
0.1823348000868439,1332.1864389213488
0.189492477187382,1241.492651353133
0.19693113379074215,1150.0969583900103
0.20466179993919872,1062.9598346858243
0.21269593866686892,984.5482282466935
0.22104546299710207,918.0001714507894
0.22972275360711503,863.4072722053822
0.23874067718606454,816.9320556725764
0.2481126055137766,773.1036199351115
0.25785243528842716,727.5694572958943
0.26797460873256895,678.2174367204336
0.27849413500806414,626.5311198902882
0.28942661247167484,576.8745299656777
0.3007882518043098,532.9127161505263
0.31259590004822796,496.0379318923747
0.324867065587837,464.61941550492816
0.3376199441111335,434.9882532970874
0.35087344559027084,404.57510402757276
0.36464722232127456,373.35319445158956
0.37896169806447155,343.73763891803816
0.3938380983288488,317.7110736731904
0.4092984818452433,295.13200434641067
0.4253657732750382,274.2178519941902
0.44206379720285277,253.58025050822482
0.45941731346364734,233.5046357972977
0.47745205385661277,215.20681415562564
0.4961947603002895,198.8916722441279
0.5156732244854959,183.80763126496637
0.5359163290848509,169.354029032895
0.556954090580013,155.8149103248732
0.5788177037701272,143.5073592022447
0.6015395880274836,132.195377995018
0.6251534353689703,121.59398026940559
0.6496942604146115,111.74286732218368
0.6751984523072497,102.71659826423026
0.7017038286703824,94.37424521888829
0.7292496916841444,86.63208851669694
0.7578768863625915,79.50333838838971
0.7876278611187046,72.93508756755683
0.8185467307069019,66.86999945743726
0.850679341636415,61.28578477251566
0.8840733401525058,56.14606845981611
0.9187782428863317,51.413043795351655
0.9548455102782278,47.059824607820154
0.9923286228832539,43.058537886185874
1.0312831606721837,39.38231942621911
1.0717668854455022,36.00620823903018
1.1138398264826193,32.9070251837138
1.1575643695533022,30.06325807084933
1.2030053494233226,27.45498901112072
1.2502301459914542,25.06383096203729
1.299308784200415,22.872728392928497
1.3503140378698726,20.865856976636763
1.4033215376054824,19.0285460166665
1.4584098829439835,17.347204367957026
1.5156607589006013,15.809238353901472
1.575159057091621,14.402984650596851
1.6369930016117014,13.117668117509199
1.7012542798525885,11.943341836122183
1.7680381784572046,10.8708289284546
1.8374437246107238,9.891667676294839
1.9095738328780953,8.998056429467553
1.9845354578058014,8.182807750007072
2.0624397525140905,7.439307623492222
2.143402233514853,6.761472968136574
2.227542951999554,6.143711836612569
2.314986671851158,5.580886185629631
2.405863054644063,5.068276420119845
2.5003068519063225,4.601550170904576
2.598458104929248,4.176732998761131
2.7004623524206774,3.790180483252821
2.806470846309834,3.4385523133419102
2.916640776023701,3.1187880277614957
3.031135501567576,2.828084046281751
3.150124795755327,2.5638741444284707
3.2737850959485697,2.3238106469760744
3.4022997656780634,2.105746665220838
3.5358593665351745,1.9077196899431457
3.6746619407366854,1.7279362681921497
3.8189133047818515,1.5647578428460494
3.968827354637162,1.4166883855711894
4.1246263829013445,1.282362562724444
4.286541408420921,1.1605347524044352
4.4548125188449825,1.0500689359220743
4.629689226627261,0.9499292316936314
4.811430839003257,0.8591713503971524
5.000306842491082,0.7769350549663375
5.196597302486189,0.7024369450222937
5.400593278542364,0.6349638115041081
5.612597255954967,0.5738665379977397
5.8329235942862,0.518554429391272
6.06189899349756,0.46849014703755043
6.29986297838068,0.4231851185537206
6.547168402004727,0.38219523720855564
6.804181968927091,0.3451169245508749
7.071284778942991,0.3115835308178637
7.348872892180382,0.28126204870688926
7.637357916378006,0.2538501015775947
7.937167617217536,0.2290731938351773
8.248746552614573,0.20668220384148123
8.572556731909314,0.18645109548407163
8.909078300934132,0.16817480351462769
9.258810253973934,0.1516672488165954
9.622271173675122,0.13675972963752075
9.999999999999984,0.12329936989393839
