k [1/Mpc],P(k) [Mpc^3]
0.0001,198.21818987085842
0.00010392556829367125,204.81105394088144
0.00010800523745162529,211.6230409441172
0.00011224505680853065,218.66140226136707
0.00011665131316981963,225.93363430632505
0.00012123054013376525,233.4474921613371
0.00012598952777950273,241.21098742628055
0.00013093533273536104,249.2323867674656
0.00013607528864243335,257.5202234582443
0.00014141701702890234,266.08331100026044
0.00014696843861124463,274.9307521643963
0.00015273778503907136,284.0719481072945
0.00015873361110102093,293.51660028863904
0.00016496480740980205,303.2747200700751
0.0001714406135851971,313.35664621102825
0.00017817063195457305,323.7730594531621
0.00018516484179121546,334.534990313761
0.000192433614111598,345.6538146168016
0.00019998772705352857,357.14125645096277
0.0002078383818579757,369.0094186618832
0.00021599721947827182,381.2708092685745
0.0002244763378413224,393.93834809092715
0.0002332883097864157,407.0253576955922
0.00024244620170823283,420.54555341487827
0.0002519635929317015,434.5130835509328
0.0002618545958474233,448.9425464353096
0.0002721338768375308,463.8490043733568
0.0002828166780230032,479.24798639205295
0.0002939188398646886,495.1554659943077
0.0003054568246515432,511.58790626576393
0.00031744774091091926,528.5623027167245
0.00032990936877709396,546.0962051581153
0.00034286018635565856,564.2076977835418
0.00035631939712285854,582.9153148255211
0.000370306958400514,602.2381099783777
0.00038484361094874304,622.1957303429854
0.0003999509097203664,642.8084518452181
0.00041565125582259895,664.0971606039436
0.00043196792973341727,686.083271205381
0.0004489251258218605,708.7887652550348
0.0004665479882234472,732.23625737448
0.000484862648123908,756.448992235675
0.000503896262506515,781.4508758264059
0.0005236770544204653,807.2664108076235
0.0005442343548300266,833.920697029337
0.0005655986461065005,861.4395203535985
0.0005878016072274912,889.8493532489917
0.0006108761607505036,919.1773797136954
0.0006348565216305217,949.4513982978779
0.0006597782479539537,980.699741703441
0.0006856782936641739,1012.9514400647873
0.0007125950633568407,1046.2362025198172
0.0007405684692262436,1080.584444215385
0.0007696399902471156,1116.0272620468454
0.0007998527336796708,1152.5963358033696
0.000831251498989063,1190.3240402446693
0.0008638828442740447,1229.2432988497512
0.000897795155303332,1269.387585858945
0.0009330387172620361,1310.7910277928593
0.0009696657893145519,1353.488261260849
0.001007730682094461,1397.514536172521
0.0010472898382363582,1442.9055584828693
0.0010884019160690055,1489.6973757550184
0.0011311278765939214,1537.9265622482437
0.001175531073878369,1587.6299743652266
0.0012216773489967915,1638.8448487936623
0.0012696351276599736,1691.6086588037992
0.0013194755216767058,1745.9587557013485
0.0013712724343984,1801.932717933687
0.0014251026703029975,1859.5679980714945
0.0014810460488806749,1918.901933523205
0.0015391855229902056,1979.9717597654264
0.001599607301861487,2042.8139665165513
0.0016624009789266115,2107.464730359764
0.0017276596646690358,2173.9595998262475
0.0017954801246878305,2242.333289125847
0.0018659629231817451,2312.6198712560936
0.001939212572065829,2384.8519181524616
0.0020153376859417325,2459.060851434109
0.002094451143151469,2535.2767085262053
0.002176670253153458,2613.5275636510546
0.002262116930469025,2693.839988030131
0.002350917875457286,2776.2380877012415
0.002443204762186487,2860.743603118712
0.0025391144336803463,2947.3758979212416
0.002638789104828933,3036.150877978969
0.002742376573264949,3127.081679026737
0.0028500304385181063,3220.177890947265
0.0029619103297725525,3315.4452584507258
0.0030781821425650787,3412.8859091002564
0.003199018284775064,3512.4968383148457
0.0033245979322709396,3614.2705884317525
0.003455107294592217,3718.1948383059253
0.0035907398910610534,3824.2516933871484
0.0037316968377327513,3932.4181314502707
0.0038781871456107214,4042.6642915889292
0.0040304280305680515,4154.953842165551
0.00418864523543527,4269.244118744445
0.004353073364731888,4385.485121835345
0.00452395623253805,4503.6200399684385
0.004701547224022131,4623.583535363571
0.004886109671160325,4745.301576524846
0.005077917243205399,4868.692096569833
0.005277254352483535,4993.663375181368
0.005484416576121017,5120.114943154558
0.005699711094326071,5247.936094079045
0.005923457145875801,5377.004898709851
0.006155986501483508,5507.189816927429
0.006397643955748424,5638.347901979069
0.0066487878384172625,5770.325629625248
0.0069097905457156435,5902.95467690183
0.007181039092537346,6036.045496883947
0.007462935686310132,6169.3972582909555
0.007755898323389004,6302.816216753484
0.00806036140886134,6436.112445278147
0.008376776400682916,6569.0699024993255
0.008705612479099857,6701.397344660357
0.009047357242349292,6832.775364575539
0.00940251742967013,6962.89744589531
0.009771619672696168,7091.476791019218
0.010155211276345676,7218.219397457486
0.010553861030365234,7342.824758794432
0.010968160052731372,7464.985371724558
0.011398722666160517,7584.3692141420315
0.011846187309026826,7700.60482922107
0.012311217482038896,7813.30884056485
0.012794502732078732,7922.0823591210765
0.013296759674662111,8026.515501827033
0.013818733056536317,8126.190091816813
0.014361196859990781,8220.673156317633
0.014924955450518284,8309.5282806889
0.015510844769528393,8392.314621522488
0.016119733573881575,8468.58929127113
0.01675252472408214,8537.90981927228
0.017410156523040152,8599.815904026289
0.018093604107387147,8653.849668720293
0.01880388089340914,8699.560215539119
0.019542040079740527,8736.5033297249
0.02030917620904734,8764.253350428484
0.021106426791015535,8782.398455907793
0.021934973989050584,8790.549611372147
0.02279604637318978,8788.348751687887
0.023690920741826323,8775.47113579406
0.02462092401494623,8751.632297784414
0.02558743520168586,8716.602185460086
0.02659188744512693,8670.20656730962
0.027635770147361564,8612.331196025212
0.028720631177978267,8542.953438342169
0.029848079169243254,8462.115429284135
0.03101978590138095,8369.959706785374
0.03223748878149028,8266.740468600015
0.0335029934197723,8152.781817659735
0.03481817630688963,8028.5680694431185
0.03618498759642746,7894.669547879072
0.037605453996581675,7751.758665379849
0.03908168177536263,7600.673223424566
0.04061585988376978,7442.2851155903145
0.04221026320156896,7277.625069922522
0.04386725591048496,7107.808176491352
0.0455892949998106,6933.946299893502
0.047378933909631396,6757.227209300774
0.049238826317067365,6578.797259819014
0.05117173007114603,6399.858940641423
0.05318051128214196,6221.662495829252
0.05526814857144601,6045.258894000921
0.057437737488265785,5871.083957736088
0.0596924950997073,5699.35710219441
0.0620357647610427,5530.650604812084
0.06447102107323864,5366.1053318112245
0.06700187503509585,5206.5893387435335
0.06963207939763882,5050.890857225153
0.0723655342286965,4896.810298007084
0.07520629269592405,4742.773781587768
0.07815856707684081,4588.174161659936
0.08122673500479707,4432.571669597536
0.08441534596012978,4275.483065481053
0.0877291280161335,4116.479461344628
0.09117299484984914,3955.10004932504
0.09475205302806537,3790.905314293219
0.09847160957933764,3623.2796277029734
0.1023371798632519,3452.485440054143
0.10635449574860109,3280.6110776950172
0.11052951411260206,3110.626666898817
0.1148684256737553,2945.8698064819096
0.1193776641714435,2789.0629525108475
0.1240639159058831,2641.9529380773156
0.12893412965257148,2505.314767166601
0.13399552696593373,2379.2375320435717
0.1392556128874462,2263.1662207852582
0.14472218707411338,2155.4156888600587
0.15040335536380234,2053.2629717517375
0.15630754179458153,1953.2860731115857
0.16244350109588662,1852.7090981295141
0.16882033167003618,1750.1317015956183
0.17544748908334581,1645.9094630208267
0.1823348000868439,1542.0557236932245
0.189492477187382,1441.6917323575774
0.19693113379074215,1347.7586595926316
0.20466179993919872,1261.9019042387208
0.21269593866686892,1184.4504761545402
0.22104546299710207,1114.6338382546958
0.22972275360711503,1050.0220184980867
0.23874067718606454,987.3273617189793
0.2481126055137766,924.8476325457965
0.25785243528842716,862.8233006530701
0.26797460873256895,802.483702459698
0.27849413500806414,746.0895801151215
0.28942661247167484,695.0590085031798
0.3007882518043098,648.6550938105152
0.31259590004822796,605.6017149042247
0.324867065587837,564.4519065785114
0.3376199441111335,524.5130675161137
0.35087344559027084,486.3959887878453
0.36464722232127456,450.98222398985683
0.37896169806447155,418.5609405924501
0.3938380983288488,388.53856877524004
0.4092984818452433,360.24040554192925
0.4253657732750382,333.41821048136535
0.44206379720285277,308.36407774176377
0.45941731346364734,285.16594370741717
0.47745205385661277,263.7008803538458
0.4961947603002895,243.60056882782382
0.5156732244854959,224.8516378389063
0.5359163290848509,207.43673725239023
0.556954090580013,191.31504971662613
0.5788177037701272,176.33188451890288
0.6015395880274836,162.41608349082466
0.6251534353689703,149.5397865060277
0.6496942604146115,137.61171385931138
0.6751984523072497,126.56691497467332
0.7017038286703824,116.35533394612708
0.7292496916841444,106.9142574287806
0.7578768863625915,98.1888631385659
0.7876278611187046,90.1336853402929
0.8185467307069019,82.70173620120518
0.850679341636415,75.84682782943221
0.8840733401525058,69.52973296437199
0.9187782428863317,63.71135964713426
0.9548455102782278,58.35584341987631
0.9923286228832539,53.42851329097448
1.0312831606721837,48.89683381429791
1.0717668854455022,44.73123880922033
1.1138398264826193,40.904195373537384
1.1575643695533022,37.39002237064184
1.2030053494233226,34.16478882988869
1.2502301459914542,31.206209673172207
1.299308784200415,28.493490646760385
1.3503140378698726,26.00728509224954
1.4033215376054824,23.729657419415446
1.4584098829439835,21.64399211551135
1.5156607589006013,19.73490657731758
1.575159057091621,17.98817188291291
1.6369930016117014,16.39064386984331
1.7012542798525885,14.930175607395139
1.7680381784572046,13.595544900975158
1.8374437246107238,12.376390586482376
1.9095738328780953,11.263152446854704
1.9845354578058014,10.247007617248283
2.0624397525140905,9.319815323004686
2.143402233514853,8.474081850759712
2.227542951999554,7.702914048616224
2.314986671851158,6.999974342138075
2.405863054644063,6.359438904807494
2.5003068519063225,5.775959913540837
2.598458104929248,5.244628286602758
2.7004623524206774,4.760938604175765
2.806470846309834,4.320757858593635
2.916640776023701,3.9202964534882834
3.031135501567576,3.556080784224816
3.150124795755327,3.224926515812356
3.2737850959485697,2.923917960679618
3.4022997656780634,2.6503873930445465
3.5358593665351745,2.4018949240423666
3.6746619407366854,2.1762099096682332
3.8189133047818515,1.9712936067114941
3.968827354637162,1.785283233920733
4.1246263829013445,1.6164777983524212
4.286541408420921,1.463324648659805
4.4548125188449825,1.3244070370249177
4.629689226627261,1.1984326628785926
4.811430839003257,1.0842229867088116
5.000306842491082,0.9807036404980263
5.196597302486189,0.8868957070648404
5.400593278542364,0.8019075296380238
5.612597255954967,0.7249271884794624
5.8329235942862,0.6552155701200221
6.06189899349756,0.5920999095245925
6.29986297838068,0.5349681621565864
6.547168402004727,0.4832637565613266
6.804181968927091,0.4364807081837271
7.071284778942991,0.3941591484764691
7.348872892180382,0.35588122376614706
7.637357916378006,0.32126734608387286
7.937167617217536,0.2899728093232214
8.248746552614573,0.26168466936715085
8.572556731909314,0.23611888992045232
8.909078300934132,0.21301773351214232
9.258810253973934,0.19214730414549308
9.622271173675122,0.17329541413788516
9.999999999999984,0.15626970866285433
