k [1/Mpc],P(k) [Mpc^3]
0.0001,47.9406558968415
0.00010392556829367125,49.96570621290033
0.00010800523745162529,52.07621576611424
0.00011224505680853065,54.27577912429906
0.00011665131316981963,56.5681408721156
0.00012123054013376525,58.95720319346825
0.00012598952777950273,61.447032959200335
0.00013093533273536104,64.0418666825813
0.00013607528864243335,66.74611296572898
0.00014141701702890234,69.5643617477687
0.00014696843861124463,72.50139470713465
0.00015273778503907136,75.56219434055045
0.00015873361110102093,78.75195041122271
0.00016496480740980205,82.0760639340559
0.0001714406135851971,85.54015647967559
0.00017817063195457305,89.15008103080805
0.00018516484179121546,92.91192856771855
0.000192433614111598,96.8320401419322
0.00019998772705352857,100.91701666944368
0.0002078383818579757,105.17372908835503
0.00021599721947827182,109.60932829160815
0.0002244763378413224,114.23124607718195
0.0002332883097864157,119.0472123046011
0.00024244620170823283,124.06527099177997
0.0002519635929317015,129.29379298909885
0.0002618545958474233,134.74148643950195
0.0002721338768375308,140.41739123969876
0.0002828166780230032,146.33089716325864
0.0002939188398646886,152.49176762760933
0.0003054568246515432,158.91015318440836
0.00031744774091091926,165.59660601906893
0.00032990936877709396,172.56207680718836
0.00034286018635565856,179.81792764410142
0.00035631939712285854,187.37595779272084
0.000370306958400514,195.2483998074734
0.00038484361094874304,203.4479486414552
0.0003999509097203664,211.98777477330293
0.00041565125582259895,220.88153413055903
0.00043196792973341727,230.14339240852885
0.0004489251258218605,239.78800957374702
0.0004665479882234472,249.83056968912294
0.000484862648123908,260.2867942675685
0.000503896262506515,271.17292709809675
0.0005236770544204653,282.5057844963631
0.0005442343548300266,294.3027532776983
0.0005655986461065005,306.5818087212241
0.0005878016072274912,319.36153396488805
0.0006108761607505036,332.66108670238765
0.0006348565216305217,346.5002519015681
0.0006597782479539537,360.8994190257761
0.0006856782936641739,375.87957384778014
0.0007125950633568407,391.4623601672816
0.0007405684692262436,407.67005731351924
0.0007696399902471156,424.5256118074577
0.0007998527336796708,442.052596765643
0.000831251498989063,460.27514007043214
0.0008638828442740447,479.2180303444637
0.000897795155303332,498.9066732941082
0.0009330387172620361,519.3671087414465
0.0009696657893145519,540.6259933803832
0.001007730682094461,562.7104523088836
0.0010472898382363582,585.6482008430888
0.0010884019160690055,609.46743144019
0.0011311278765939214,634.1967719213401
0.001175531073878369,659.8653524244085
0.0012216773489967915,686.5025623114511
0.0012696351276599736,714.1381648733798
0.0013194755216767058,742.8021862841094
0.0013712724343984,772.5247422038311
0.0014251026703029975,803.3361774049246
0.0014810460488806749,835.2666975933054
0.0015391855229902056,868.3464271606285
0.001599607301861487,902.6054528060354
0.0016624009789266115,938.0736082878186
0.0017276596646690358,974.7805331639486
0.0017954801246878305,1012.755224704999
0.0018659629231817451,1052.025932516854
0.001939212572065829,1092.6202516190046
0.0020153376859417325,1134.564575283383
0.002094451143151469,1177.8842939629606
0.002176670253153458,1222.6035992818368
0.002262116930469025,1268.745233439284
0.002350917875457286,1316.330502514141
0.002443204762186487,1365.378592350361
0.0025391144336803463,1415.906649602968
0.002638789104828933,1467.9296850201094
0.002742376573264949,1521.46014875864
0.0028500304385181063,1576.507996413001
0.0029619103297725525,1633.080018781627
0.0030781821425650787,1691.179703895649
0.003199018284775064,1750.8072754405168
0.0033245979322709396,1811.9591850131567
0.003455107294592217,1874.6281248701664
0.0035907398910610534,1938.8023093849229
0.0037316968377327513,2004.4650661892488
0.0038781871456107214,2071.5950898174124
0.0040304280305680515,2140.1657707842132
0.00418864523543527,2210.145234511041
0.004353073364731888,2281.495966347358
0.00452395623253805,2354.17425611843
0.004701547224022131,2428.1303891905864
0.004886109671160325,2503.3076178155425
0.005077917243205399,2579.6422165342883
0.005277254352483535,2657.0641291687953
0.005484416576121017,2735.4974665072764
0.005699711094326071,2814.859500836737
0.005923457145875801,2895.0556295235456
0.006155986501483508,2975.978810859453
0.006397643955748424,3057.517920114222
0.0066487878384172625,3139.575721108929
0.0069097905457156435,3222.0558080746
0.007181039092537346,3304.827170064599
0.007462935686310132,3387.705012976808
0.007755898323389004,3470.492769418272
0.00806036140886134,3553.018790505218
0.008376776400682916,3635.1222411259528
0.008705612479099857,3716.638440218432
0.009047357242349292,3797.4024761836745
0.00940251742967013,3877.244267224136
0.009771619672696168,3955.9697546546213
0.010155211276345676,4033.363394024305
0.010553861030365234,4109.202808574762
0.010968160052731372,4183.259021661345
0.011398722666160517,4255.298115090479
0.011846187309026826,4325.0848578224
0.012311217482038896,4392.38453807492
0.012794502732078732,4456.9600574987835
0.013296759674662111,4518.56627718314
0.013818733056536317,4576.955111433464
0.014361196859990781,4631.877526104505
0.014924955450518284,4683.082410501043
0.015510844769528393,4730.321785156785
0.016119733573881575,4773.3510036084845
0.01675252472408214,4811.930914691654
0.017410156523040152,4845.829404286978
0.018093604107387147,4874.819828437541
0.01880388089340914,4898.6863039329555
0.019542040079740527,4917.226590608341
0.02030917620904734,4930.2538596768145
0.021106426791015535,4937.598946810009
0.021934973989050584,4939.115302887736
0.02279604637318978,4934.678028303259
0.023690920741826323,4924.188920445263
0.02462092401494623,4907.581102769073
0.02558743520168586,4884.814314432261
0.02659188744512693,4855.890993973648
0.027635770147361564,4820.848589822414
0.028720631177978267,4779.7611877231475
0.029848079169243254,4732.758257065109
0.03101978590138095,4679.998962669422
0.03223748878149028,4621.694171313346
0.0335029934197723,4558.100039019976
0.03481817630688963,4489.500255517125
0.03618498759642746,4416.238908088878
0.037605453996581675,4338.68160478329
0.03908168177536263,4257.214631498145
0.04061585988376978,4172.247063149592
0.04221026320156896,4084.192243500181
0.04386725591048496,3993.5031389039123
0.0455892949998106,3900.640225935481
0.047378933909631396,3805.9830552406206
0.049238826317067365,3709.7597695325444
0.05117173007114603,3612.200977290726
0.05318051128214196,3513.82349765952
0.05526814857144601,3415.3172778265666
0.057437737488265785,3317.0897367150174
0.0596924950997073,3218.6988692513
0.0620357647610427,3119.5920573389644
0.06447102107323864,3019.490803816593
0.06700187503509585,2918.3908051691096
0.06963207939763882,2816.4313358260215
0.0723655342286965,2714.354438706795
0.07520629269592405,2613.0439613111985
0.07815856707684081,2512.9249154377467
0.08122673500479707,2413.743871447704
0.08441534596012978,2315.2782698538917
0.0877291280161335,2217.790460989408
0.09117299484984914,2121.77931052276
0.09475205302806537,2027.8797982185342
0.09847160957933764,1937.0412738667558
0.1023371798632519,1849.894496566938
0.10635449574860109,1766.027561109105
0.11052951411260206,1684.8870466199476
0.1148684256737553,1606.3558610623982
0.1193776641714435,1530.441866087016
0.1240639159058831,1457.0887540689282
0.12893412965257148,1386.0315150306315
0.13399552696593373,1316.5806020066157
0.1392556128874462,1248.3279393975342
0.14472218707411338,1181.3006141805631
0.15040335536380234,1116.163054217343
0.15630754179458153,1053.8249077088547
0.16244350109588662,994.9895481768054
0.16882033167003618,939.3796854639155
0.17544748908334581,886.3201254401147
0.1823348000868439,835.6265301841589
0.189492477187382,787.5771770445502
0.19693113379074215,741.540443728523
0.20466179993919872,697.1852338362012
0.21269593866686892,654.7625682892527
0.22104546299710207,614.5802784632742
0.22972275360711503,576.4298221396599
0.23874067718606454,540.4171616428414
0.2481126055137766,506.4643813658915
0.25785243528842716,474.2666462030978
0.26797460873256895,443.7637376654587
0.27849413500806414,414.87368512945864
0.28942661247167484,387.67961829279716
0.3007882518043098,362.03928208671704
0.31259590004822796,337.89989704876956
0.324867065587837,315.18402713797195
0.3376199441111335,293.8037899210309
0.35087344559027084,273.71422531503936
0.36464722232127456,254.85279407087447
0.37896169806447155,237.15267198647538
0.3938380983288488,220.55838581296905
0.4092984818452433,205.008337971504
0.4253657732750382,190.44698568811415
0.44206379720285277,176.82862119904456
0.45941731346364734,164.0908284171728
0.47745205385661277,152.19166248788437
0.4961947603002895,141.08677941454764
0.5156732244854959,130.72870704163395
0.5359163290848509,121.07449049815123
0.556954090580013,112.08374621169364
0.5788177037701272,103.71681889641646
0.6015395880274836,95.93438498597128
0.6251534353689703,88.69873397531371
0.6496942604146115,81.97441732689914
0.6751984523072497,75.72667355421414
0.7017038286703824,69.92412034420182
0.7292496916841444,64.5381671099521
0.7578768863625915,59.54149344010699
0.7876278611187046,54.908258182000345
0.8185467307069019,50.61697779980457
0.850679341636415,46.64422409245282
0.8840733401525058,42.968694530204175
0.9187782428863317,39.56990763988892
0.9548455102782278,36.427000362886815
0.9923286228832539,33.52124476727701
1.0312831606721837,30.8356935663903
1.0717668854455022,28.354909810610252
1.1138398264826193,26.06482639061042
1.1575643695533022,23.952608066389473
1.2030053494233226,22.005185852193062
1.2502301459914542,20.20988252962837
1.299308784200415,18.55508373733407
1.3503140378698726,17.030421462148908
1.4033215376054824,15.62627085283211
1.4584098829439835,14.333653483995377
1.5156607589006013,13.14420074036862
1.575159057091621,12.050116446637121
1.6369930016117014,11.044113313861379
1.7012542798525885,10.119399138548992
1.7680381784572046,9.269675709069825
1.8374437246107238,8.489106448992986
1.9095738328780953,7.772285086097073
1.9845354578058014,7.114206016690475
2.0624397525140905,6.510236009575853
2.143402233514853,5.956089233503071
2.227542951999554,5.447803235208198
2.314986671851158,4.981716087910716
2.405863054644063,4.554445009428017
2.5003068519063225,4.162866433907267
2.598458104929248,3.8040973516715466
2.7004623524206774,3.475477723821359
2.806470846309834,3.1745541957726817
2.916640776023701,2.8990649212206754
3.031135501567576,2.646925470077221
3.150124795755327,2.41621628646938
3.2737850959485697,2.205169946685369
3.4022997656780634,2.012159155922879
3.5358593665351745,1.8356861994124898
3.6746619407366854,1.6743731436948486
3.8189133047818515,1.5269521025896662
3.968827354637162,1.3922550413644137
4.1246263829013445,1.2692086938612113
4.286541408420921,1.1568279314690344
4.4548125188449825,1.054208750651494
4.629689226627261,0.9605218079819045
4.811430839003257,0.8750071352341386
5.000306842491082,0.7969687402905011
5.196597302486189,0.7257682072917742
5.400593278542364,0.6608200075345652
5.612597255954967,0.6015872876136285
5.8329235942862,0.5475779171460862
6.06189899349756,0.4983403159833225
6.29986297838068,0.4534606177402411
6.547168402004727,0.41256008349815393
6.804181968927091,0.37529220216871484
7.071284778942991,0.3413400149454858
7.348872892180382,0.3104137296281984
7.637357916378006,0.28224862952526614
7.937167617217536,0.2566026946084791
8.248746552614573,0.23325463575803776
8.572556731909314,0.21200216931343674
8.909078300934132,0.19266042721572862
9.258810253973934,0.17506035695001554
9.622271173675122,0.15904738041634822
9.999999999999984,0.14448040502962015
