k [1/Mpc],P(k) [Mpc^3]
0.0001,225.86203734240783
0.00010392556829367125,235.39218810352443
0.00010800523745162529,245.32322185203066
0.00011224505680853065,255.6718425489315
0.00011665131316981963,266.45542723270785
0.00012123054013376525,277.6920592008882
0.00012598952777950273,289.4005558408899
0.00013093533273536104,301.6004948856299
0.00013607528864243335,314.3122450940423
0.00014141701702890234,327.55696160197414
0.00014696843861124463,341.3566287988369
0.00015273778503907136,355.7341083849454
0.00015873361110102093,370.713166282595
0.00016496480740980205,386.31851148478273
0.0001714406135851971,402.5757824969647
0.00017817063195457305,419.51157818348014
0.00018516484179121546,437.15352994960267
0.000192433614111598,455.53031869085254
0.00019998772705352857,474.6717268031117
0.0002078383818579757,494.60862715835685
0.00021599721947827182,515.3729802979425
0.0002244763378413224,536.9979389331897
0.0002332883097864157,559.5178497457554
0.00024244620170823283,582.9683092716433
0.0002519635929317015,607.3861685453624
0.0002618545958474233,632.8094655248635
0.0002721338768375308,659.2775689366096
0.0002828166780230032,686.8311519236332
0.0002939188398646886,715.512225776227
0.0003054568246515432,745.3642100997624
0.00031744774091091926,776.431830573213
0.00032990936877709396,808.7612477407353
0.00034286018635565856,842.3999846643345
0.00035631939712285854,877.3968590458459
0.000370306958400514,913.8021687861822
0.00038484361094874304,951.6675787453514
0.0003999509097203664,991.0462017887974
0.00041565125582259895,1031.9925625532903
0.00043196792973341727,1074.5623900992066
0.0004489251258218605,1118.812849189043
0.0004665479882234472,1164.802349809152
0.000484862648123908,1212.5905449469624
0.000503896262506515,1262.238433047234
0.0005236770544204653,1313.808086120701
0.0005442343548300266,1367.3628154014143
0.0005655986461065005,1422.9669803283398
0.0005878016072274912,1480.6858111366923
0.0006108761607505036,1540.5855798818109
0.0006348565216305217,1602.7330892369755
0.0006597782479539537,1667.1958057128413
0.0006856782936641739,1734.041807989891
0.0007125950633568407,1803.339384969557
0.0007405684692262436,1875.1572404031936
0.0007696399902471156,1949.5637152319164
0.0007998527336796708,2026.6266848750147
0.000831251498989063,2106.413672857153
0.0008638828442740447,2188.9907963824085
0.000897795155303332,2274.4232354364444
0.0009330387172620361,2362.7744521041195
0.0009696657893145519,2454.105533829667
0.001007730682094461,2548.475654642795
0.0010472898382363582,2645.9404389087517
0.0010884019160690055,2746.5522974319897
0.0011311278765939214,2850.359929295135
0.001175531073878369,2957.4067957292004
0.0012216773489967915,3067.73205602656
0.0012696351276599736,3181.369614577737
0.0013194755216767058,3298.3477678549407
0.0013712724343984,3418.6884763677385
0.0014251026703029975,3542.404283974302
0.0014810460488806749,3669.499889864772
0.0015391855229902056,3799.972585219334
0.001599607301861487,3933.811828438971
0.0016624009789266115,4070.9982361899793
0.0017276596646690358,4211.50146697567
0.0017954801246878305,4355.280437922065
0.0018659629231817451,4502.282156791306
0.001939212572065829,4652.43946828896
0.0020153376859417325,4805.6725962279
0.002094451143151469,4961.88857651121
0.002176670253153458,5120.980781036101
0.002262116930469025,5282.828947923694
0.002350917875457286,5447.299573507725
0.002443204762186487,5614.244710072724
0.0025391144336803463,5783.499638419412
0.002638789104828933,5954.881913153129
0.002742376573264949,6128.1928113185995
0.0028500304385181063,6303.2170363318255
0.0029619103297725525,6479.722624152061
0.0030781821425650787,6657.460555764352
0.003199018284775064,6836.164317537904
0.0033245979322709396,7015.550637166066
0.003455107294592217,7195.321249082798
0.0035907398910610534,7375.162808792921
0.0037316968377327513,7554.744896270697
0.0038781871456107214,7733.716969078944
0.0040304280305680515,7911.712208833757
0.00418864523543527,8088.352384525029
0.004353073364731888,8263.249492050527
0.00452395623253805,8435.995026928258
0.004701547224022131,8606.11563719641
0.004886109671160325,8773.102887683397
0.005077917243205399,8936.508584587564
0.005277254352483535,9096.022782703314
0.005484416576121017,9251.329468182572
0.005699711094326071,9401.795921679735
0.005923457145875801,9546.560950565494
0.006155986501483508,9684.823385860598
0.006397643955748424,9816.062024065695
0.0066487878384172625,9939.821790612164
0.0069097905457156435,10055.648873701284
0.007181039092537346,10163.091752600909
0.007462935686310132,10261.687773262704
0.007755898323389004,10350.840424371316
0.00806036140886134,10429.912027032686
0.008376776400682916,10498.262016840692
0.008705612479099857,10555.23503661342
0.009047357242349292,10600.196546378269
0.00940251742967013,10632.523307924965
0.009771619672696168,10651.617207963543
0.010155211276345676,10656.900747314348
0.010553861030365234,10647.772803526377
0.010968160052731372,10623.674358468385
0.011398722666160517,10584.06035926026
0.011846187309026826,10528.406818161482
0.012311217482038896,10456.246820108601
0.012794502732078732,10367.06481666694
0.013296759674662111,10260.404827583008
0.013818733056536317,10135.87691582003
0.014361196859990781,9993.130922772807
0.014924955450518284,9831.948708595755
0.015510844769528393,9652.162477909202
0.016119733573881575,9453.720984164114
0.01675252472408214,9236.717838880706
0.017410156523040152,9001.30502279251
0.018093604107387147,8747.839084838308
0.01880388089340914,8476.839430001362
0.019542040079740527,8189.005127401768
0.02030917620904734,7885.28732653677
0.021106426791015535,7566.831702222375
0.021934973989050584,7235.031167424302
0.02279604637318978,6891.555238651047
0.023690920741826323,6538.33465525771
0.02462092401494623,6177.519239477985
0.02558743520168586,5811.582719017374
0.02659188744512693,5443.163870754156
0.027635770147361564,5075.08711144993
0.028720631177978267,4710.550127857486
0.029848079169243254,4352.576564899798
0.03101978590138095,4004.2886027045
0.03223748878149028,3668.68452996721
0.0335029934197723,3348.4807351894538
0.03481817630688963,3047.184545307356
0.03618498759642746,2767.52910679827
0.037605453996581675,2511.3016235248456
0.03908168177536263,2279.5818324325533
0.04061585988376978,2072.6818317760003
0.04221026320156896,1891.3619482827569
0.04386725591048496,1736.0882995829318
0.0455892949998106,1606.610264281329
0.047378933909631396,1502.31879297166
0.049238826317067365,1422.5598967500584
0.05117173007114603,1365.536945102946
0.05318051128214196,1328.9162646779557
0.05526814857144601,1310.4081705789008
0.057437737488265785,1305.8637720991117
0.0596924950997073,1311.2167398095048
0.0620357647610427,1323.0454544187278
0.06447102107323864,1337.7578303471219
0.06700187503509585,1348.1229532601428
0.06963207939763882,1345.1338459599915
0.0723655342286965,1322.6404032018283
0.07520629269592405,1277.063684450537
0.07815856707684081,1207.8953818584296
0.08122673500479707,1116.7683233113785
0.08441534596012978,1007.237327051978
0.0877291280161335,885.284092861199
0.09117299484984914,760.314981417115
0.09475205302806537,643.3722344424597
0.09847160957933764,540.2878440576415
0.1023371798632519,458.8530353914056
0.10635449574860109,403.5062858187191
0.11052951411260206,371.4968022896351
0.1148684256737553,359.60278243110673
0.1193776641714435,363.7983935752913
0.1240639159058831,377.83221457621033
0.12893412965257148,394.06125844060017
0.13399552696593373,403.36442393219113
0.1392556128874462,396.59207728720617
0.14472218707411338,368.78472291734045
0.15040335536380234,323.7409940403359
0.15630754179458153,272.2024879070041
0.16244350109588662,224.43531177975143
0.16882033167003618,188.02962581976612
0.17544748908334581,167.44497934573067
0.1823348000868439,161.31472034772014
0.189492477187382,164.16592870384355
0.19693113379074215,168.9446982237314
0.20466179993919872,167.74508148286063
0.21269593866686892,155.93505482845723
0.22104546299710207,135.82226035229587
0.22972275360711503,114.43626645257169
0.23874067718606454,98.96382310075236
0.2481126055137766,91.30100045950046
0.25785243528842716,89.36472918794709
0.26797460873256895,88.25630641577516
0.27849413500806414,83.39198750288372
0.28942661247167484,74.5031196949326
0.3007882518043098,65.01924529234125
0.31259590004822796,58.501344656949506
0.324867065587837,55.108365356675996
0.3376199441111335,52.63108762255528
0.35087344559027084,48.79952679250615
0.36464722232127456,43.83783682725019
0.37896169806447155,39.51877913511913
0.3938380983288488,36.59854807545899
0.4092984818452433,34.19373377200659
0.4253657732750382,31.388708809878743
0.44206379720285277,28.487983922068544
0.45941731346364734,26.103540102271833
0.47745205385661277,24.12558030528153
0.4961947603002895,22.13879910162499
0.5156732244854959,20.21110179708874
0.5359163290848509,18.539966974600254
0.556954090580013,17.028350843460455
0.5788177037701272,15.582061997464999
0.6015395880274836,14.26574018931212
0.6251534353689703,13.076807773881926
0.6496942604146115,11.967371298133761
0.6751984523072497,10.952338114614498
0.7017038286703824,10.025372704311653
0.7292496916841444,9.169649909845173
0.7578768863625915,8.385325786201777
0.7876278611187046,7.66741387913512
0.8185467307069019,7.01008385676676
0.850679341636415,6.408057787645432
0.8840733401525058,5.856553101575659
0.9187782428863317,5.3512330772371
0.9548455102782278,4.888249607012937
0.9923286228832539,4.464223676509548
1.0312831606721837,4.076038605436457
1.0717668854455022,3.720806666842354
1.1138398264826193,3.3958546899600686
1.1575643695533022,3.098709410449795
1.2030053494233226,2.8270639876023913
1.2502301459914542,2.5787731225240083
1.299308784200415,2.351867410187758
1.3503140378698726,2.14454038222173
1.4033215376054824,1.9551352742186605
1.4584098829439835,1.7821332412585331
1.5156607589006013,1.6241461857712511
1.575159057091621,1.4799031648889551
1.6369930016117014,1.348237448442921
1.7012542798525885,1.2280782645083417
1.7680381784572046,1.1184432269430657
1.8374437246107238,1.0184311587772634
1.9095738328780953,0.9272147567384029
1.9845354578058014,0.844035636847802
2.0624397525140905,0.7681992757872106
2.143402233514853,0.6990697862069695
2.227542951999554,0.6360651030270456
2.314986671851158,0.5786525459259669
2.405863054644063,0.5263447267648949
2.5003068519063225,0.47869582018768164
2.598458104929248,0.43529811623084474
2.7004623524206774,0.3957788438221013
2.806470846309834,0.3597972509246124
2.916640776023701,0.3270419169687483
3.031135501567576,0.2972282840110986
3.150124795755327,0.2700964048077046
3.2737850959485697,0.2454088650481661
3.4022997656780634,0.22294887444804923
3.5358593665351745,0.2025185148390616
3.6746619407366854,0.18393711730539808
3.8189133047818515,0.16703978816553175
3.968827354637162,0.15167608603125232
4.1246263829013445,0.13770878269537526
4.286541408420921,0.12501272556752502
4.4548125188449825,0.1134737950773579
4.629689226627261,0.10298793810757428
4.811430839003257,0.09346030106314475
5.000306842491082,0.08480444494961475
5.196597302486189,0.07694161244610107
5.400593278542364,0.06980005698299338
5.612597255954967,0.0633144294489377
5.8329235942862,0.05742521902569664
6.06189899349756,0.05207823893873073
6.29986297838068,0.04722415666454545
6.547168402004727,0.04281806611860115
6.804181968927091,0.03881909685037686
7.071284778942991,0.03519005551418825
7.348872892180382,0.0318970933235793
7.637357916378006,0.028909417367595388
7.937167617217536,0.026199022199590354
8.248746552614573,0.023740440943386083
8.572556731909314,0.0215105182745515
8.909078300934132,0.019488202727981612
9.258810253973934,0.017654356674956448
9.622271173675122,0.015991586731875118
9.999999999999984,0.01448408727825347
