k [1/Mpc],P(k) [Mpc^3]
0.0001,69.07020528637473
0.00010392556829367125,71.98850841516455
0.00010800523745162529,75.03005681469152
0.00011224505680853065,78.20004360922869
0.00011665131316981963,81.50388237066127
0.00012123054013376525,84.947218471039
0.00012598952777950273,88.5359350415904
0.00013093533273536104,92.27615929993291
0.00013607528864243335,96.17427385330404
0.00014141701702890234,100.23692916498092
0.00014696843861124463,104.4710547102525
0.00015273778503907136,108.88387051169217
0.00015873361110102093,113.4828962514631
0.00016496480740980205,118.27596360347499
0.0001714406135851971,123.27123205717201
0.00017817063195457305,128.4772041427904
0.00018516484179121546,133.90273844941444
0.000192433614111598,139.55705807435717
0.00019998772705352857,145.44976223002433
0.0002078383818579757,151.59084945402682
0.00021599721947827182,157.99074001908764
0.0002244763378413224,164.66029089631638
0.0002332883097864157,171.61080452188048
0.00024244620170823283,178.85403724882016
0.0002519635929317015,186.4022293858159
0.0002618545958474233,194.2681264010543
0.0002721338768375308,202.4649994564021
0.0002828166780230032,211.006661648337
0.0002939188398646886,219.9074735434812
0.0003054568246515432,229.18237871012838
0.00031744774091091926,238.846939615388
0.00032990936877709396,248.91736533971397
0.00034286018635565856,259.4105209880112
0.00035631939712285854,270.3439071538382
0.000370306958400514,281.73570968347866
0.00038484361094874304,293.60485364025163
0.0003999509097203664,305.97104116690605
0.00041565125582259895,318.85476473860047
0.00043196792973341727,332.2772898814673
0.0004489251258218605,346.2606950717887
0.0004665479882234472,360.8279265951076
0.000484862648123908,376.0028213067085
0.000503896262506515,391.8101470061905
0.0005236770544204653,408.27559566088235
0.0005442343548300266,425.4258087268641
0.0005655986461065005,443.2884484626468
0.0005878016072274912,461.89222637957903
0.0006108761607505036,481.2669450553362
0.0006348565216305217,501.44347686847834
0.0006597782479539537,522.4537495370437
0.0006856782936641739,544.3308609684634
0.0007125950633568407,567.109100757594
0.0007405684692262436,590.8239966773767
0.0007696399902471156,615.5123343392942
0.0007998527336796708,641.2121353591656
0.000831251498989063,667.9627517178507
0.0008638828442740447,695.8048178305006
0.000897795155303332,724.7802836975218
0.0009330387172620361,754.932506060887
0.0009696657893145519,786.3062016947571
0.001007730682094461,818.9475409334269
0.0010472898382363582,852.9040910572629
0.0010884019160690055,888.2247810983616
0.0011311278765939214,924.9600438787872
0.001175531073878369,963.1617037959288
0.0012216773489967915,1002.8830672927745
0.0012696351276599736,1044.178867744992
0.0013194755216767058,1087.1050725879693
0.0013712724343984,1131.7191237884872
0.0014251026703029975,1178.079745258477
0.0014810460488806749,1226.2469715915806
0.0015391855229902056,1276.282179094455
0.001599607301861487,1328.2476903690597
0.0016624009789266115,1382.2070633840026
0.0017276596646690358,1438.2249006801812
0.0017954801246878305,1496.3667203902683
0.0018659629231817451,1556.699088858554
0.001939212572065829,1619.2890448916362
0.0020153376859417325,1684.2043225958919
0.002094451143151469,1751.513182131651
0.002176670253153458,1821.2839910426371
0.002262116930469025,1893.5855143403764
0.002350917875457286,1968.486211789421
0.002443204762186487,2046.0542581739999
0.0025391144336803463,2126.3574857241642
0.002638789104828933,2209.4625461089413
0.002742376573264949,2295.4353279953366
0.0028500304385181063,2384.3403149144438
0.0029619103297725525,2476.240266946386
0.0030781821425650787,2571.1962853243326
0.003199018284775064,2669.2665584130123
0.0033245979322709396,2770.5067265504554
0.003455107294592217,2874.969427427591
0.0035907398910610534,2982.703587546722
0.0037316968377327513,3093.754589779552
0.0038781871456107214,3208.162742801794
0.0040304280305680515,3325.9633392080586
0.00418864523543527,3447.186537043736
0.004353073364731888,3571.8563124725974
0.00452395623253805,3699.9906169556293
0.004701547224022131,3831.5996956392037
0.004886109671160325,3966.685617952075
0.005077917243205399,4105.242488675785
0.005277254352483535,4247.254743067635
0.005484416576121017,4392.697525995938
0.005699711094326071,4541.535030739407
0.005923457145875801,4693.7191999550205
0.006155986501483508,4849.190657908641
0.006397643955748424,5007.8766778885865
0.0066487878384172625,5169.691407152049
0.0069097905457156435,5334.531553691143
0.007181039092537346,5502.269852430555
0.007462935686310132,5672.763256233319
0.007755898323389004,5845.869400553832
0.00806036140886134,6021.443697178779
0.008376776400682916,6199.311111923821
0.008705612479099857,6379.218234075796
0.009047357242349292,6560.875177757093
0.00940251742967013,6743.993960839349
0.009771619672696168,6928.295486679895
0.010155211276345676,7113.483622430156
0.010553861030365234,7299.2453707098775
0.010968160052731372,7485.2498686717045
0.011398722666160517,7671.130126262518
0.011846187309026826,7856.466485967341
0.012311217482038896,8040.812922259523
0.012794502732078732,8223.692476493765
0.013296759674662111,8404.600971775559
0.013818733056536317,8583.009030463532
0.014361196859990781,8758.354417566754
0.014924955450518284,8930.053196140145
0.015510844769528393,9097.498117718835
0.016119733573881575,9260.060632855424
0.01675252472408214,9417.093109977613
0.017410156523040152,9567.90814668293
0.018093604107387147,9711.80002507981
0.01880388089340914,9848.049550313657
0.019542040079740527,9975.923615621416
0.02030917620904734,10094.688765004514
0.021106426791015535,10203.606201312576
0.021934973989050584,10301.942536863518
0.02279604637318978,10388.980197988596
0.023690920741826323,10464.021407957754
0.02462092401494623,10526.397879934146
0.02558743520168586,10575.489705230419
0.02659188744512693,10610.729604890594
0.027635770147361564,10631.610743386076
0.028720631177978267,10637.7290846182
0.029848079169243254,10628.754436571935
0.03101978590138095,10604.479022765247
0.03223748878149028,10564.837346986431
0.0335029934197723,10509.858615121755
0.03481817630688963,10439.788234232503
0.03618498759642746,10354.999767104371
0.037605453996581675,10256.021497430884
0.03908168177536263,10143.627259995956
0.04061585988376978,10018.669879626326
0.04221026320156896,9882.253318415353
0.04386725591048496,9735.640865300356
0.0455892949998106,9580.140139479587
0.047378933909631396,9417.214270839877
0.049238826317067365,9248.322688979599
0.05117173007114603,9075.0581247813
0.05318051128214196,8899.139275706428
0.05526814857144601,8722.058632415672
0.057437737488265785,8544.466076521381
0.0596924950997073,8366.716432461444
0.0620357647610427,8189.699102012329
0.06447102107323864,8015.183279065932
0.06700187503509585,7844.5878496014175
0.06963207939763882,7676.218568128554
0.0723655342286965,7506.805605035611
0.07520629269592405,7333.931376834013
0.07815856707684081,7156.602045591096
0.08122673500479707,6974.053611120478
0.08441534596012978,6785.428016215452
0.0877291280161335,6589.926210784584
0.09117299484984914,6386.67202845657
0.09475205302806537,6174.7960771921835
0.09847160957933764,5953.11231603127
0.1023371798632519,5721.85201984066
0.10635449574860109,5484.310753070841
0.11052951411260206,5245.389474634336
0.1148684256737553,5010.786983884602
0.1193776641714435,4785.344960699493
0.1240639159058831,4572.382482057826
0.12893412965257148,4373.632772601619
0.13399552696593373,4189.6752459322815
0.1392556128874462,4019.9583443330457
0.14472218707411338,3861.879174136031
0.15040335536380234,3710.8616177401964
0.15630754179458153,3560.8901758302673
0.16244350109588662,3406.924441482272
0.16882033167003618,3246.2991730549757
0.17544748908334581,3079.543148414603
0.1823348000868439,2910.3348564034154
0.189492477187382,2744.592314337924
0.19693113379074215,2588.0943679125467
0.20466179993919872,2444.309041667506
0.21269593866686892,2314.24837372606
0.22104546299710207,2196.7863707728243
0.22972275360711503,2087.4522510083516
0.23874067718606454,1979.8936306578103
0.2481126055137766,1870.73993263356
0.25785243528842716,1760.465968455233
0.26797460873256895,1651.598699839328
0.27849413500806414,1548.8944644904102
0.28942661247167484,1455.5095901857158
0.3007882518043098,1370.1552196417965
0.31259590004822796,1290.344202003001
0.324867065587837,1213.1317369576661
0.3376199441111335,1137.1031811988482
0.35087344559027084,1063.6434954244423
0.36464722232127456,994.7823464326434
0.37896169806447155,931.3006063140089
0.3938380983288488,872.0228504518731
0.4092984818452433,815.5464355382071
0.4253657732750382,761.3916839970385
0.44206379720285277,710.3054300461265
0.45941731346364734,662.5849309784078
0.47745205385661277,618.042040842991
0.4961947603002895,575.9002647189571
0.5156732244854959,536.2009477096724
0.5359163290848509,498.97609114854913
0.556954090580013,464.200645956521
0.5788177037701272,431.5687564769882
0.6015395880274836,400.96893108749424
0.6251534353689703,372.3925527423997
0.6496942604146115,345.6703874694469
0.6751984523072497,320.69302112746215
0.7017038286703824,297.3843797617179
0.7292496916841444,275.63224478129536
0.7578768863625915,255.3401867075402
0.7876278611187046,236.4321929468904
0.8185467307069019,218.82485561420356
0.850679341636415,202.4333150631244
0.8840733401525058,187.18785539044572
0.9187782428863317,173.01610162257003
0.9548455102782278,159.8514356555201
0.9923286228832539,147.62768932285834
1.0312831606721837,136.2818476260417
1.0717668854455022,125.75658696809893
1.1138398264826193,115.99792274438006
1.1575643695533022,106.95488493002098
1.2030053494233226,98.57940268652618
1.2502301459914542,90.82617095302697
1.299308784200415,83.65235691416066
1.3503140378698726,77.01761850341806
1.4033215376054824,70.88414042737796
1.4584098829439835,65.21650451498036
1.5156607589006013,59.98156146354194
1.575159057091621,55.148316961555146
1.6369930016117014,50.68784065021179
1.7012542798525885,46.573109366892474
1.7680381784572046,42.77888671265206
1.8374437246107238,39.28162164770201
1.9095738328780953,36.059350970616535
1.9845354578058014,33.09158308907558
2.0624397525140905,30.35920072420269
2.143402233514853,27.84442303077746
2.227542951999554,25.530725864839642
2.314986671851158,23.40276116398633
2.405863054644063,21.446281074095726
2.5003068519063225,19.648070438156537
2.598458104929248,17.995875946032957
2.7004623524206774,16.478337762641097
2.806470846309834,15.084929675161856
2.916640776023701,13.805902845047251
3.031135501567576,12.632231131176933
3.150124795755327,11.555555024074238
3.2737850959485697,10.568143739971953
3.4022997656780634,9.662854218491923
3.5358593665351745,8.833089208311538
3.6746619407366854,8.072758072637265
3.8189133047818515,7.376239496234522
3.968827354637162,6.738346879747446
4.1246263829013445,6.154298027796447
4.286541408420921,5.619685472304069
4.4548125188449825,5.130448620412537
4.629689226627261,4.6828477908083785
4.811430839003257,4.2734394730108765
5.000306842491082,3.8990542325855135
5.196597302486189,3.5567765577861556
5.400593278542364,3.2439254386161434
5.612597255954967,2.958036320291375
5.8329235942862,2.696844245852003
6.06189899349756,2.45826779817421
6.29986297838068,2.240395417395235
6.547168402004727,2.0414723707559337
6.804181968927091,1.8598883588949093
7.071284778942991,1.6941660547805155
7.348872892180382,1.5429504584056506
7.637357916378006,1.4049990610428256
7.937167617217536,1.2791729476518856
8.248746552614573,1.1644284623373973
8.572556731909314,1.0598094959739817
8.909078300934132,0.9644403568246964
9.258810253973934,0.8775188472554398
9.622271173675122,0.7983103675152065
9.999999999999984,0.7261428132548595
