k [1/Mpc],P(k) [Mpc^3]
0.0001,134.53752261378315
0.00010392556829367125,140.6197779224834
0.00010800523745162529,146.9762628196283
0.00011224505680853065,153.6192494924733
0.00011665131316981963,160.56153439494162
0.00012123054013376525,167.81647449726395
0.00012598952777950273,175.39801746423902
0.00013093533273536104,183.32072643600478
0.00013607528864243335,191.5997942563711
0.00014141701702890234,200.2510441553169
0.00014696843861124463,209.29097847915676
0.00015273778503907136,218.7368125657888
0.00015873361110102093,228.60650409645046
0.00016496480740980205,238.91877948175124
0.0001714406135851971,249.69313587534165
0.00017817063195457305,260.9498897694666
0.00018516484179121546,272.7102014030729
0.000192433614111598,284.99608965754055
0.00019998772705352857,297.8304925770841
0.0002078383818579757,311.23729198826453
0.00021599721947827182,325.2413544782789
0.0002244763378413224,339.86854626554043
0.0002332883097864157,355.1457077641305
0.00024244620170823283,371.10075020027233
0.0002519635929317015,387.76267042885075
0.0002618545958474233,405.16158672439917
0.0002721338768375308,423.3287885181649
0.0002828166780230032,442.29669678111026
0.0002939188398646886,462.0989565853368
0.0003054568246515432,482.7704420861344
0.00031744774091091926,504.3472582618161
0.00032990936877709396,526.8668302563702
0.00034286018635565856,550.3678142348831
0.00035631939712285854,574.8901873808474
0.000370306958400514,600.4752915625033
0.00038484361094874304,627.165789558585
0.0003999509097203664,655.005772438564
0.00041565125582259895,684.0406324042783
0.00043196792973341727,714.3171043492035
0.0004489251258218605,745.8833507191619
0.0004665479882234472,778.788822144035
0.000484862648123908,813.0843985455774
0.000503896262506515,848.8223031601686
0.0005236770544204653,886.0560606042868
0.0005442343548300266,924.8405925345112
0.0005655986461065005,965.2319683304316
0.0005878016072274912,1007.2875310429747
0.0006108761607505036,1051.0658381489322
0.0006348565216305217,1096.6264919273087
0.0006597782479539537,1144.0302764751636
0.0006856782936641739,1193.3387973959152
0.0007125950633568407,1244.614517684007
0.0007405684692262436,1297.9207050119685
0.0007696399902471156,1353.3209491215537
0.0007998527336796708,1410.8794367245011
0.000831251498989063,1470.6604533431907
0.0008638828442740447,1532.7282051713903
0.000897795155303332,1597.146897975711
0.0009330387172620361,1663.9797819492708
0.0009696657893145519,1733.289510729783
0.001007730682094461,1805.1376343002948
0.0010472898382363582,1879.583993102787
0.0010884019160690055,1956.6870284281279
0.0011311278765939214,2036.5024034616067
0.001175531073878369,2119.083182779677
0.0012216773489967915,2204.4797488372415
0.0012696351276599736,2292.7389375600715
0.0013194755216767058,2383.904201924294
0.0013712724343984,2478.014079021594
0.0014251026703029975,2575.101874933307
0.0014810460488806749,2675.195741097698
0.0015391855229902056,2778.3170414394413
0.001599607301861487,2884.480860380563
0.0016624009789266115,2993.6966565481584
0.0017276596646690358,3105.968091235885
0.0017954801246878305,3221.2908978957366
0.0018659629231817451,3339.6475948657658
0.001939212572065829,3461.009447552137
0.0020153376859417325,3585.338944135973
0.002094451143151469,3712.5904735627955
0.002176670253153458,3842.707985138112
0.002262116930469025,3975.6227444279452
0.002350917875457286,4111.253186419473
0.002443204762186487,4249.50593769367
0.0025391144336803463,4390.276755156029
0.002638789104828933,4533.448726118144
0.002742376573264949,4678.890541257121
0.0028500304385181063,4826.455996506354
0.0029619103297725525,4975.984568205246
0.0030781821425650787,5127.301291165003
0.003199018284775064,5280.21645894489
0.0033245979322709396,5434.525431927262
0.003455107294592217,5590.008548727822
0.0035907398910610534,5746.430762459996
0.0037316968377327513,5903.539091837037
0.0038781871456107214,6061.0638486601265
0.0040304280305680515,6218.723887761529
0.00418864523543527,6376.232792413037
0.004353073364731888,6533.290338569251
0.00452395623253805,6689.550107001368
0.004701547224022131,6844.623140696703
0.004886109671160325,6998.136956185302
0.005077917243205399,7149.844729351735
0.005277254352483535,7299.52846412368
0.005484416576121017,7446.757152197485
0.005699711094326071,7590.813381599601
0.005923457145875801,7730.984081513204
0.006155986501483508,7866.894911206154
0.006397643955748424,7998.323479350476
0.0066487878384172625,8124.9156146898695
0.0069097905457156435,8246.034904745822
0.007181039092537346,8361.020321589853
0.007462935686310132,8469.431741965966
0.007755898323389004,8570.987081921248
0.00806036140886134,8665.355822160433
0.008376776400682916,8752.005959151658
0.008705612479099857,8830.370588564767
0.009047357242349292,8899.869156538285
0.00940251742967013,8959.910520127207
0.009771619672696168,9009.933587391552
0.010155211276345676,9049.464403644863
0.010553861030365234,9078.079145008656
0.010968160052731372,9095.324116943246
0.011398722666160517,9100.68156866841
0.011846187309026826,9093.668623985981
0.012311217482038896,9073.849878853145
0.012794502732078732,9040.845016707855
0.013296759674662111,8994.29850142176
0.013818733056536317,8933.828802373682
0.014361196859990781,8859.11713699389
0.014924955450518284,8769.90973646025
0.015510844769528393,8666.0293658004
0.016119733573881575,8547.382120687573
0.01675252472408214,8413.910605974983
0.017410156523040152,8265.65706385331
0.018093604107387147,8102.780552974682
0.01880388089340914,7925.55944537605
0.019542040079740527,7734.404730616562
0.02030917620904734,7529.865966029883
0.021106426791015535,7312.626698994728
0.021934973989050584,7083.548799721304
0.02279604637318978,6843.709024323993
0.023690920741826323,6594.302784103598
0.02462092401494623,6336.773931577672
0.02558743520168586,6072.713019333642
0.02659188744512693,5803.829817818704
0.027635770147361564,5532.164631179124
0.028720631177978267,5259.714757386623
0.029848079169243254,4988.616199348662
0.03101978590138095,4721.069206885807
0.03223748878149028,4459.149528135625
0.0335029934197723,4205.454034403184
0.03481817630688963,3962.336157058325
0.03618498759642746,3731.748427755747
0.037605453996581675,3515.349451994946
0.03908168177536263,3314.3364131618027
0.04061585988376978,3129.610306018737
0.04221026320156896,2961.777725899195
0.04386725591048496,2811.2302789804294
0.0455892949998106,2678.3191290387354
0.047378933909631396,2563.212879274751
0.049238826317067365,2465.003967613627
0.05117173007114603,2382.097270054167
0.05318051128214196,2312.5635466549084
0.05526814857144601,2252.293690683366
0.057437737488265785,2197.031979163648
0.0596924950997073,2143.9057659236096
0.0620357647610427,2091.2465133928486
0.06447102107323864,2035.809657470401
0.06700187503509585,1971.2447710179806
0.06963207939763882,1892.7857718628638
0.0723655342286965,1799.3204323921454
0.07520629269592405,1692.0243246751822
0.07815856707684081,1574.6243549865922
0.08122673500479707,1451.03343988675
0.08441534596012978,1325.060612378547
0.0877291280161335,1201.3019177724598
0.09117299484984914,1085.664117155145
0.09475205302806537,985.4802976624107
0.09847160957933764,902.1153332672576
0.1023371798632519,837.0263341392591
0.10635449574860109,793.4680123489619
0.11052951411260206,765.4460833780444
0.1148684256737553,746.3236491210574
0.1193776641714435,730.0615801496397
0.1240639159058831,710.0986296918308
0.12893412965257148,682.06415547584
0.13399552696593373,643.2242412141076
0.1392556128874462,593.0411264911555
0.14472218707411338,535.3365994478423
0.15040335536380234,478.64786152417906
0.15630754179458153,430.4949274891453
0.16244350109588662,393.34657286561094
0.16882033167003618,367.6507611233492
0.17544748908334581,351.6707286987729
0.1823348000868439,339.1516031088041
0.189492477187382,324.20176855252856
0.19693113379074215,304.2774113639585
0.20466179993919872,279.4810325327776
0.21269593866686892,253.27411011839385
0.22104546299710207,229.85340763660588
0.22972275360711503,211.8666623214497
0.23874067718606454,198.99907122609952
0.2481126055137766,187.84401090121935
0.25785243528842716,176.08203007976184
0.26797460873256895,162.61228986191472
0.27849413500806414,148.8599824231942
0.28942661247167484,136.66581333876152
0.3007882518043098,126.74437600878538
0.31259590004822796,118.16586486091992
0.324867065587837,109.66947747406087
0.3376199441111335,101.10379593921989
0.35087344559027084,93.03382440331913
0.36464722232127456,85.95173910264181
0.37896169806447155,79.57240144062926
0.3938380983288488,73.5029721525701
0.4092984818452433,67.74116061211103
0.4253657732750382,62.44693082131196
0.44206379720285277,57.62912898800833
0.45941731346364734,53.13985221289731
0.47745205385661277,48.94872367391224
0.4961947603002895,45.090655762473475
0.5156732244854959,41.53611985213631
0.5359163290848509,38.24111049746855
0.556954090580013,35.19554907558523
0.5788177037701272,32.38906775527464
0.6015395880274836,29.79607189257734
0.6251534353689703,27.402460844262666
0.6496942604146115,25.194875754243114
0.6751984523072497,23.15883929579207
0.7017038286703824,21.281124434709547
0.7292496916841444,19.55015355938863
0.7578768863625915,17.954890691237793
0.7876278611187046,16.48562053804565
0.8185467307069019,15.133070169342396
0.850679341636415,13.888268304608243
0.8840733401525058,12.742896174290568
0.9187782428863317,11.689256130370874
0.9548455102782278,10.72022690320006
0.9923286228832539,9.829226875456609
1.0312831606721837,9.010203785107223
1.0717668854455022,8.257567322851196
1.1138398264826193,7.566138302101895
1.1575643695533022,6.9311206444451114
1.2030053494233226,6.348075143148217
1.2502301459914542,5.812890882431449
1.299308784200415,5.321755552735688
1.3503140378698726,4.871147094016111
1.4033215376054824,4.457815277788585
1.4584098829439835,4.078761633644566
1.5156607589006013,3.731220806224179
1.575159057091621,3.412644649493466
1.6369930016117014,3.120686118992819
1.7012542798525885,2.8531817980401657
1.7680381784572046,2.6081380061867976
1.8374437246107238,2.383718081219216
1.9095738328780953,2.1782304731402853
1.9845354578058014,1.9901168570663215
2.0624397525140905,1.817942632888668
2.143402233514853,1.6603882505165697
2.227542951999554,1.516240326486274
2.314986671851158,1.3843833997969701
2.405863054644063,1.2637922665409662
2.5003068519063225,1.1535248038603454
2.598458104929248,1.0527155996067592
2.7004623524206774,0.9605699592061114
2.806470846309834,0.876358304973417
2.916640776023701,0.7994110020390217
3.031135501567576,0.7291135932500039
3.150124795755327,0.664902397218925
3.2737850959485697,0.6062604036605534
3.4022997656780634,0.5527135151089753
3.5358593665351745,0.503827084870995
3.6746619407366854,0.4592027192894116
3.8189133047818515,0.41847521742605026
3.968827354637162,0.38130990661174846
4.1246263829013445,0.3474002923998889
4.286541408420921,0.31646574698275304
4.4548125188449825,0.2882493754910366
4.629689226627261,0.2625160546052522
4.811430839003257,0.23905063473581553
5.000306842491082,0.21765627404695012
5.196597302486189,0.1981529096286796
5.400593278542364,0.18037585754294871
5.612597255954967,0.1641745267533521
5.8329235942862,0.14941123308599766
6.06189899349756,0.13596010555292204
6.29986297838068,0.12370610837219824
6.547168402004727,0.1125441298130606
6.804181968927091,0.10237814207335388
7.071284778942991,0.09312043065042898
7.348872892180382,0.08469088424564511
7.637357916378006,0.07701634658741514
7.937167617217536,0.0700300289228138
8.248746552614573,0.06367096571610678
8.572556731909314,0.05788351543430338
8.909078300934132,0.052616902235307045
9.258810253973934,0.047824784502203295
9.622271173675122,0.04346488087446282
9.999999999999984,0.03949863121429341
