k [1/Mpc],P(k) [Mpc^3]
0.0001,605.2851022880106
0.00010392556829367125,632.5660304909001
0.00010800523745162529,661.0663685733139
0.00011224505680853065,690.8393370344828
0.00011665131316981963,721.9403397763718
0.00012123054013376525,754.4269701470574
0.00012598952777950273,788.3591684322614
0.00013093533273536104,823.7992074789087
0.00013607528864243335,860.8117766370433
0.00014141701702890234,899.4641155631929
0.00014696843861124463,939.8259449745786
0.00015273778503907136,981.9696685573327
0.00015873361110102093,1025.9703591195425
0.00016496480740980205,1071.9057717847845
0.0001714406135851971,1119.8565441209344
0.00017817063195457305,1169.9059798044213
0.00018516484179121546,1222.140277615332
0.000192433614111598,1276.6485648910473
0.00019998772705352857,1333.5227571217326
0.0002078383818579757,1392.8578572257663
0.00021599721947827182,1454.7515846128083
0.0002244763378413224,1519.3045215136167
0.0002332883097864157,1586.620280567533
0.00024244620170823283,1656.8051474561964
0.0002519635929317015,1729.9684421108518
0.0002618545958474233,1806.2220326774643
0.0002721338768375308,1885.6802315979708
0.0002828166780230032,1968.4601424209477
0.0002939188398646886,2054.6809644872537
0.0003054568246515432,2144.464377392645
0.00031744774091091926,2237.9341176065136
0.00032990936877709396,2335.215471898655
0.00034286018635565856,2436.4357833840345
0.00035631939712285854,2541.723586170355
0.000370306958400514,2651.2087551448994
0.00038484361094874304,2765.022250195473
0.0003999509097203664,2883.295192634689
0.00041565125582259895,3006.159345590942
0.00043196792973341727,3133.7460158300955
0.0004489251258218605,3266.185822580136
0.0004665479882234472,3403.608762110524
0.000484862648123908,3546.143075694383
0.000503896262506515,3693.915422445986
0.0005236770544204653,3847.049409076965
0.0005442343548300266,4005.6646842995447
0.0005655986461065005,4169.87731066797
0.0005878016072274912,4339.797700277443
0.0006108761607505036,4515.530838403017
0.0006348565216305217,4697.174612635262
0.0006597782479539537,4884.817569540577
0.0006856782936641739,5078.540010354847
0.0007125950633568407,5278.410426882926
0.0007405684692262436,5484.48548420181
0.0007696399902471156,5696.8090168368935
0.0007998527336796708,5915.407730296026
0.000831251498989063,6140.29325740103
0.0008638828442740447,6371.458213764612
0.000897795155303332,6608.874915399009
0.0009330387172620361,6852.496479133101
0.0009696657893145519,7102.253818246915
0.001007730682094461,7358.055772831234
0.0010472898382363582,7619.785753532504
0.0010884019160690055,7887.299159596568
0.0011311278765939214,8160.424666189823
0.001175531073878369,8438.959641252719
0.0012216773489967915,8722.670803060428
0.0012696351276599736,9011.294911521169
0.0013194755216767058,9304.53797573706
0.0013712724343984,9602.07338658847
0.0014251026703029975,9903.532572669163
0.0014810460488806749,10208.506119884692
0.0015391855229902056,10516.562260325652
0.001599607301861487,10827.27921262169
0.0016624009789266115,11140.21381437613
0.0017276596646690358,11454.875331078494
0.0017954801246878305,11770.722953983957
0.0018659629231817451,12087.176679389067
0.001939212572065829,12403.592328256005
0.0020153376859417325,12719.280897832497
0.002094451143151469,13033.545403685726
0.002176670253153458,13345.6999804191
0.002262116930469025,13655.037628988239
0.002350917875457286,13960.833708399397
0.002443204762186487,14262.345694139158
0.0025391144336803463,14558.824670653768
0.002638789104828933,14849.535560424882
0.002742376573264949,15133.738572690745
0.0028500304385181063,15410.70648493529
0.0029619103297725525,15679.724480443814
0.0030781821425650787,15940.07625465842
0.003199018284775064,16191.038942896814
0.0033245979322709396,16431.89337238753
0.003455107294592217,16661.94044842884
0.0035907398910610534,16880.506970295162
0.0037316968377327513,17086.897911807253
0.0038781871456107214,17280.19722565721
0.0040304280305680515,17459.41348874775
0.00418864523543527,17623.965850773766
0.004353073364731888,17774.019756757407
0.00452395623253805,17909.742662796034
0.004701547224022131,18030.022911929416
0.004886109671160325,18132.983313724428
0.005077917243205399,18217.19128701698
0.005277254352483535,18282.483286792944
0.005484416576121017,18328.96776034329
0.005699711094326071,18356.785000948228
0.005923457145875801,18366.107841821417
0.006155986501483508,18357.067409402156
0.006397643955748424,18329.41554822473
0.0066487878384172625,18282.84081193481
0.0069097905457156435,18217.074734042762
0.007181039092537346,18131.88903126969
0.007462935686310132,18027.13748338696
0.007755898323389004,17902.850736988385
0.00806036140886134,17759.176847684415
0.008376776400682916,17596.351713728207
0.008705612479099857,17414.716043050757
0.009047357242349292,17214.670865550564
0.00940251742967013,16996.53441677995
0.009771619672696168,16760.598141622697
0.010155211276345676,16507.187412129366
0.010553861030365234,16236.569200318418
0.010968160052731372,15949.083165081533
0.011398722666160517,15645.372604320282
0.011846187309026826,15326.369844042925
0.012311217482038896,14993.010019982616
0.012794502732078732,14645.96125433268
0.013296759674662111,14285.869716084182
0.013818733056536317,13913.461343632473
0.014361196859990781,13529.534899857434
0.014924955450518284,13134.992146960798
0.015510844769528393,12730.977185869313
0.016119733573881575,12318.766698936986
0.01675252472408214,11899.610613986371
0.017410156523040152,11474.65175943662
0.018093604107387147,11045.072888033936
0.01880388089340914,10612.333177330775
0.019542040079740527,10178.061545279197
0.02030917620904734,9743.866537987198
0.021106426791015535,9311.392614635975
0.021934973989050584,8882.221492123266
0.02279604637318978,8458.090124536004
0.023690920741826323,8040.870075675817
0.02462092401494623,7632.251189158829
0.02558743520168586,7233.8606825710185
0.02659188744512693,6847.132450170688
0.027635770147361564,6473.6739741219435
0.028720631177978267,6115.5022433859685
0.029848079169243254,5774.202765043648
0.03101978590138095,5450.655001779437
0.03223748878149028,5145.262168681102
0.0335029934197723,4857.962759636898
0.03481817630688963,4587.949995784536
0.03618498759642746,4334.362203953146
0.037605453996581675,4097.128819903021
0.03908168177536263,3876.7031778258556
0.04061585988376978,3672.991184626561
0.04221026320156896,3484.380303670328
0.04386725591048496,3309.033898682553
0.0455892949998106,3144.373719808472
0.047378933909631396,2986.9304528483513
0.049238826317067365,2833.921501412325
0.05117173007114603,2684.3346812193763
0.05318051128214196,2537.9105158208886
0.05526814857144601,2393.6920675504844
0.057437737488265785,2249.405497430551
0.0596924950997073,2103.5091488176286
0.0620357647610427,1958.2511895767718
0.06447102107323864,1817.6052672924677
0.06700187503509585,1683.9509739460755
0.06963207939763882,1556.8540243901812
0.0723655342286965,1435.779785812981
0.07520629269592405,1323.747953698514
0.07815856707684081,1225.3168955104688
0.08122673500479707,1141.070728323328
0.08441534596012978,1067.4119670926832
0.0877291280161335,1001.9731865928356
0.09117299484984914,944.3246617623583
0.09475205302806537,892.1713241017728
0.09847160957933764,840.6653992217272
0.1023371798632519,788.5666267431706
0.10635449574860109,737.1591567943852
0.11052951411260206,685.8519901505881
0.1148684256737553,633.9523492764608
0.1193776641714435,582.1541862272193
0.1240639159058831,535.1279518804647
0.12893412965257148,494.33289129399975
0.13399552696593373,457.38527217007214
0.1392556128874462,425.19658423916127
0.14472218707411338,396.567692993727
0.15040335536380234,369.56653445618275
0.15630754179458153,343.0224039017075
0.16244350109588662,317.0213284974901
0.16882033167003618,292.5410228241027
0.17544748908334581,270.06645688227786
0.1823348000868439,249.14616150490488
0.189492477187382,230.4203432226823
0.19693113379074215,213.27435217770355
0.20466179993919872,197.06803875497485
0.21269593866686892,181.94414457148514
0.22104546299710207,167.75450367710843
0.22972275360711503,154.7400176735298
0.23874067718606454,142.718011029988
0.2481126055137766,131.61648891288533
0.25785243528842716,121.3469408042166
0.26797460873256895,111.78807372455402
0.27849413500806414,102.98139528972625
0.28942661247167484,94.83128915169794
0.3007882518043098,87.31285242941185
0.31259590004822796,80.36518894546981
0.324867065587837,73.94489423804828
0.3376199441111335,68.01778162761468
0.35087344559027084,62.550298975467996
0.36464722232127456,57.50390818530153
0.37896169806447155,52.84855097381043
0.3938380983288488,48.55799581591391
0.4092984818452433,44.59978572433488
0.4253657732750382,40.95305028560623
0.44206379720285277,37.59506007219888
0.45941731346364734,34.50094782041587
0.47745205385661277,31.655955931081152
0.4961947603002895,29.037667709613867
0.5156732244854959,26.632493180854276
0.5359163290848509,24.421118751898543
0.556954090580013,22.389872873658938
0.5788177037701272,20.524461107658766
0.6015395880274836,18.810481642940527
0.6251534353689703,17.235604400636852
0.6496942604146115,15.788618939408735
0.6751984523072497,14.45925578985136
0.7017038286703824,13.23826301888694
0.7292496916841444,12.117273987660639
0.7578768863625915,11.088898482284273
0.7876278611187046,10.146535746265963
0.8185467307069019,9.28287580568572
0.850679341636415,8.491746899146047
0.8840733401525058,7.766815593059448
0.9187782428863317,7.102138376288736
0.9548455102782278,6.492741626322174
0.9923286228832539,5.934409642830035
1.0312831606721837,5.4232170252469425
1.0717668854455022,4.955259040491475
1.1138398264826193,4.526941225390673
1.1575643695533022,4.134963345785358
1.2030053494233226,3.7762956349681613
1.2502301459914542,3.4481591916786565
1.299308784200415,3.148015444946414
1.3503140378698726,2.873535137813395
1.4033215376054824,2.622576512054383
1.4584098829439835,2.3931708639040803
1.5156607589006013,2.1835091515041296
1.575159057091621,1.9919283167778443
1.6369930016117014,1.8168985866144576
1.7012542798525885,1.6570162477143995
1.7680381784572046,1.510994037163327
1.8374437246107238,1.3776517351121722
1.9095738328780953,1.25590746886217
1.9845354578058014,1.1447691198171266
2.0624397525140905,1.0433271698169493
2.143402233514853,0.9507487189400138
2.227542951999554,0.8662711925171181
2.314986671851158,0.7891965154835848
2.405863054644063,0.718885839496995
2.5003068519063225,0.6547551456208994
2.598458104929248,0.5962701704980923
2.7004623524206774,0.5429419168133301
2.806470846309834,0.49432290893301617
2.916640776023701,0.4500037516263782
3.031135501567576,0.40961000751359095
3.150124795755327,0.37279936193504626
3.2737850959485697,0.33925880021974747
3.4022997656780634,0.30870212971888783
3.5358593665351745,0.2808677363921842
3.6746619407366854,0.25551651733873615
3.8189133047818515,0.23242969902537736
3.968827354637162,0.21140710064955118
4.1246263829013445,0.19226602967873235
4.286541408420921,0.17483980436169683
4.4548125188449825,0.15897636372794482
4.629689226627261,0.14453702295752086
4.811430839003257,0.13139557022092513
5.000306842491082,0.11943698938184827
5.196597302486189,0.10855627226274647
5.400593278542364,0.09865756463481301
5.612597255954967,0.08965338674916845
5.8329235942862,0.08146387689866007
6.06189899349756,0.0740160145171036
6.29986297838068,0.06724321049651882
6.547168402004727,0.06108480361600313
6.804181968927091,0.05548553728366307
7.071284778942991,0.05039508243278394
7.348872892180382,0.04576764392704975
7.637357916378006,0.04156158159457476
7.937167617217536,0.03773895465637147
8.248746552614573,0.03426518914825432
8.572556731909314,0.031108784607313814
8.909078300934132,0.02824104369816541
9.258810253973934,0.025635794219252505
9.622271173675122,0.023269183990573265
9.999999999999984,0.02111951115890684
