k [1/Mpc],P(k) [Mpc^3]
0.0001,550.6864629853392
0.00010392556829367125,573.9406464538737
0.00010800523745162529,598.1752334342461
0.00011224505680853065,623.4313905903
0.00011665131316981963,649.7519998754185
0.00012123054013376525,677.181679528294
0.00012598952777950273,705.7668694623742
0.00013093533273536104,735.5559261759271
0.00013607528864243335,766.5991875409097
0.00014141701702890234,798.949067063471
0.00014696843861124463,832.6601456524362
0.00015273778503907136,867.789259837334
0.00015873361110102093,904.3955626617305
0.00016496480740980205,942.5405080360761
0.0001714406135851971,982.2880182205967
0.00017817063195457305,1023.7046382803085
0.00018516484179121546,1066.8596534316728
0.000192433614111598,1111.8251543318618
0.00019998772705352857,1158.6760102942983
0.0002078383818579757,1207.490032516463
0.00021599721947827182,1258.3481208269607
0.0002244763378413224,1311.334328050586
0.0002332883097864157,1366.5360331890356
0.00024244620170823283,1424.0439527686858
0.0002519635929317015,1483.9522727936862
0.0002618545958474233,1546.3588532593515
0.0002721338768375308,1611.365312611648
0.0002828166780230032,1679.077198349215
0.0002939188398646886,1749.6038706840122
0.0003054568246515432,1823.0585180734272
0.00031744774091091926,1899.5585735643604
0.00032990936877709396,1979.2258171981691
0.00034286018635565856,2062.1865508210603
0.00035631939712285854,2148.571536868528
0.000370306958400514,2238.5158535697415
0.00038484361094874304,2332.159377310899
0.0003999509097203664,2429.6466882272443
0.00041565125582259895,2531.1272625845363
0.00043196792973341727,2636.7556376925813
0.0004489251258218605,2746.6911369478976
0.0004665479882234472,2861.0983482394827
0.000484862648123908,2980.14700978072
0.000503896262506515,3104.0120458547876
0.0005236770544204653,3232.873870004541
0.0005442343548300266,3366.917810269398
0.0005655986461065005,3506.334616702593
0.0005878016072274912,3651.3204447139456
0.0006108761607505036,3802.076601132885
0.0006348565216305217,3958.810026166356
0.0006597782479539537,4121.732555974422
0.0006856782936641739,4291.061210892087
0.0007125950633568407,4467.018318589925
0.0007405684692262436,4649.830772811872
0.0007696399902471156,4839.730695834648
0.0007998527336796708,5036.954456880887
0.000831251498989063,5241.742507923465
0.0008638828442740447,5454.339779451526
0.000897795155303332,5674.993929728419
0.0009330387172620361,5903.956277185502
0.0009696657893145519,6141.480620471705
0.001007730682094461,6387.822014112955
0.0010472898382363582,6643.237931206682
0.0010884019160690055,6907.985566838544
0.0011311278765939214,7182.322435112267
0.001175531073878369,7466.5051721168775
0.0012216773489967915,7760.785983059207
0.0012696351276599736,8065.415224775669
0.0013194755216767058,8380.638815555758
0.0013712724343984,8706.697644093467
0.0014251026703029975,9043.827232649805
0.0014810460488806749,9392.252728429325
0.0015391855229902056,9752.191087832543
0.001599607301861487,10123.848897459366
0.0016624009789266115,10507.420284776648
0.0017276596646690358,10903.087172523896
0.0017954801246878305,11311.012720960884
0.0018659629231817451,11731.342654910868
0.001939212572065829,12164.203298545543
0.0020153376859417325,12609.696799330011
0.002094451143151469,13067.90333273101
0.002176670253153458,13538.876165966694
0.002262116930469025,14022.64063467518
0.002350917875457286,14519.193619610967
0.002443204762186487,15028.499077368315
0.0025391144336803463,15550.488224503211
0.002638789104828933,16085.052032424366
0.002742376573264949,16632.037898615465
0.0028500304385181063,17191.25280415146
0.0029619103297725525,17762.45901581576
0.0030781821425650787,18345.373627253943
0.003199018284775064,18939.662980264242
0.0033245979322709396,19544.93689548109
0.003455107294592217,20160.752569179473
0.0035907398910610534,20786.609529558766
0.0037316968377327513,21421.949303931313
0.0038781871456107214,22066.15224546766
0.0040304280305680515,22718.528891223155
0.00418864523543527,23378.32584352794
0.004353073364731888,24044.715977228065
0.00452395623253805,24716.797397136354
0.004701547224022131,25393.600590690417
0.004886109671160325,26074.08507017175
0.005077917243205399,26757.14072269626
0.005277254352483535,27441.524058773153
0.005484416576121017,28125.82275604271
0.005699711094326071,28808.56975990198
0.005923457145875801,29488.48932044637
0.006155986501483508,30164.384537110298
0.006397643955748424,30834.701776457536
0.0066487878384172625,31497.078292849874
0.0069097905457156435,32148.957026209697
0.007181039092537346,32788.10778556172
0.007462935686310132,33412.56971984799
0.007755898323389004,34020.340056188965
0.00806036140886134,34609.34383001754
0.008376776400682916,35177.4621556641
0.008705612479099857,35722.30091425335
0.009047357242349292,36241.129893903344
0.00940251742967013,36731.15151457736
0.009771619672696168,37189.41379627155
0.010155211276345676,37612.90619243562
0.010553861030365234,37998.52818424584
0.010968160052731372,38343.007301755526
0.011398722666160517,38643.09281609002
0.011846187309026826,38895.492198687054
0.012311217482038896,39096.944360101654
0.012794502732078732,39244.17054274763
0.013296759674662111,39333.55630764641
0.013818733056536317,39361.591955024924
0.014361196859990781,39324.72523917398
0.014924955450518284,39219.40873871978
0.015510844769528393,39042.37583638585
0.016119733573881575,38790.3325342926
0.01675252472408214,38460.3483269934
0.017410156523040152,38049.70860843995
0.018093604107387147,37555.769037417114
0.01880388089340914,36976.5663205382
0.019542040079740527,36310.443249752134
0.02030917620904734,35556.435794422265
0.021106426791015535,34714.41582821391
0.021934973989050584,33784.765182347764
0.02279604637318978,32769.06112244111
0.023690920741826323,31669.82386837484
0.02462092401494623,30490.671885895525
0.02558743520168586,29236.68001943163
0.02659188744512693,27914.16495375279
0.027635770147361564,26530.86826962688
0.028720631177978267,25096.107480433802
0.029848079169243254,23620.63245966651
0.03101978590138095,22116.297738123747
0.03223748878149028,20596.69898318381
0.0335029934197723,19075.962015088313
0.03481817630688963,17569.030963052093
0.03618498759642746,16092.231994817454
0.037605453996581675,14660.293443066641
0.03908168177536263,13288.684869675208
0.04061585988376978,11991.31904730144
0.04221026320156896,10779.879141422687
0.04386725591048496,9668.139034047292
0.0455892949998106,8664.606972573993
0.047378933909631396,7774.381235412673
0.049238826317067365,6999.896384389324
0.05117173007114603,6339.763695126207
0.05318051128214196,5793.054023995718
0.05526814857144601,5357.805408661807
0.057437737488265785,5029.904430841595
0.0596924950997073,4804.792702873143
0.0620357647610427,4676.680640582675
0.06447102107323864,4631.651389967397
0.06700187503509585,4657.545546583181
0.06963207939763882,4742.307069603419
0.0723655342286965,4871.236549652047
0.07520629269592405,5018.848142310717
0.07815856707684081,5154.6960143835795
0.08122673500479707,5244.969252172137
0.08441534596012978,5256.857499357276
0.0877291280161335,5163.086202057925
0.09117299484984914,4948.26382101465
0.09475205302806537,4611.7667600516215
0.09847160957933764,4168.429410777886
0.1023371798632519,3647.2427602512407
0.10635449574860109,3091.667745443753
0.11052951411260206,2555.3085037366495
0.1148684256737553,2085.3157475803678
0.1193776641714435,1714.5405093450877
0.1240639159058831,1454.9997032842487
0.12893412965257148,1304.39500723275
0.13399552696593373,1253.707486494782
0.1392556128874462,1287.8289695810815
0.14472218707411338,1382.9835572609886
0.15040335536380234,1504.146566916349
0.15630754179458153,1604.0240835585712
0.16244350109588662,1629.3231354298837
0.16882033167003618,1543.7366532754143
0.17544748908334581,1355.5785438614316
0.1823348000868439,1113.4839141092584
0.189492477187382,877.4209740971556
0.19693113379074215,696.818954261536
0.20466179993919872,596.9212080638229
0.21269593866686892,575.4856176147808
0.22104546299710207,611.0833429056962
0.22972275360711503,668.0089997106897
0.23874067718606454,697.1308775965596
0.2481126055137766,660.3679215616007
0.25785243528842716,562.8469897781512
0.26797460873256895,448.674202160717
0.27849413500806414,365.84541306121247
0.28942661247167484,332.66697969854954
0.3007882518043098,340.2831966267639
0.31259590004822796,358.17001251373625
0.324867065587837,350.26128726708527
0.3376199441111335,306.922591209867
0.35087344559027084,253.3012196193748
0.36464722232127456,219.54942431416228
0.37896169806447155,211.788144838358
0.3938380983288488,213.33759048553915
0.4092984818452433,201.89274512833225
0.4253657732750382,175.80219052244777
0.44206379720285277,152.66878963965053
0.45941731346364734,142.85300840873253
0.47745205385661277,138.49224932241407
0.4961947603002895,127.76738757982073
0.5156732244854959,112.83678944304785
0.5359163290848509,102.71784278495923
0.556954090580013,97.08347508523279
0.5788177037701272,89.54554327087838
0.6015395880274836,80.49277453704363
0.6251534353689703,73.98186401673233
0.6496942604146115,68.74557415495579
0.6751984523072497,62.592673155661444
0.7017038286703824,57.18523143246817
0.7292496916841444,52.661506650450654
0.7578768863625915,48.33538771884285
0.7876278611187046,44.29649776946095
0.8185467307069019,40.54945363657145
0.850679341636415,37.089605837123976
0.8840733401525058,33.90870367176932
0.9187782428863317,30.995744844481674
0.9548455102782278,28.337004254515215
0.9923286228832539,25.911070988024104
1.0312831606721837,23.69472758803353
1.0717668854455022,21.667440542960527
1.1138398264826193,19.81105732452128
1.1575643695533022,18.10949975356393
1.2030053494233226,16.54879934062825
1.2502301459914542,15.117830811050595
1.299308784200415,13.806682864933848
1.3503140378698726,12.606078974110686
1.4033215376054824,11.507352868378291
1.4584098829439835,10.502422629760085
1.5156607589006013,9.58367749594811
1.575159057091621,8.74385981509226
1.6369930016117014,7.976281216405834
1.7012542798525885,7.274815506024898
1.7680381784572046,6.633851500821302
1.8374437246107238,6.04825024903637
1.9095738328780953,5.513323838505419
1.9845354578058014,5.02479859074736
2.0624397525140905,4.578751257979593
2.143402233514853,4.171579366719502
2.227542951999554,3.7999761309696645
2.314986671851158,3.460906954293521
2.405863054644063,3.1515843671732027
2.5003068519063225,2.8694504575204514
2.598458104929248,2.612162017140972
2.7004623524206774,2.3775731219519187
2.806470846309834,2.163718979510026
2.916640776023701,1.9688011407245252
3.031135501567576,1.7911742869438239
3.150124795755327,1.6293330734557898
3.2737850959485697,1.4819002497282707
3.4022997656780634,1.3476160589374688
3.5358593665351745,1.2253284862821945
3.6746619407366854,1.1139841325274156
3.8189133047818515,1.0126196191675287
3.968827354637162,0.9203546355572412
4.1246263829013445,0.8363850876041998
4.286541408420921,0.7599766416986475
4.4548125188449825,0.6904588016933435
4.629689226627261,0.6272194961384434
4.811430839003257,0.5697001073512694
5.000306842491082,0.5173908571292797
5.196597302486189,0.46982661899140954
5.400593278542364,0.4265830862554675
5.612597255954967,0.38727325946306196
5.8329235942862,0.3515441860635387
6.06189899349756,0.31907402885949765
6.29986297838068,0.2895694307781516
6.547168402004727,0.26276304244792215
6.804181968927091,0.23841125679221986
7.071284778942991,0.21629213845614043
7.348872892180382,0.19620354365788714
7.637357916378006,0.17796137502136417
7.937167617217536,0.16139798564450336
8.248746552614573,0.14636073368550415
8.572556731909314,0.1327106616538634
8.909078300934132,0.12032127811060714
9.258810253973934,0.1090774086679127
9.622271173675122,0.09887425322117017
9.999999999999984,0.08961648908650614
