k [1/Mpc],P(k) [Mpc^3]
0.0001,157.3749387214236
0.00010392556829367125,163.07899214385495
0.00010800523745162529,168.989606504821
0.00011224505680853065,175.114241017576
0.00011665131316981963,181.46062270712625
0.00012123054013376525,188.03675379181087
0.00012598952777950273,194.85092268258666
0.00013093533273536104,201.91171397564324
0.00013607528864243335,209.22801795328152
0.00014141701702890234,216.8090421399741
0.00014696843861124463,224.6643144409763
0.00015273778503907136,232.80369701084607
0.00015873361110102093,241.23740425942736
0.00016496480740980205,249.97601803920054
0.0001714406135851971,259.0304971864183
0.00017817063195457305,268.41218122893554
0.00018516484179121546,278.13280343097574
0.000192433614111598,288.20450956455073
0.00019998772705352857,298.6398640010046
0.0002078383818579757,309.45187036706716
0.00021599721947827182,320.6539816457352
0.0002244763378413224,332.260111674468
0.0002332883097864157,344.2846594422739
0.00024244620170823283,356.7425242200499
0.0002519635929317015,369.6491233439197
0.0002618545958474233,383.02039134807893
0.0002721338768375308,396.87277375810464
0.0002828166780230032,411.22327438457984
0.0002939188398646886,426.08946797383857
0.0003054568246515432,441.4895209288665
0.00031744774091091926,457.44220626734943
0.00032990936877709396,473.9668975672086
0.00034286018635565856,491.083611226121
0.00035631939712285854,508.81301407340686
0.000370306958400514,527.1764406471252
0.00038484361094874304,546.1959125424164
0.0003999509097203664,565.8940803977326
0.00041565125582259895,586.2942962089196
0.00043196792973341727,607.4206513265407
0.0004489251258218605,629.2979905388519
0.0004665479882234472,651.9519341795341
0.000484862648123908,675.4088130789071
0.000503896262506515,699.6957242697306
0.0005236770544204653,724.8405646631026
0.0005442343548300266,750.8720065158271
0.0005655986461065005,777.8195596776034
0.0005878016072274912,805.7134717168645
0.0006108761607505036,834.5847591600397
0.0006348565216305217,864.4653032695556
0.0006597782479539537,895.3878380869986
0.0006856782936641739,927.3859866687694
0.0007125950633568407,960.494112142882
0.0007405684692262436,994.7472788986745
0.0007696399902471156,1030.181420221221
0.0007998527336796708,1066.8332941088038
0.000831251498989063,1104.740527487145
0.0008638828442740447,1143.941499426502
0.000897795155303332,1184.4752130038783
0.0009330387172620361,1226.3814730777979
0.0009696657893145519,1269.7006706137013
0.001007730682094461,1314.4738542931393
0.0010472898382363582,1360.7427417840693
0.0010884019160690055,1408.5495088988096
0.0011311278765939214,1457.9369584978265
0.001175531073878369,1508.9481566377112
0.0012216773489967915,1561.6264066413287
0.0012696351276599736,1616.0153748973614
0.0013194755216767058,1672.1585908913767
0.0013712724343984,1730.0997479579141
0.0014251026703029975,1789.8824033498202
0.0014810460488806749,1851.5497466508784
0.0015391855229902056,1915.144835312662
0.001599607301861487,1980.7098868874912
0.0016624009789266115,2048.2865292169604
0.0017276596646690358,2117.9155824981653
0.0017954801246878305,2189.636509705514
0.0018659629231817451,2263.487837812162
0.001939212572065829,2339.506440909638
0.0020153376859417325,2417.7275660405226
0.002094451143151469,2498.184715224014
0.002176670253153458,2580.908674804214
0.002262116930469025,2665.9280852840748
0.002350917875457286,2753.268658377582
0.002443204762186487,2842.952899126216
0.0025391144336803463,2935.000351816797
0.002638789104828933,3029.4265474449226
0.002742376573264949,3126.243359610054
0.0028500304385181063,3225.4583048727686
0.0029619103297725525,3327.07385236302
0.0030781821425650787,3431.0878942553973
0.003199018284775064,3537.492486326816
0.0033245979322709396,3646.2740547130975
0.003455107294592217,3757.413127023336
0.0035907398910610534,3870.8833895859866
0.0037316968377327513,3986.6521037291523
0.0038781871456107214,4104.678547704576
0.0040304280305680515,4224.913963052299
0.00418864523543527,4347.301751100578
0.004353073364731888,4471.77604103858
0.00452395623253805,4598.262410363074
0.004701547224022131,4726.676755845363
0.004886109671160325,4856.92479551309
0.005077917243205399,4988.90242885507
0.005277254352483535,5122.493272035662
0.005484416576121017,5257.569960467755
0.005699711094326071,5393.995326128271
0.005923457145875801,5531.622630752287
0.006155986501483508,5670.293479698313
0.006397643955748424,5809.827248453276
0.0066487878384172625,5950.025345056642
0.0069097905457156435,6090.690850259706
0.007181039092537346,6231.651224106014
0.007462935686310132,6372.727032057277
0.007755898323389004,6513.657434571359
0.00806036140886134,6654.108083655898
0.008376776400682916,6793.750009417921
0.008705612479099857,6932.338671309795
0.009047357242349292,7069.645088365006
0.00940251742967013,7205.375810481564
0.009771619672696168,7339.156419212265
0.010155211276345676,7470.607829969021
0.010553861030365234,7599.421536754714
0.010968160052731372,7725.31557562537
0.011398722666160517,7847.972352542239
0.011846187309026826,7967.00970984052
0.012311217482038896,8082.032635684847
0.012794502732078732,8192.635243900433
0.013296759674662111,8298.404616205995
0.013818733056536317,8398.933068416029
0.014361196859990781,8493.833140273846
0.014924955450518284,8582.723276474813
0.015510844769528393,8665.209420954443
0.016119733573881575,8740.88825717989
0.01675252472408214,8809.362735123716
0.017410156523040152,8870.238800874838
0.018093604107387147,8923.133587467284
0.01880388089340914,8967.682922324691
0.019542040079740527,9003.545009230658
0.02030917620904734,9030.398100567525
0.021106426791015535,9047.932849966577
0.021934973989050584,9055.861500587296
0.02279604637318978,9053.93143953458
0.023690920741826323,9041.933886741908
0.02462092401494623,9019.696500425822
0.02558743520168586,8987.09243107676
0.02659188744512693,8944.039050734658
0.027635770147361564,8890.502957497643
0.028720631177978267,8826.521126543492
0.029848079169243254,8752.178532431451
0.03101978590138095,8667.631721321728
0.03223748878149028,8573.107180164016
0.0335029934197723,8468.88212352719
0.03481817630688963,8355.32817811774
0.03618498759642746,8232.866634013279
0.037605453996581675,8101.982391975419
0.03908168177536263,7963.236145880975
0.04061585988376978,7817.213046938271
0.04221026320156896,7664.5507131441855
0.04386725591048496,7505.910419000675
0.0455892949998106,7341.972513751633
0.047378933909631396,7173.456986639892
0.049238826317067365,7001.066508566021
0.05117173007114603,6825.37744411147
0.05318051128214196,6646.876946075515
0.05526814857144601,6466.118797365655
0.057437737488265785,6283.901166046922
0.0596924950997073,6101.012291858371
0.0620357647610427,5917.65957909609
0.06447102107323864,5733.487492427298
0.06700187503509585,5548.250346823741
0.06963207939763882,5362.10044045129
0.0723655342286965,5175.336900391894
0.07520629269592405,4988.565769800595
0.07815856707684081,4802.838877856272
0.08122673500479707,4619.047164080562
0.08441534596012978,4437.085149199094
0.0877291280161335,4256.418669238436
0.09117299484984914,4077.052851619003
0.09475205302806537,3900.085772774348
0.09847160957933764,3726.6626381368606
0.1023371798632519,3558.058135785851
0.10635449574860109,3395.4866365959365
0.11052951411260206,3238.999553262256
0.1148684256737553,3087.4879427972783
0.1193776641714435,2940.2582073432586
0.1240639159058831,2797.198471143965
0.12893412965257148,2658.596146033172
0.13399552696593373,2525.0159787954194
0.1392556128874462,2395.867275359348
0.14472218707411338,2270.0140491921966
0.15040335536380234,2146.986558230955
0.15630754179458153,2027.2339373196521
0.16244350109588662,1912.0330788301826
0.16882033167003618,1802.3827948864239
0.17544748908334581,1698.601736218747
0.1823348000868439,1600.209891466567
0.189492477187382,1506.2515141092886
0.19693113379074215,1416.609610856685
0.20466179993919872,1331.272799584187
0.21269593866686892,1249.896072882744
0.22104546299710207,1171.8342174097584
0.22972275360711503,1097.6376886186931
0.23874067718606454,1027.6635717279737
0.2481126055137766,961.4091268410801
0.25785243528842716,898.8036608052699
0.26797460873256895,839.9234645784618
0.27849413500806414,784.1242709236715
0.28942661247167484,731.4172277615726
0.3007882518043098,681.8173467468753
0.31259590004822796,635.1371142103529
0.324867065587837,591.2996539397619
0.3376199441111335,550.1103274005401
0.35087344559027084,511.4401848519703
0.36464722232127456,475.1867453699202
0.37896169806447155,441.20029534880535
0.3938380983288488,409.40997963369654
0.4092984818452433,379.6516704384007
0.4253657732750382,351.8550908841954
0.44206379720285277,325.8790352062757
0.45941731346364734,301.65728332946344
0.47745205385661277,279.0585874249308
0.4961947603002895,258.014089569585
0.5156732244854959,238.42643785307695
0.5359163290848509,220.202304359182
0.556954090580013,203.2759124792256
0.5788177037701272,187.5581261944776
0.6015395880274836,172.9686304491544
0.6251534353689703,159.44125713486298
0.6496942604146115,146.90437831855692
0.6751984523072497,135.2880262626965
0.7017038286703824,124.52887150321875
0.7292496916841444,114.56957153029836
0.7578768863625915,105.35610366654107
0.7876278611187046,96.83996081260854
0.8185467307069019,88.97183860911245
0.850679341636415,81.70980550669417
0.8840733401525058,75.0113691898416
0.9187782428863317,68.83590326853248
0.9548455102782278,63.14422288070583
0.9923286228832539,57.90016260914378
1.0312831606721837,53.07024498170487
1.0717668854455022,48.623156664873235
1.1138398264826193,44.53109347977468
1.1575643695533022,40.76955708189343
1.2030053494233226,37.312930439950165
1.2502301459914542,34.13821725057168
1.299308784200415,31.222651733659937
1.3503140378698726,28.54591282968917
1.4033215376054824,26.08995058097155
1.4584098829439835,23.83750508747099
1.5156607589006013,21.772558332975006
1.575159057091621,19.880264091230277
1.6369930016117014,18.14687128862091
1.7012542798525885,16.55964616968162
1.7680381784572046,15.106796770538791
1.8374437246107238,13.77742456194616
1.9095738328780953,12.56146519649569
1.9845354578058014,11.449629704244389
2.0624397525140905,10.433348847085396
2.143402233514853,9.504714763114455
2.227542951999554,8.656436982355316
2.314986671851158,7.881803853892803
2.405863054644063,7.174639511753813
2.5003068519063225,6.52926358823514
2.598458104929248,5.940454410184253
2.7004623524206774,5.403415391792033
2.806470846309834,4.9137400706289664
2.916640776023701,4.467381599590267
3.031135501567576,4.06062499801444
3.150124795755327,3.6900613829625897
3.2737850959485697,3.3525640719940717
3.4022997656780634,3.045266393454054
3.5358593665351745,2.7655411077191734
3.6746619407366854,2.5109813679870117
3.8189133047818515,2.279383096893678
3.968827354637162,2.0687278286893895
4.1246263829013445,1.8771655253358692
4.286541408420921,1.703004287386736
4.4548125188449825,1.5446982355086891
4.629689226627261,1.4008352963100839
4.811430839003257,1.2701260184446
5.000306842491082,1.151394428324272
5.196597302486189,1.04356812571887
5.400593278542364,0.9456679821188143
5.612597255954967,0.8568002566992072
5.8329235942862,0.776149424834672
6.06189899349756,0.702971331646963
6.29986297838068,0.6365863178935802
6.547168402004727,0.5763748713993531
6.804181968927091,0.5217728400872327
7.071284778942991,0.47226660010941446
7.348872892180382,0.4273886417144042
7.637357916378006,0.38671380208923306
7.937167617217536,0.3498555183952436
8.248746552614573,0.3164620095291383
8.572556731909314,0.28621320632852465
8.909078300934132,0.258817971016571
9.258810253973934,0.23401148857302626
9.622271173675122,0.2115526705839418
9.999999999999984,0.19122238856749893
