k [1/Mpc],P(k) [Mpc^3]
0.0001,111.83693161729829
0.00010392556829367125,116.89927810223604
0.00010800523745162529,122.19068201481461
0.00011224505680853065,127.7214933834245
0.00011665131316981963,133.5025284472523
0.00012123054013376525,139.54508992133435
0.00012598952777950273,145.8609897315223
0.00013093533273536104,152.4625763439443
0.00013607528864243335,159.36275936316198
0.00014141701702890234,166.57502769692948
0.00014696843861124463,174.11346066368012
0.00015273778503907136,181.99276425811954
0.00015873361110102093,190.22831038608547
0.00016496480740980205,198.83617137710365
0.0001714406135851971,207.8331423378296
0.00017817063195457305,217.23676529125643
0.00018516484179121546,227.06536505391207
0.000192433614111598,237.3380828399759
0.00019998772705352857,248.07490267081448
0.0002078383818579757,259.29669936800826
0.00021599721947827182,271.02529014851757
0.0002244763378413224,283.2834770107441
0.0002332883097864157,296.09507408371707
0.00024244620170823283,309.4849193364434
0.0002519635929317015,323.47894228361594
0.0002618545958474233,338.10423600942477
0.0002721338768375308,353.3891175030882
0.0002828166780230032,369.3631568333597
0.0002939188398646886,386.05716890418194
0.0003054568246515432,403.5032904258587
0.00031744774091091926,421.7350874879758
0.00032990936877709396,440.78765158191936
0.00034286018635565856,460.6976247858072
0.00035631939712285854,481.5031846168021
0.000370306958400514,503.2441078344058
0.00038484361094874304,525.9618966980663
0.0003999509097203664,549.6998529517222
0.00041565125582259895,574.5031530007271
0.00043196792973341727,600.4188968041929
0.0004489251258218605,627.4961693466761
0.0004665479882234472,655.7861485495903
0.000484862648123908,685.3421225735872
0.000503896262506515,716.2196041291982
0.0005236770544204653,748.4764401805197
0.0005442343548300266,782.1728810975355
0.0005655986461065005,817.371695874313
0.0005878016072274912,854.1381676466762
0.0006108761607505036,892.5401928888502
0.0006348565216305217,932.6484415141135
0.0006597782479539537,974.5363868015121
0.0006856782936641739,1018.2804653955427
0.0007125950633568407,1063.9601410526077
0.0007405684692262436,1111.6579763616235
0.0007696399902471156,1161.4597964111929
0.0007998527336796708,1213.4546225579875
0.000831251498989063,1267.7348625806626
0.0008638828442740447,1324.3964382562967
0.000897795155303332,1383.5387878527833
0.0009330387172620361,1445.2650960547367
0.0009696657893145519,1509.6822506130418
0.001007730682094461,1576.9009650862545
0.0010472898382363582,1647.0359270246104
0.0010884019160690055,1720.2055874056198
0.0011311278765939214,1796.5325049410094
0.001175531073878369,1876.1433203730332
0.0012216773489967915,1959.1687436747995
0.0012696351276599736,2045.7438059875853
0.0013194755216767058,2136.0073673292254
0.0013712724343984,2230.1024581891206
0.0014251026703029975,2328.1763298708397
0.0014810460488806749,2430.380105481814
0.0015391855229902056,2536.8692484205376
0.001599607301861487,2647.8029800418676
0.0016624009789266115,2763.3443516100488
0.0017276596646690358,2883.6604621548995
0.0017954801246878305,3008.9216321238073
0.0018659629231817451,3139.301972897438
0.001939212572065829,3274.9787243578444
0.0020153376859417325,3416.1317956284174
0.002094451143151469,3562.944349444449
0.002176670253153458,3715.601690493962
0.002262116930469025,3874.2915696403475
0.002350917875457286,4039.203475327343
0.002443204762186487,4210.527143172974
0.0025391144336803463,4388.453657175365
0.002638789104828933,4573.174197310887
0.002742376573264949,4764.879800105591
0.0028500304385181063,4963.7610844917945
0.0029619103297725525,5170.006000757715
0.0030781821425650787,5383.800700511896
0.003199018284775064,5605.327979098078
0.0033245979322709396,5834.766082773053
0.003455107294592217,6072.289180872971
0.0035907398910610534,6318.06491184568
0.0037316968377327513,6572.25448123158
0.0038781871456107214,6835.011177772065
0.0040304280305680515,7106.47780195917
0.00418864523543527,7386.7875845476265
0.004353073364731888,7676.06125487989
0.00452395623253805,7974.406291214305
0.004701547224022131,8281.915901562319
0.004886109671160325,8598.66442705531
0.005077917243205399,8924.708794061718
0.005277254352483535,9260.084724804665
0.005484416576121017,9604.804279209618
0.005699711094326071,9958.856536960335
0.005923457145875801,10322.200264386547
0.006155986501483508,10694.76560848047
0.006397643955748424,11076.452685051629
0.0066487878384172625,11467.127564139808
0.0069097905457156435,11866.622334544545
0.007181039092537346,12274.715902041418
0.007462935686310132,12691.136158017043
0.007755898323389004,13115.580386948202
0.00806036140886134,13547.741372220975
0.008376776400682916,13987.278023410125
0.008705612479099857,14433.715541146777
0.009047357242349292,14886.42169133495
0.00940251742967013,15344.70505599211
0.009771619672696168,15807.881957484084
0.010155211276345676,16275.23759573285
0.010553861030365234,16746.008476283077
0.010968160052731372,17219.389549453535
0.011398722666160517,17694.514797726802
0.011846187309026826,18170.36770569398
0.012311217482038896,18645.8069543072
0.012794502732078732,19119.61001276068
0.013296759674662111,19590.44883130657
0.013818733056536317,20056.917885096747
0.014361196859990781,20517.515428341052
0.014924955450518284,20970.64338612998
0.015510844769528393,21414.632946375925
0.016119733573881575,21847.71873372974
0.01675252472408214,22268.068097093197
0.017410156523040152,22673.750402796366
0.018093604107387147,23062.703582640777
0.01880388089340914,23432.817617745946
0.019542040079740527,23781.913117759494
0.02030917620904734,24107.771921773066
0.021106426791015535,24408.157402232166
0.021934973989050584,24680.786953100695
0.02279604637318978,24923.401760799956
0.023690920741826323,25133.781158929884
0.02462092401494623,25309.7641198529
0.02558743520168586,25449.295980744275
0.02659188744512693,25550.478651136193
0.027635770147361564,25611.57472273483
0.028720631177978267,25631.097669093982
0.029848079169243254,25607.884210400876
0.03101978590138095,25541.026606675718
0.03223748878149028,25430.135988439844
0.0335029934197723,25275.2236718584
0.03481817630688963,25076.731448353417
0.03618498759642746,24835.86069997778
0.037605453996581675,24554.144244804458
0.03908168177536263,24233.96406212208
0.04061585988376978,23878.448383370294
0.04221026320156896,23490.98117666111
0.04386725591048496,23075.77971840474
0.0455892949998106,22637.249821039626
0.047378933909631396,22180.713264640555
0.049238826317067365,21712.844602166046
0.05117173007114603,21239.808428928543
0.05318051128214196,20765.40610171289
0.05526814857144601,20292.149879259254
0.057437737488265785,19824.4723372162
0.0596924950997073,19371.95964630108
0.0620357647610427,18943.890311485993
0.06447102107323864,18542.510011172304
0.06700187503509585,18164.388817196184
0.06963207939763882,17805.71752379752
0.0723655342286965,17461.512371671797
0.07520629269592405,17126.60800612382
0.07815856707684081,16794.423268508774
0.08122673500479707,16457.985614872905
0.08441534596012978,16109.834646883282
0.0877291280161335,15742.409168110154
0.09117299484984914,15347.324707289661
0.09475205302806537,14915.849198389791
0.09847160957933764,14437.939893819921
0.1023371798632519,13909.002641997024
0.10635449574860109,13333.179724825226
0.11052951411260206,12723.214766251136
0.1148684256737553,12097.223323743066
0.1193776641714435,11475.989049898764
0.1240639159058831,10878.92207356626
0.12893412965257148,10322.690447044
0.13399552696593373,9820.65452530689
0.1392556128874462,9382.20566225493
0.14472218707411338,9008.729544263451
0.15040335536380234,8691.437838955017
0.15630754179458153,8410.478564379533
0.16244350109588662,8138.780101866086
0.16882033167003618,7849.409755706046
0.17544748908334581,7522.095104582145
0.1823348000868439,7149.367155791701
0.189492477187382,6740.0554280639635
0.19693113379074215,6316.412613514173
0.20466179993919872,5905.675963085591
0.21269593866686892,5533.583618919225
0.22104546299710207,5219.500779403797
0.22972275360711503,4966.136233110694
0.23874067718606454,4753.413409434124
0.2481126055137766,4550.656749888562
0.25785243528842716,4332.390088304551
0.26797460873256895,4085.43935029814
0.27849413500806414,3817.9407665151525
0.28942661247167484,3556.1872932060137
0.3007882518043098,3323.349888717384
0.31259590004822796,3129.3316621660815
0.324867065587837,2965.1780917439073
0.3376199441111335,2808.327030320117
0.35087344559027084,2642.3237468029342
0.36464722232127456,2466.7405170952616
0.37896169806447155,2297.4570845589483
0.3938380983288488,2148.173688003009
0.4092984818452433,2018.692038784764
0.4253657732750382,1897.4319534904043
0.44206379720285277,1775.0174803699458
0.45941731346364734,1653.4818698276354
0.47745205385661277,1541.6176397263755
0.4961947603002895,1441.2986314913041
0.5156732244854959,1347.465441882984
0.5359163290848509,1255.932656649767
0.556954090580013,1168.9516715593602
0.5788177037701272,1089.126781342252
0.6015395880274836,1014.9327300031404
0.6251534353689703,944.3865308693443
0.6496942604146115,877.9590159360458
0.6751984523072497,816.4165170809529
0.7017038286703824,758.8245411693285
0.7292496916841444,704.6661073807958
0.7578768863625915,654.1941960981037
0.7876278611187046,607.1200179244183
0.8185467307069019,563.1007243617721
0.850679341636415,522.0730083949995
0.8840733401525058,483.84645340967194
0.9187782428863317,448.2066023145449
0.9548455102782278,415.02280391795745
0.9923286228832539,384.1471867378748
1.0312831606721837,355.4318902016372
1.0717668854455022,328.73747272578703
1.1138398264826193,303.93251874274335
1.1575643695533022,280.8932564340792
1.2030053494233226,259.5035268594118
1.2502301459914542,239.6548186944667
1.299308784200415,221.2449711760513
1.3503140378698726,204.17773598685085
1.4033215376054824,188.36251691283928
1.4584098829439835,173.7141107119936
1.5156607589006013,160.15233395586162
1.575159057091621,147.60176308985726
1.6369930016117014,135.9917017929738
1.7012542798525885,125.25594697568798
1.7680381784572046,115.33254509513223
1.8374437246107238,106.16355529875231
1.9095738328780953,97.69478281155983
1.9845354578058014,89.87558485765813
2.0624397525140905,82.65870971556794
2.143402233514853,76.00009630936339
2.227542951999554,69.8586817895959
2.314986671851158,64.19621710599777
2.405863054644063,58.977082746234814
2.5003068519063225,54.16813431766397
2.598458104929248,49.73855363094195
2.7004623524206774,45.65969981681929
2.806470846309834,41.90496858127049
2.916640776023701,38.449656493893656
3.031135501567576,35.27082678336301
3.150124795755327,32.347204436855996
3.2737850959485697,29.65906871470878
3.4022997656780634,27.188147477973356
3.5358593665351745,24.91751796222133
3.6746619407366854,22.831511329369764
3.8189133047818515,20.91562273469734
3.968827354637162,19.15643624226246
4.1246263829013445,17.541548890017626
4.286541408420921,16.059498526464708
4.4548125188449825,14.699696336483557
4.629689226627261,13.452361421808234
4.811430839003257,12.308461849472375
5.000306842491082,11.259664146815123
5.196597302486189,10.29828217363168
5.400593278542364,9.417229156811802
5.612597255954967,8.609972981637078
5.8329235942862,7.870493370097353
6.06189899349756,7.193244015841001
6.29986297838068,6.573118187360422
6.547168402004727,6.005415313785454
6.804181968927091,5.485809931661986
7.071284778942991,5.010322898013282
7.348872892180382,4.575294770685055
7.637357916378006,4.177360997008683
7.937167617217536,3.81342895141016
8.248746552614573,3.480656732006382
8.572556731909314,3.176433536410417
8.909078300934132,2.8983610489265614
9.258810253973934,2.644235228599945
9.622271173675122,2.412032937469688
9.999999999999984,2.1998981781240063
