k [1/Mpc],P(k) [Mpc^3]
0.0001,218.77547285497312
0.00010392556829367125,227.35917103177366
0.00010800523745162529,236.27930973603813
0.00011224505680853065,245.54901176730712
0.00011665131316981963,255.1819042979138
0.00012123054013376525,265.19215923573455
0.00012598952777950273,275.5945104080933
0.00013093533273536104,286.40425642352477
0.00013607528864243335,297.6372639257572
0.00014141701702890234,309.3100067065744
0.00014696843861124463,321.4395992839116
0.00015273778503907136,334.0438220805163
0.00015873361110102093,347.1411348187244
0.00016496480740980205,360.7506743520724
0.0001714406135851971,374.8922993291651
0.00017817063195457305,389.5866324982903
0.00018516484179121546,404.8550929796725
0.000192433614111598,420.719914606379
0.00019998772705352857,437.20414503795087
0.0002078383818579757,454.33168949066584
0.00021599721947827182,472.1273438562084
0.0002244763378413224,490.6168087998589
0.0002332883097864157,509.8267449531445
0.00024244620170823283,529.7848062808191
0.0002519635929317015,550.5196766086528
0.0002618545958474233,572.0610865064072
0.0002721338768375308,594.4397890862122
0.0002828166780230032,617.6876498815257
0.0002939188398646886,641.8376825986861
0.0003054568246515432,666.9240845461253
0.00031744774091091926,692.9822807819919
0.00032990936877709396,720.048902599214
0.00034286018635565856,748.1618679410727
0.00035631939712285854,777.3603921668936
0.000370306958400514,807.684989306359
0.00038484361094874304,839.1775741537984
0.0003999509097203664,871.881433904309
0.00041565125582259895,905.8413010686756
0.00043196792973341727,941.1033714449644
0.0004489251258218605,977.7152445105261
0.0004665479882234472,1015.726075123285
0.000484862648123908,1055.1865622739256
0.000503896262506515,1096.14899769698
0.0005236770544204653,1138.6672815278407
0.0005442343548300266,1182.796734389587
0.0005655986461065005,1228.5943193361366
0.0005878016072274912,1276.1186677758994
0.0006108761607505036,1325.4300930050051
0.0006348565216305217,1376.5906378091265
0.0006597782479539537,1429.6638237303457
0.0006856782936641739,1484.7148429228723
0.0007125950633568407,1541.8105461704888
0.0007405684692262436,1601.0193384317067
0.0007696399902471156,1662.4113565705902
0.0007998527336796708,1726.05821726471
0.000831251498989063,1792.0331202717477
0.0008638828442740447,1860.4108104585255
0.000897795155303332,1931.2672359633525
0.0009330387172620361,2004.679868397081
0.0009696657893145519,2080.7273403167997
0.001007730682094461,2159.4894298889612
0.0010472898382363582,2241.047135994468
0.0010884019160690055,2325.4820098238993
0.0011311278765939214,2412.8765681132763
0.001175531073878369,2503.3137756281144
0.0012216773489967915,2596.8767198905907
0.0012696351276599736,2693.648971524645
0.0013194755216767058,2793.7135046064036
0.0013712724343984,2897.1531039767942
0.0014251026703029975,3004.0499534550327
0.0014810460488806749,3114.484812077778
0.0015391855229902056,3228.5376536929325
0.001599607301861487,3346.286542697755
0.0016624009789266115,3467.807701741398
0.0017276596646690358,3593.1753310124122
0.0017954801246878305,3722.4603569023543
0.0018659629231817451,3855.7310223342593
0.001939212572065829,3993.050942910018
0.0020153376859417325,4134.478708796271
0.002094451143151469,4280.068620590834
0.002176670253153458,4429.869191283584
0.002262116930469025,4583.9235374198515
0.002350917875457286,4742.267829825467
0.002443204762186487,4904.930156861923
0.0025391144336803463,5071.93133430533
0.002638789104828933,5243.282914462593
0.002742376573264949,5418.987454278952
0.0028500304385181063,5599.037478212552
0.0029619103297725525,5783.41363511026
0.0030781821425650787,5972.08575795364
0.003199018284775064,6165.0115433853025
0.0033245979322709396,6362.136195392295
0.003455107294592217,6563.391613376788
0.0035907398910610534,6768.694134961251
0.0037316968377327513,6977.945492078898
0.0038781871456107214,7191.03104853271
0.0040304280305680515,7407.819117365835
0.00418864523543527,7628.161338852864
0.004353073364731888,7851.89077091781
0.00452395623253805,8078.8223623710055
0.004701547224022131,8308.749491656034
0.004886109671160325,8541.441737988524
0.005077917243205399,8776.648662576796
0.005277254352483535,9014.100489079685
0.005484416576121017,9253.507440161025
0.005699711094326071,9494.546429163833
0.005923457145875801,9736.845495308486
0.006155986501483508,9980.010393026689
0.006397643955748424,10223.69187472203
0.0066487878384172625,10467.5703041677
0.0069097905457156435,10711.248337559427
0.007181039092537346,10954.09875512716
0.007462935686310132,11195.422727113148
0.007755898323389004,11434.641581162638
0.00806036140886134,11671.312005940663
0.008376776400682916,11904.948354931052
0.008705612479099857,12134.855107651327
0.009047357242349292,12360.252148112728
0.00940251742967013,12580.435982676307
0.009771619672696168,12794.839382261573
0.010155211276345676,13002.883489259468
0.010553861030365234,13203.828045505306
0.010968160052731372,13396.84715040324
0.011398722666160517,13581.097040361889
0.011846187309026826,13755.711551895925
0.012311217482038896,13919.820676356947
0.012794502732078732,14072.569662652904
0.013296759674662111,14213.121184355947
0.013818733056536317,14340.632297722119
0.014361196859990781,14454.211630815254
0.014924955450518284,14552.975763700706
0.015510844769528393,14636.046642782161
0.016119733573881575,14702.557125861582
0.01675252472408214,14751.675236985366
0.017410156523040152,14782.5798872848
0.018093604107387147,14794.496567087283
0.01880388089340914,14786.706607345708
0.019542040079740527,14758.548699327459
0.02030917620904734,14709.446175905325
0.021106426791015535,14638.909708275303
0.021934973989050584,14546.550529904423
0.02279604637318978,14432.108463523276
0.023690920741826323,14295.479194380843
0.02462092401494623,14136.693505210784
0.02558743520168586,13955.990932139464
0.02659188744512693,13753.797966769025
0.027635770147361564,13530.721532268197
0.028720631177978267,13287.683941185365
0.029848079169243254,13025.758635260738
0.03101978590138095,12746.321924597089
0.03223748878149028,12451.044625922166
0.0335029934197723,12141.707623793145
0.03481817630688963,11820.506174214863
0.03618498759642746,11489.72158006521
0.037605453996581675,11151.816751163115
0.03908168177536263,10809.557317018205
0.04061585988376978,10465.57924646892
0.04221026320156896,10122.662170062913
0.04386725591048496,9783.496903277497
0.0455892949998106,9450.610813073296
0.047378933909631396,9126.56362074517
0.049238826317067365,8813.574706560179
0.05117173007114603,8512.878153602865
0.05318051128214196,8224.986582445803
0.05526814857144601,7950.521070554009
0.057437737488265785,7690.876214439347
0.0596924950997073,7447.32064295345
0.0620357647610427,7217.360616498739
0.06447102107323864,6994.63201558812
0.06700187503509585,6773.917545756026
0.06963207939763882,6553.5043426646225
0.0723655342286965,6332.568081086278
0.07520629269592405,6108.938651187984
0.07815856707684081,5879.901695290894
0.08122673500479707,5642.445492417523
0.08441534596012978,5393.834812135746
0.0877291280161335,5133.645889214738
0.09117299484984914,4863.5682373893815
0.09475205302806537,4589.054572137541
0.09847160957933764,4316.722734243752
0.1023371798632519,4053.438722999784
0.10635449574860109,3804.699494761955
0.11052951411260206,3574.8072348238347
0.1148684256737553,3367.305842636662
0.1193776641714435,3184.4941598522723
0.1240639159058831,3026.202694260377
0.12893412965257148,2888.4288115415284
0.13399552696593373,2763.189125384148
0.1392556128874462,2641.262515813686
0.14472218707411338,2514.6236257510564
0.15040335536380234,2378.884522456941
0.15630754179458153,2234.3046046985037
0.16244350109588662,2085.006198999059
0.16882033167003618,1936.8196221007122
0.17544748908334581,1795.8767419640092
0.1823348000868439,1668.6171287157806
0.189492477187382,1560.0289159392426
0.19693113379074215,1469.0299801011352
0.20466179993919872,1388.4990612960012
0.21269593866686892,1311.4721277031206
0.22104546299710207,1233.1777012647071
0.22972275360711503,1150.7233844136642
0.23874067718606454,1066.759346114269
0.2481126055137766,987.3345953632188
0.25785243528842716,916.2639416086417
0.26797460873256895,854.5099024605366
0.27849413500806414,799.5433618871522
0.28942661247167484,747.6058024602862
0.3007882518043098,695.873973078262
0.31259590004822796,644.6484070901553
0.324867065587837,596.7250897082108
0.3376199441111335,553.4116694474413
0.35087344559027084,514.3933654543763
0.36464722232127456,477.88865753211707
0.37896169806447155,442.83890900374996
0.3938380983288488,409.5726332374386
0.4092984818452433,378.91295459765456
0.4253657732750382,350.80075465205135
0.44206379720285277,324.6146990343858
0.45941731346364734,299.9729125505669
0.47745205385661277,277.02225749961127
0.4961947603002895,255.84266422206426
0.5156732244854959,236.1941881697022
0.5359163290848509,217.89122735882825
0.556954090580013,200.9123036006928
0.5788177037701272,185.21066235768146
0.6015395880274836,170.65654455357836
0.6251534353689703,157.17370109226354
0.6496942604146115,144.7047238125989
0.6751984523072497,133.1705159123165
0.7017038286703824,122.50411720846778
0.7292496916841444,112.6505389654434
0.7578768863625915,103.54863863924294
0.7876278611187046,95.14279508905709
0.8185467307069019,87.38641848992542
0.850679341636415,80.23456182072721
0.8840733401525058,73.64279005454263
0.9187782428863317,67.56930781078357
0.9548455102782278,61.97573070806533
0.9923286228832539,56.82627854686956
1.0312831606721837,52.087627133709056
1.0717668854455022,47.72876014293131
1.1138398264826193,43.720827725947395
1.1575643695533022,40.037000888406
1.2030053494233226,36.6523428638825
1.2502301459914542,33.5437079466162
1.299308784200415,30.689626628920234
1.3503140378698726,28.07019532752204
1.4033215376054824,25.666974149607636
1.4584098829439835,23.462896571761636
1.5156607589006013,21.442166855928672
1.575159057091621,19.59016916077622
1.6369930016117014,17.8933867389712
1.7012542798525885,16.339325734447424
1.7680381784572046,14.916435847113695
1.8374437246107238,13.614044376082669
1.9095738328780953,12.422305680393023
1.9845354578058014,11.332141897518845
2.0624397525140905,10.335186727546743
2.143402233514853,9.423732514953612
2.227542951999554,8.590679802626228
2.314986671851158,7.8294940106430495
2.405863054644063,7.1341636482449085
2.5003068519063225,6.499160605885908
2.598458104929248,5.919403194537323
2.7004623524206774,5.390220459469762
2.806470846309834,4.907320809832645
2.916640776023701,4.466764396337832
3.031135501567576,4.064935615142463
3.150124795755327,3.698517543414789
3.2737850959485697,3.3644683862019
3.4022997656780634,3.059999862892668
3.5358593665351745,2.782556515616233
3.6746619407366854,2.5297969108358673
3.8189133047818515,2.2995764078425918
3.968827354637162,2.0899312064056628
4.1246263829013445,1.899062918590393
4.286541408420921,1.725325378946846
4.4548125188449825,1.567213021392616
4.629689226627261,1.4233492788442133
4.811430839003257,1.2924758685079165
5.000306842491082,1.1734429227143923
5.196597302486189,1.0651999009080377
5.400593278542364,0.9667872929448111
5.612597255954967,0.8773289630432545
5.8329235942862,0.7960251062128895
6.06189899349756,0.7221457730750578
6.29986297838068,0.6550248383020525
6.547168402004727,0.5940546099046489
6.804181968927091,0.5386809246759742
7.071284778942991,0.4883985504184444
7.348872892180382,0.4427469686610407
7.637357916378006,0.4013065040983049
7.937167617217536,0.36369477595786703
8.248746552614573,0.32956347691137866
8.572556731909314,0.29859540763032877
8.909078300934132,0.2705017588219419
9.258810253973934,0.24501961705739922
9.622271173675122,0.22190960572480362
9.999999999999984,0.20095387215493357
