k [1/Mpc],P(k) [Mpc^3]
0.0001,1049.5200882647675
0.00010392556829367125,1087.504767431832
0.00010800523745162529,1126.8585612889917
0.00011224505680853065,1167.6302244461401
0.00011665131316981963,1209.8699806187674
0.00012123054013376525,1253.6297243081167
0.00012598952777950273,1298.9631833916897
0.00013093533273536104,1345.9259991442802
0.00013607528864243335,1394.5756915375562
0.00014141701702890234,1444.9715116137095
0.00014696843861124463,1497.1746102243826
0.00015273778503907136,1551.248177616002
0.00015873361110102093,1607.257499445092
0.00016496480740980205,1665.2700058460034
0.0001714406135851971,1725.355040985659
0.00017817063195457305,1787.5839857436597
0.00018516484179121546,1852.0305140084115
0.000192433614111598,1918.7706778914476
0.00019998772705352857,1987.8829447989724
0.0002078383818579757,2059.447898179987
0.00021599721947827182,2133.5482105357632
0.0002244763378413224,2210.269001468626
0.0002332883097864157,2289.6977020929767
0.00024244620170823283,2371.9242357523567
0.0002519635929317015,2457.040932401927
0.0002618545958474233,2545.1423711167986
0.0002721338768375308,2636.325681828615
0.0002828166780230032,2730.6900327809385
0.0002939188398646886,2828.3368341652313
0.0003054568246515432,2929.3699382907807
0.00031744774091091926,3033.8952896916376
0.00032990936877709396,3142.021285594604
0.00034286018635565856,3253.8582519293855
0.00035631939712285854,3369.5183633541264
0.000370306958400514,3489.11598838354
0.00038484361094874304,3612.7668335675344
0.0003999509097203664,3740.5884740346582
0.00041565125582259895,3872.7000734578637
0.00043196792973341727,4009.2219185902663
0.0004489251258218605,4150.275936665846
0.0004665479882234472,4295.984661733613
0.000484862648123908,4446.47149976854
0.000503896262506515,4601.8606878006985
0.0005236770544204653,4762.276297964248
0.0005442343548300266,4927.842933735813
0.0005655986461065005,5098.684553494086
0.0005878016072274912,5274.924241059013
0.0006108761607505036,5456.68456741901
0.0006348565216305217,5644.08592896207
0.0006597782479539537,5837.247309854844
0.0006856782936641739,6036.285324725854
0.0007125950633568407,6241.313222390142
0.0007405684692262436,6452.441531265652
0.0007696399902471156,6669.775101177198
0.0007998527336796708,6893.41383327744
0.000831251498989063,7123.452189804641
0.0008638828442740447,7359.976615178905
0.000897795155303332,7603.067175026881
0.0009330387172620361,7852.793561855546
0.0009696657893145519,8109.214746964326
0.001007730682094461,8372.380038109639
0.0010472898382363582,8642.32472328328
0.0010884019160690055,8919.072209499
0.0011311278765939214,9202.63075443909
0.001175531073878369,9492.991046393621
0.0012216773489967915,9790.128904127669
0.0012696351276599736,10094.00190259319
0.0013194755216767058,10404.549875621165
0.0013712724343984,10721.691736121506
0.0014251026703029975,11045.319998434143
0.0014810460488806749,11375.305586961937
0.0015391855229902056,11711.49658712243
0.001599607301861487,12053.717524292304
0.0016624009789266115,12401.76918431579
0.0017276596646690358,12755.427471710556
0.0017954801246878305,13114.442522635385
0.0018659629231817451,13478.528050997204
0.001939212572065829,13847.357576135313
0.0020153376859417325,14220.574272919639
0.002094451143151469,14597.792895978306
0.002176670253153458,14978.598118023627
0.002262116930469025,15362.542923960338
0.002350917875457286,15749.147901595908
0.002443204762186487,16137.901276359538
0.0025391144336803463,16528.254862363978
0.002638789104828933,16919.625253274167
0.002742376573264949,17311.397090802915
0.0028500304385181063,17702.924522668523
0.0029619103297725525,18093.530896759137
0.0030781821425650787,18482.510319979032
0.003199018284775064,18869.128820662845
0.0033245979322709396,19252.62565375474
0.003455107294592217,19632.21973189425
0.0035907398910610534,20007.107837358115
0.0037316968377327513,20376.466923340904
0.0038781871456107214,20739.458136437555
0.0040304280305680515,21095.227953469876
0.00418864523543527,21442.932990315636
0.004353073364731888,21781.733894434205
0.00452395623253805,22110.74215730159
0.004701547224022131,22428.940308612186
0.004886109671160325,22735.293232403023
0.005077917243205399,23029.063692711923
0.005277254352483535,23309.818138367333
0.005484416576121017,23576.977738770143
0.005699711094326071,23829.058795169978
0.005923457145875801,24064.283603744545
0.006155986501483508,24281.296495429266
0.006397643955748424,24479.4276479964
0.0066487878384172625,24658.104892233394
0.0069097905457156435,24816.807966572625
0.007181039092537346,24955.067099253098
0.007462935686310132,25072.357149929412
0.007755898323389004,25167.935599811506
0.00806036140886134,25241.06492357525
0.008376776400682916,25291.026715810494
0.008705612479099857,25317.131860206337
0.009047357242349292,25318.766088208948
0.00940251742967013,25295.435825064527
0.009771619672696168,25246.736030102078
0.010155211276345676,25172.33632248803
0.010553861030365234,25071.983444664078
0.010968160052731372,24945.507514753786
0.011398722666160517,24792.804806191394
0.011846187309026826,24613.854103986116
0.012311217482038896,24408.684610428325
0.012794502732078732,24177.32132558596
0.013296759674662111,23919.883317193904
0.013818733056536317,23636.61454757113
0.014361196859990781,23327.88174922641
0.014924955450518284,22994.16066257773
0.015510844769528393,22636.025415087704
0.016119733573881575,22254.159328394955
0.01675252472408214,21849.341052350646
0.017410156523040152,21422.439862599273
0.018093604107387147,20974.442601780764
0.01880388089340914,20506.50236524588
0.019542040079740527,20019.892117110023
0.02030917620904734,19515.998391160523
0.021106426791015535,18996.338409228993
0.021934973989050584,18462.510612993192
0.02279604637318978,17916.331244904308
0.023690920741826323,17359.74879188985
0.02462092401494623,16794.769711697176
0.02558743520168586,16223.583818794823
0.02659188744512693,15648.365777527364
0.027635770147361564,15071.439021034394
0.028720631177978267,14495.250101356954
0.029848079169243254,13922.094862967122
0.03101978590138095,13354.172137450461
0.03223748878149028,12793.511540838768
0.0335029934197723,12242.375344290675
0.03481817630688963,11703.521358394304
0.03618498759642746,11179.300104405918
0.037605453996581675,10670.930794376796
0.03908168177536263,10178.9582850686
0.04061585988376978,9703.640216369977
0.04221026320156896,9244.710479086576
0.04386725591048496,8801.843771718946
0.0455892949998106,8375.335026752964
0.047378933909631396,7965.958274542974
0.049238826317067365,7573.979700817936
0.05117173007114603,7197.943504344652
0.05318051128214196,6836.070443983648
0.05526814857144601,6486.431025701465
0.057437737488265785,6146.769329014018
0.0596924950997073,5815.375455431051
0.0620357647610427,5492.368665614873
0.06447102107323864,5178.667166377212
0.06700187503509585,4874.543604996077
0.06963207939763882,4578.937611790854
0.0723655342286965,4291.059867304038
0.07520629269592405,4013.783943315449
0.07815856707684081,3752.2382328857993
0.08122673500479707,3509.052824898295
0.08441534596012978,3282.0782342771163
0.0877291280161335,3069.141005581772
0.09117299484984914,2871.506218296142
0.09475205302806537,2690.8296212069986
0.09847160957933764,2524.2948952843003
0.1023371798632519,2367.805961430663
0.10635449574860109,2220.1760483324874
0.11052951411260206,2080.468484969427
0.1148684256737553,1944.814110428655
0.1193776641714435,1811.3599975875252
0.1240639159058831,1681.7162172794574
0.12893412965257148,1559.4436325942106
0.13399552696593373,1446.1073468424956
0.1392556128874462,1339.7446313424468
0.14472218707411338,1241.0289032083454
0.15040335536380234,1151.4639642071547
0.15630754179458153,1070.2564195008572
0.16244350109588662,993.6637355908872
0.16882033167003618,921.4834105542826
0.17544748908334581,853.6526202173088
0.1823348000868439,789.0851644405047
0.189492477187382,728.5096840033665
0.19693113379074215,672.5670087296558
0.20466179993919872,621.2035023192382
0.21269593866686892,573.7339621510249
0.22104546299710207,529.4898233833413
0.22972275360711503,488.37142793742845
0.23874067718606454,450.13691953879294
0.2481126055137766,414.532632688388
0.25785243528842716,381.7460822392541
0.26797460873256895,351.39852840989005
0.27849413500806414,323.3504677169614
0.28942661247167484,297.35095673208554
0.3007882518043098,273.3394852193317
0.31259590004822796,251.16387465066563
0.324867065587837,230.6927636267788
0.3376199441111335,211.80657228416675
0.35087344559027084,194.37963848642576
0.36464722232127456,178.31272595230678
0.37896169806447155,163.51220055843012
0.3938380983288488,149.87610674250556
0.4092984818452433,137.32088415020866
0.4253657732750382,125.76701446888411
0.44206379720285277,115.14025708134406
0.45941731346364734,105.37225899480973
0.47745205385661277,96.39849025541588
0.4961947603002895,88.159527418048
0.5156732244854959,80.59977346855823
0.5359163290848509,73.66676439619577
0.556954090580013,67.3103984213568
0.5788177037701272,61.48775841633954
0.6015395880274836,56.15133820846544
0.6251534353689703,51.2629755301286
0.6496942604146115,46.785696261320986
0.6751984523072497,42.68448180925177
0.7017038286703824,38.929893133946315
0.7292496916841444,35.49399324652619
0.7578768863625915,32.35146461181849
0.7876278611187046,29.47929898171208
0.8185467307069019,26.855927871642603
0.850679341636415,24.460743997498565
0.8840733401525058,22.274249638678555
0.9187782428863317,20.27819779164546
0.9548455102782278,18.455659236015016
0.9923286228832539,16.79180649310545
1.0312831606721837,15.27387346889413
1.0717668854455022,13.889728653646086
1.1138398264826193,12.628340987725975
1.1575643695533022,11.479097937860008
1.2030053494233226,10.43221672347139
1.2502301459914542,9.478754480882273
1.299308784200415,8.610537010125402
1.3503140378698726,7.820096800231048
1.4033215376054824,7.100648207139912
1.4584098829439835,6.446004395671327
1.5156607589006013,5.850496501434798
1.575159057091621,5.308932081603891
1.6369930016117014,4.816557241088473
1.7012542798525885,4.369017020668594
1.7680381784572046,3.9623169436581223
1.8374437246107238,3.5928072215567437
1.9095738328780953,3.257156387421038
1.9845354578058014,2.9523243193985307
2.0624397525140905,2.6755375149887324
2.143402233514853,2.424266943808005
2.227542951999554,2.196206794211222
2.314986671851158,1.9892547467081465
2.405863054644063,1.801494504314314
2.5003068519063225,1.631179788038619
2.598458104929248,1.476719867520714
2.7004623524206774,1.3366664882822785
2.806470846309834,1.2097007907750483
2.916640776023701,1.094621914210814
3.031135501567576,0.9903367339126135
3.150124795755327,0.8958504549535592
3.2737850959485697,0.8102579063843685
3.4022997656780634,0.7327357123856831
3.5358593665351745,0.6625351957321168
3.6746619407366854,0.5989757704400017
3.8189133047818515,0.5414388970006723
3.968827354637162,0.48936236695489327
4.1246263829013445,0.4422347814063284
4.286541408420921,0.39959177221346903
4.4548125188449825,0.36101196037600247
4.629689226627261,0.32611303294557115
4.811430839003257,0.2945481882296342
5.000306842491082,0.2660032901887825
5.196597302486189,0.24019376461513095
5.400593278542364,0.21686135987768707
5.612597255954967,0.19577174465250605
5.8329235942862,0.17671234553741583
6.06189899349756,0.15949029027407374
6.29986297838068,0.1439303350017756
6.547168402004727,0.12987364533208082
6.804181968927091,0.11717641518926147
7.071284778942991,0.10570845912249667
7.348872892180382,0.09535193829580602
7.637357916378006,0.08600032013371353
7.937167617217536,0.07755730620199197
8.248746552614573,0.06993569220864175
8.572556731909314,0.06305651421288452
8.909078300934132,0.056848284957384636
9.258810253973934,0.051246280366112076
9.622271173675122,0.04619182825864964
9.999999999999984,0.04163184365707802
