k [1/Mpc],P(k) [Mpc^3]
0.0001,354.23637082077994
0.00010392556829367125,369.19957134472503
0.00010800523745162529,384.79421495092646
0.00011224505680853065,401.04688793928887
0.00011665131316981963,417.9852942402844
0.00012123054013376525,435.638273243221
0.00012598952777950273,454.0358364069013
0.00013093533273536104,473.20924611678896
0.00013607528864243335,493.19108404827693
0.00014141701702890234,514.015297671444
0.00014696843861124463,535.7172424596414
0.00015273778503907136,558.3337309660673
0.00015873361110102093,581.9031019835638
0.00016496480740980205,606.4652512099558
0.0001714406135851971,632.0617024546624
0.00017817063195457305,658.7356968098812
0.00018516484179121546,686.5322673551849
0.000192433614111598,715.4983055731262
0.00019998772705352857,745.6825881385338
0.0002078383818579757,777.1358445138898
0.00021599721947827182,809.9108735257367
0.0002244763378413224,844.0626069615885
0.0002332883097864157,879.6482073506418
0.00024244620170823283,916.7271365321549
0.0002519635929317015,955.361225221116
0.0002618545958474233,995.6147904874008
0.0002721338768375308,1037.5546440076678
0.0002828166780230032,1081.2502218554027
0.0002939188398646886,1126.7737049283958
0.0003054568246515432,1174.2000735751158
0.00031744774091091926,1223.6072595923679
0.00032990936877709396,1275.0761449647125
0.00034286018635565856,1328.6906724885537
0.00035631939712285854,1384.5380360385723
0.000370306958400514,1442.708747449182
0.00038484361094874304,1503.2967901322
0.0003999509097203664,1566.3995217789552
0.00041565125582259895,1632.1176770125412
0.00043196792973341727,1700.5557420254013
0.0004489251258218605,1771.8220841412028
0.0004665479882234472,1846.0290852028518
0.000484862648123908,1923.2930393316906
0.000503896262506515,2003.7339736482077
0.0005236770544204653,2087.476138320681
0.0005442343548300266,2174.648109080187
0.0005655986461065005,2265.38292638235
0.0005878016072274912,2359.818067515669
0.0006108761607505036,2458.095031295145
0.0006348565216305217,2560.3599023039055
0.0006597782479539537,2666.763405127441
0.0006856782936641739,2777.460964354578
0.0007125950633568407,2892.612882979938
0.0007405684692262436,3012.383925133378
0.0007696399902471156,3136.9437111090474
0.0007998527336796708,3266.4665862517268
0.000831251498989063,3401.1313304769465
0.0008638828442740447,3541.121687970558
0.000897795155303332,3686.62574694096
0.0009330387172620361,3837.836197213506
0.0009696657893145519,3994.9503555267697
0.001007730682094461,4158.169410232521
0.0010472898382363582,4327.69909166323
0.0010884019160690055,4503.748493640327
0.0011311278765939214,4686.529929523007
0.001175531073878369,4876.259478093932
0.0012216773489967915,5073.155425489167
0.0012696351276599736,5277.439102880198
0.0013194755216767058,5489.333667109577
0.0013712724343984,5709.063008216329
0.0014251026703029975,5936.852795514206
0.0014810460488806749,6172.927789843495
0.0015391855229902056,6417.512541735993
0.001599607301861487,6670.8313308494635
0.0016624009789266115,6933.106611238985
0.0017276596646690358,7204.559480453698
0.0017954801246878305,7485.405632128236
0.0018659629231817451,7775.855122833133
0.001939212572065829,8076.1132013949855
0.0020153376859417325,8386.377010649294
0.002094451143151469,8706.836729454695
0.002176670253153458,9037.672321698252
0.002262116930469025,9379.051577706721
0.002350917875457286,9731.131351476064
0.002443204762186487,10094.05341751895
0.0025391144336803463,10467.945003158487
0.002638789104828933,10852.916718987237
0.002742376573264949,11249.059242516438
0.0028500304385181063,11656.44436220179
0.0029619103297725525,12075.120175407856
0.0030781821425650787,12505.110571812631
0.003199018284775064,12946.414783649217
0.0033245979322709396,13399.00376177219
0.003455107294592217,13862.820271960169
0.0035907398910610534,14337.772887961588
0.0037316968377327513,14823.733838982085
0.0038781871456107214,15320.539986125343
0.0040304280305680515,15827.985948291946
0.00418864523543527,16345.825974857173
0.004353073364731888,16873.769903849654
0.00452395623253805,17411.47891442463
0.004701547224022131,17958.567442552052
0.004886109671160325,18514.591421064863
0.005077917243205399,19079.051361174093
0.005277254352483535,19651.396807388835
0.005484416576121017,20231.026076734677
0.005699711094326071,20817.280703661167
0.005923457145875801,21409.39558855932
0.006155986501483508,22006.503577068022
0.006397643955748424,22607.70883233566
0.0066487878384172625,23212.203899663353
0.0069097905457156435,23819.163264960145
0.007181039092537346,24427.443768742633
0.007462935686310132,25035.496179115657
0.007755898323389004,25641.69357361119
0.00806036140886134,26244.598001494032
0.008376776400682916,26842.818438891987
0.008705612479099857,27434.90974435022
0.009047357242349292,28019.37619532032
0.00940251742967013,28594.658286259815
0.009771619672696168,29158.960515915554
0.010155211276345676,29710.311003542563
0.010553861030365234,30246.654695577592
0.010968160052731372,30765.80732404266
0.011398722666160517,31265.522597757437
0.011846187309026826,31743.48517441635
0.012311217482038896,32197.320803438754
0.012794502732078732,32624.614640671316
0.013296759674662111,33022.82025344129
0.013818733056536317,33389.357721844455
0.014361196859990781,33721.586600074355
0.014924955450518284,34016.774459915076
0.015510844769528393,34272.21999223964
0.016119733573881575,34485.14349875562
0.01675252472408214,34652.78853959522
0.017410156523040152,34772.4763326861
0.018093604107387147,34841.552593872555
0.01880388089340914,34857.5311856124
0.019542040079740527,34818.025276206914
0.02030917620904734,34720.80866921088
0.021106426791015535,34563.939203836686
0.021934973989050584,34345.74177661469
0.02279604637318978,34064.90341205051
0.023690920741826323,33720.55236275145
0.02462092401494623,33312.29423546375
0.02558743520168586,32840.24451072835
0.02659188744512693,32305.26621162556
0.027635770147361564,31708.813724442898
0.028720631177978267,31053.11318408709
0.029848079169243254,30341.411156573005
0.03101978590138095,29577.470222004536
0.03223748878149028,28766.31360776315
0.0335029934197723,27913.744286499998
0.03481817630688963,27026.130728627682
0.03618498759642746,26111.36634729967
0.037605453996581675,25177.34015411855
0.03908168177536263,24232.91819229466
0.04061585988376978,23287.665085978027
0.04221026320156896,22350.580529535782
0.04386725591048496,21431.731180073777
0.0455892949998106,20540.430098246492
0.047378933909631396,19685.134767230636
0.049238826317067365,18873.838565308495
0.05117173007114603,18113.16650598829
0.05318051128214196,17408.72379900464
0.05526814857144601,16765.158320554034
0.057437737488265785,16184.987407734061
0.0596924950997073,15667.072248190636
0.0620357647610427,15209.129792401905
0.06447102107323864,14800.498955036464
0.06700187503509585,14426.299992564127
0.06963207939763882,14074.413823100507
0.0723655342286965,13735.481534380131
0.07520629269592405,13397.889050445603
0.07815856707684081,13046.162060927152
0.08122673500479707,12663.273922995551
0.08441534596012978,12231.190094487052
0.0877291280161335,11737.03847194054
0.09117299484984914,11175.150845439512
0.09475205302806537,10552.715395365447
0.09847160957933764,9886.520655625716
0.1023371798632519,9200.437917351019
0.10635449574860109,8519.371734148146
0.11052951411260206,7868.754638289735
0.1148684256737553,7273.747953507173
0.1193776641714435,6757.064822750728
0.1240639159058831,6334.62853285859
0.12893412965257148,6009.439411132078
0.13399552696593373,5769.329817613103
0.1392556128874462,5587.021124218413
0.14472218707411338,5428.223586000952
0.15040335536380234,5257.8353623195835
0.15630754179458153,5046.962579982336
0.16244350109588662,4779.4813700035365
0.16882033167003618,4455.903150900812
0.17544748908334581,4094.1076267034223
0.1823348000868439,3727.6017065422657
0.189492477187382,3397.714923210757
0.19693113379074215,3135.010828516788
0.20466179993919872,2944.4989701555855
0.21269593866686892,2810.15171156299
0.22104546299710207,2703.900780915211
0.22972275360711503,2589.186735256524
0.23874067718606454,2438.8475446596817
0.2481126055137766,2254.0912309319224
0.25785243528842716,2057.6420941908455
0.26797460873256895,1879.3051789618255
0.27849413500806414,1739.916834151223
0.28942661247167484,1638.6343724792998
0.3007882518043098,1555.13696210066
0.31259590004822796,1464.0164445089977
0.324867065587837,1356.902197330514
0.3376199441111335,1244.411405256702
0.35087344559027084,1144.3638294025627
0.36464722232127456,1065.2460993063191
0.37896169806447155,998.6638359877458
0.3938380983288488,931.6562451064831
0.4092984818452433,860.1847345568925
0.4253657732750382,791.9965666993113
0.44206379720285277,733.4331109477178
0.45941731346364734,682.2897935737784
0.47745205385661277,632.5005633354962
0.4961947603002895,583.5164887270154
0.5156732244854959,538.7128740317783
0.5359163290848509,498.72810572098564
0.556954090580013,461.1986738616779
0.5788177037701272,425.4439750388999
0.6015395880274836,392.6117223797885
0.6251534353689703,362.55685480128636
0.6496942604146115,334.3911458481784
0.6751984523072497,308.23326329461344
0.7017038286703824,284.16730893278736
0.7292496916841444,261.8287597882775
0.7578768863625915,241.13494171862197
0.7876278611187046,222.02400028372912
0.8185467307069019,204.34416838711525
0.850679341636415,188.00000035396005
0.8840733401525058,172.91220922107036
0.9187782428863317,158.98777401930965
0.9548455102782278,146.13997437495834
0.9923286228832539,134.28840721263907
1.0312831606721837,123.35853000524563
1.0717668854455022,113.28156925906879
1.1138398264826193,103.99486521781922
1.1575643695533022,95.44022493095407
1.2030053494233226,87.5633319972126
1.2502301459914542,80.3135310610322
1.299308784200415,73.64361337162133
1.3503140378698726,67.50941995124855
1.4033215376054824,61.86969077403593
1.4584098829439835,56.686162697767784
1.5156607589006013,51.92338292416065
1.575159057091621,47.548516475111114
1.6369930016117014,43.53117161331874
1.7012542798525885,39.84325964605599
1.7680381784572046,36.45880106762788
1.8374437246107238,33.353761252147414
1.9095738328780953,30.505914972586538
1.9845354578058014,27.894719407647354
2.0624397525140905,25.50119180224479
2.143402233514853,23.30779641836906
2.227542951999554,21.298347925092486
2.314986671851158,19.457914302516006
2.405863054644063,17.772725291365685
2.5003068519063225,16.230086264245696
2.598458104929248,14.818291191334731
2.7004623524206774,13.526554543119282
2.806470846309834,12.344948565896749
2.916640776023701,11.264338215583324
3.031135501567576,10.276320623285766
3.150124795755327,9.373169056598213
3.2737850959485697,8.547781053365975
3.4022997656780634,7.793629627687179
3.5358593665351745,7.104718430721264
3.6746619407366854,6.475540323245183
3.8189133047818515,5.90103896872062
3.968827354637162,5.376572214826783
4.1246263829013445,4.8978796589260725
4.286541408420921,4.461053729267346
4.4548125188449825,4.062511514127101
4.629689226627261,3.6989686764121377
4.811430839003257,3.367415296848001
5.000306842491082,3.0650933370463096
5.196597302486189,2.789476589626447
5.400593278542364,2.5382519454700923
5.612597255954967,2.309301941312176
5.8329235942862,2.10068868366659
6.06189899349756,1.9106389403310804
6.29986297838068,1.7375304881570992
6.547168402004727,1.579879795462534
6.804181968927091,1.4363304929903877
7.071284778942991,1.3056427520835012
7.348872892180382,1.1866834996995927
7.637357916378006,1.0784172572535289
7.937167617217536,0.9798980812305387
8.248746552614573,0.89026214495022
8.572556731909314,0.8087207695345371
8.909078300934132,0.7345540287215616
9.258810253973934,0.6671048260846788
9.622271173675122,0.6057734392595598
9.999999999999984,0.5500127745131744
