k [1/Mpc],P(k) [Mpc^3]
0.0001,70.33046775582366
0.00010392556829367125,73.0906381374026
0.00010800523745162529,75.9590760013698
0.00011224505680853065,78.94001643756195
0.00011665131316981963,82.03786190541283
0.00012123054013376525,85.25719083561232
0.00012598952777950273,88.60276066230567
0.00013093533273536104,92.07951114605882
0.00013607528864243335,95.6925725657786
0.00014141701702890234,99.4472748977662
0.00014696843861124463,103.34915551331036
0.00015273778503907136,107.40396708973067
0.00015873361110102093,111.61768297282865
0.00016496480740980205,115.99650557469059
0.0001714406135851971,120.54687801021389
0.00017817063195457305,125.27549491708037
0.00018516484179121546,130.1893109093621
0.000192433614111598,135.2955444210547
0.00019998772705352857,140.6016844995266
0.0002078383818579757,146.11550862914171
0.00021599721947827182,151.84509944000226
0.0002244763378413224,157.79885395148858
0.0002332883097864157,163.9854866925968
0.00024244620170823283,170.41403242497404
0.0002519635929317015,177.0938692839439
0.0002618545958474233,184.03473310527056
0.0002721338768375308,191.24673082404053
0.0002828166780230032,198.74034954867486
0.0002939188398646886,206.5264553727232
0.0003054568246515432,214.6163202442186
0.00031744774091091926,223.02164865893542
0.00032990936877709396,231.75459621723283
0.00034286018635565856,240.82777080788784
0.00035631939712285854,250.25420598773815
0.000370306958400514,260.0473996474436
0.00038484361094874304,270.2213558144733
0.0003999509097203664,280.7906108914995
0.00041565125582259895,291.7702368518118
0.00043196792973341727,303.1758164457772
0.0004489251258218605,315.02347078427414
0.0004665479882234472,327.3298999446175
0.000484862648123908,340.11239376411487
0.000503896262506515,353.3888582533037
0.0005236770544204653,367.17779906530507
0.0005442343548300266,381.49833394890965
0.0005655986461065005,396.37024602704423
0.0005878016072274912,411.81399785160323
0.0006108761607505036,427.85075700229487
0.0006348565216305217,444.5023652317245
0.0006597782479539537,461.79131406000516
0.0006856782936641739,479.7408346640832
0.0007125950633568407,498.3749040820861
0.0007405684692262436,517.718273106777
0.0007696399902471156,537.7964701489684
0.0007998527336796708,558.6357687744608
0.000831251498989063,580.2632566322789
0.0008638828442740447,602.7067798313648
0.000897795155303332,625.994958195265
0.0009330387172620361,650.1572500993951
0.0009696657893145519,675.2238976865129
0.001007730682094461,701.2259929894665
0.0010472898382363582,728.1954146083145
0.0010884019160690055,756.1647835966891
0.0011311278765939214,785.1675704442192
0.001175531073878369,815.2379848946617
0.0012216773489967915,846.4110386093508
0.0012696351276599736,878.7224841224341
0.0013194755216767058,912.2086391379477
0.0013712724343984,946.9065763349565
0.0014251026703029975,982.8539485062287
0.0014810460488806749,1020.0890007233482
0.0015391855229902056,1058.650584103395
0.001599607301861487,1098.5778165333008
0.0016624009789266115,1139.9103136693125
0.0017276596646690358,1182.6880212809008
0.0017954801246878305,1226.9511010976887
0.0018659629231817451,1272.7400324514033
0.001939212572065829,1320.0951346268873
0.0020153376859417325,1369.0567465726135
0.002094451143151469,1419.66508570301
0.002176670253153458,1471.9599075355695
0.002262116930469025,1525.9807423743337
0.002350917875457286,1581.766330176494
0.002443204762186487,1639.3546444767692
0.0025391144336803463,1698.7828537875653
0.002638789104828933,1760.0866620390632
0.002742376573264949,1823.300657827276
0.0028500304385181063,1888.4578184787135
0.0029619103297725525,1955.5892785489336
0.0030781821425650787,2024.7244040439082
0.003199018284775064,2095.889830193471
0.0033245979322709396,2169.1097835317346
0.003455107294592217,2244.4057589987647
0.0035907398910610534,2321.7960052573294
0.0037316968377327513,2401.2956992484806
0.0038781871456107214,2482.915803878808
0.0040304280305680515,2566.66317183716
0.00418864523543527,2652.5405122541188
0.004353073364731888,2740.54564576228
0.00452395623253805,2830.6716944661603
0.004701547224022131,2922.9058665243138
0.004886109671160325,3017.229184402995
0.005077917243205399,3113.61673467461
0.005277254352483535,3212.0364653116803
0.005484416576121017,3312.449576051419
0.005699711094326071,3414.809368764619
0.005923457145875801,3519.060390102008
0.006155986501483508,3625.139258015015
0.006397643955748424,3732.9732650532173
0.0066487878384172625,3842.4806847994496
0.0069097905457156435,3953.5677108244436
0.007181039092537346,4066.123808783559
0.007462935686310132,4180.028000587143
0.007755898323389004,4295.161120903843
0.00806036140886134,4411.403671521348
0.008376776400682916,4528.615219215863
0.008705612479099857,4646.599794757675
0.009047357242349292,4765.137137817711
0.00940251742967013,4884.010857299176
0.009771619672696168,5003.013435242397
0.010155211276345676,5121.927452291123
0.010553861030365234,5240.52587084363
0.010968160052731372,5358.571475186173
0.011398722666160517,5475.804001515215
0.011846187309026826,5591.928717301017
0.012311217482038896,5706.635604957726
0.012794502732078732,5819.596376338761
0.013296759674662111,5930.4673834661035
0.013818733056536317,6038.891287081409
0.014361196859990781,6144.491911458375
0.014924955450518284,6246.882349758195
0.015510844769528393,6345.664027884361
0.016119733573881575,6440.428303859659
0.01675252472408214,6530.758185644439
0.017410156523040152,6616.214180089741
0.018093604107387147,6696.349446569863
0.01880388089340914,6770.713267072525
0.019542040079740527,6838.8508422283
0.02030917620904734,6900.312659766323
0.021106426791015535,6954.651055029056
0.021934973989050584,7001.4275295372345
0.02279604637318978,7040.21970839741
0.023690920741826323,7070.623837269235
0.02462092401494623,7092.261081522963
0.02558743520168586,7104.789891852353
0.02659188744512693,7107.908348223868
0.027635770147361564,7101.358838115627
0.028720631177978267,7084.955654959223
0.029848079169243254,7058.564755769989
0.03101978590138095,7022.135197319375
0.03223748878149028,6975.711067688958
0.0335029934197723,6919.398798554714
0.03481817630688963,6853.446025981418
0.03618498759642746,6778.18191518689
0.037605453996581675,6694.0333057193875
0.03908168177536263,6601.5823913675895
0.04061585988376978,6501.4563598107925
0.04221026320156896,6394.438087675557
0.04386725591048496,6281.404609811274
0.0455892949998106,6163.251716969433
0.047378933909631396,6040.964934269685
0.049238826317067365,5915.51631803741
0.05117173007114603,5787.951947104852
0.05318051128214196,5659.386111230415
0.05526814857144601,5530.776923446033
0.057437737488265785,5402.53873780601
0.0596924950997073,5274.895120704002
0.0620357647610427,5148.403111881381
0.06447102107323864,5024.164788918546
0.06700187503509585,4903.050520976818
0.06963207939763882,4783.980368226377
0.0723655342286965,4664.907597922647
0.07520629269592405,4544.337073982894
0.07815856707684081,4421.670571612547
0.08122673500479707,4296.458446819429
0.08441534596012978,4168.198579987215
0.0877291280161335,4036.4309245591476
0.09117299484984914,3900.65380558314
0.09475205302806537,3760.375647319833
0.09847160957933764,3614.9184773799643
0.1023371798632519,3464.470538220415
0.10635449574860109,3311.0681902164765
0.11052951411260206,3157.6910047289725
0.1148684256737553,3007.7632558801206
0.1193776641714435,2864.1567239172273
0.1240639159058831,2728.8012156227082
0.12893412965257148,2602.6602680774463
0.13399552696593373,2486.0012764686594
0.1392556128874462,2378.418962510807
0.14472218707411338,2278.302083071673
0.15040335536380234,2182.896798822652
0.15630754179458153,2088.6364051583537
0.16244350109588662,1992.5654030618591
0.16882033167003618,1893.14746383971
0.17544748908334581,1790.7213673652025
0.1823348000868439,1687.4484034872687
0.189492477187382,1586.759853582396
0.19693113379074215,1491.9672432227003
0.20466179993919872,1405.0154959377473
0.21269593866686892,1326.419159595646
0.22104546299710207,1255.4645785413993
0.22972275360711503,1189.539884243127
0.23874067718606454,1124.9938180338365
0.2481126055137766,1059.9063976620614
0.25785243528842716,994.5521266629971
0.26797460873256895,930.3583674917777
0.27849413500806414,869.9882411771989
0.28942661247167484,815.1779911855357
0.3007882518043098,765.1612418302367
0.31259590004822796,718.5129300871026
0.324867065587837,673.5700949072706
0.3376199441111335,629.535936630262
0.35087344559027084,587.1682447130034
0.36464722232127456,547.5709005203747
0.37896169806447155,511.1495654483162
0.3938380983288488,477.234459340775
0.4092984818452433,445.03938105376636
0.4253657732750382,414.2892816304822
0.44206379720285277,385.3776485942017
0.45941731346364734,358.4501461570333
0.47745205385661277,333.38882969424566
0.4961947603002895,309.76056242200167
0.5156732244854959,287.5757377742068
0.5359163290848509,266.83956336981606
0.556954090580013,247.52669587069101
0.5788177037701272,229.46271079805425
0.6015395880274836,212.57817084351416
0.6251534353689703,196.85876199657946
0.6496942604146115,182.20561576186748
0.6751984523072497,168.55238812208955
0.7017038286703824,155.85092128444413
0.7292496916841444,144.03467666771678
0.7578768863625915,133.04606398997856
0.7876278611187046,122.83872192422466
0.8185467307069019,113.36295258357258
0.850679341636415,104.56884347698488
0.8840733401525058,96.4148223967709
0.9187782428863317,88.85839789308845
0.9548455102782278,81.86048565745017
0.9923286228832539,75.38265291828912
1.0312831606721837,69.38848851777631
1.0717668854455022,63.844865453716146
1.1138398264826193,58.72070559118673
1.1575643695533022,53.98678901080408
1.2030053494233226,49.615671616216886
1.2502301459914542,45.581594908742694
1.299308784200415,41.86031698813882
1.3503140378698726,38.429101974734934
1.4033215376054824,35.26671815449599
1.4584098829439835,32.353353789667096
1.5156607589006013,29.670534899951086
1.575159057091621,27.201051390139284
1.6369930016117014,24.928895530616398
1.7012542798525885,22.839169125516158
1.7680381784572046,20.918009906807274
1.8374437246107238,19.152528348456077
1.9095738328780953,17.530747339692134
1.9845354578058014,16.041533718035517
2.0624397525140905,14.674540030964252
2.143402233514853,13.420175842212624
2.227542951999554,12.269559328187482
2.314986671851158,11.214469197078701
2.405863054644063,10.247299623859616
2.5003068519063225,9.361019870757996
2.598458104929248,8.54913294718789
2.7004623524206774,7.805636090770575
2.806470846309834,7.124985892575609
2.916640776023701,6.502065664879133
3.031135501567576,5.932154056854756
3.150124795755327,5.410893512270017
3.2737850959485697,4.9342677048459676
3.4022997656780634,4.498577879326702
3.5358593665351745,4.1004191380048
3.6746619407366854,3.7366583587291142
3.8189133047818515,3.404413337692505
3.968827354637162,3.101033497494573
4.1246263829013445,2.824082869490028
4.286541408420921,2.571323633687014
4.4548125188449825,2.3407007503565964
4.629689226627261,2.1303276930478856
4.811430839003257,1.9384729614478262
5.000306842491082,1.7635480042946
5.196597302486189,1.6040962083743853
5.400593278542364,1.4587823903773995
5.612597255954967,1.3263830711346762
5.8329235942862,1.2057774353425799
6.06189899349756,1.0959387907811426
6.29986297838068,0.9959272190197489
6.547168402004727,0.9048826312493395
6.804181968927091,0.8220182152138878
7.071284778942991,0.746614397017229
7.348872892180382,0.6780132571336439
7.637357916378006,0.6156133897310025
7.937167617217536,0.5588652534598595
8.248746552614573,0.5072668412271951
8.572556731909314,0.46035968896162327
8.909078300934132,0.41772520027361354
9.258810253973934,0.37898111851896765
9.622271173675122,0.3437784974329587
9.999999999999984,0.31179906066615914
