k [1/Mpc],P(k) [Mpc^3]
0.0001,44.39309913274266
0.00010392556829367125,46.40152057538941
0.00010800523745162529,48.500681855728196
0.00011224505680853065,50.69466600973477
0.00011665131316981963,52.987738327397324
0.00012123054013376525,55.384354048621276
0.00012598952777950273,57.88916695957985
0.00013093533273536104,60.50703721142757
0.00013607528864243335,63.24303856773055
0.00014141701702890234,66.10246962541393
0.00014696843861124463,69.09086035046313
0.00015273778503907136,72.21398245101632
0.00015873361110102093,75.4778626714954
0.00016496480740980205,78.88879442130552
0.0001714406135851971,82.45334875040727
0.00017817063195457305,86.17838066319084
0.00018516484179121546,90.07103919970838
0.000192433614111598,94.13878457769617
0.00019998772705352857,98.38939500180598
0.0002078383818579757,102.83098368861991
0.00021599721947827182,107.47201311531197
0.0002244763378413224,112.32130676886486
0.0002332883097864157,117.38806707566269
0.00024244620170823283,122.68188094447449
0.0002519635929317015,128.21273803090776
0.0002618545958474233,133.99104653713331
0.0002721338768375308,140.0276339931111
0.0002828166780230032,146.33377866227625
0.0002939188398646886,152.9212252943455
0.0003054568246515432,159.80220239864275
0.00031744774091091926,166.9894392405585
0.00032990936877709396,174.49615512485158
0.00034286018635565856,182.3360970241336
0.00035631939712285854,190.52355712517053
0.000370306958400514,199.073383572045
0.00038484361094874304,208.0010101201988
0.0003999509097203664,217.3224322215523
0.00041565125582259895,227.05424304685505
0.00043196792973341727,237.21366684995476
0.0004489251258218605,247.81856317733673
0.0004665479882234472,258.887461143316
0.000484862648123908,270.439528124329
0.000503896262506515,282.4945899558324
0.0005236770544204653,295.0731781095026
0.0005442343548300266,308.1965088484617
0.0005655986461065005,321.8865306546751
0.0005878016072274912,336.16590170086386
0.0006108761607505036,351.0579820550505
0.0006348565216305217,366.5868934117558
0.0006597782479539537,382.7774699916929
0.0006856782936641739,399.65530373010773
0.0007125950633568407,417.24672973930194
0.0007405684692262436,435.5787690289857
0.0007696399902471156,454.6792116027143
0.0007998527336796708,474.5765417175216
0.000831251498989063,495.29995703580687
0.0008638828442740447,516.8793636726814
0.000897795155303332,539.3452170614745
0.0009330387172620361,562.7286423825884
0.0009696657893145519,587.06128697805
0.001007730682094461,612.3752629909673
0.0010472898382363582,638.703231747043
0.0010884019160690055,666.078149642034
0.0011311278765939214,694.5333705225595
0.001175531073878369,724.1024553096432
0.0012216773489967915,754.8189274589906
0.0012696351276599736,786.7164795471429
0.0013194755216767058,819.8286221229687
0.0013712724343984,854.1887102184855
0.0014251026703029975,889.829847190703
0.0014810460488806749,926.7844637935955
0.0015391855229902056,965.0845342861135
0.001599607301861487,1004.7613433499514
0.0016624009789266115,1045.8453579245331
0.0017276596646690358,1088.3660571968805
0.0017954801246878305,1132.351140897916
0.0018659629231817451,1177.8268290930089
0.001939212572065829,1224.817580773835
0.0020153376859417325,1273.3457509752423
0.002094451143151469,1323.431674546201
0.002176670253153458,1375.093112544089
0.002262116930469025,1428.3452075356997
0.002350917875457286,1483.2001540687622
0.002443204762186487,1539.6666082051158
0.0025391144336803463,1597.7498352124403
0.002638789104828933,1657.4510084862968
0.002742376573264949,1718.7670276531592
0.0028500304385181063,1781.6904004162259
0.0029619103297725525,1846.2084768504626
0.0030781821425650787,1912.3035902912509
0.003199018284775064,1979.9525364918163
0.0033245979322709396,2049.126199960244
0.003455107294592217,2119.789499993797
0.0035907398910610534,2191.9004633786853
0.0037316968377327513,2265.4103593884447
0.0038781871456107214,2340.2630953457337
0.0040304280305680515,2416.39443429513
0.00418864523543527,2493.732458994468
0.004353073364731888,2572.196102563492
0.00452395623253805,2651.695394402762
0.004701547224022131,2732.131897578543
0.004886109671160325,2813.398282393316
0.005077917243205399,2895.378051297766
0.005277254352483535,2977.936419259205
0.005484416576121017,3060.9200148960963
0.005699711094326071,3144.1711608109135
0.005923457145875801,3227.553611545506
0.006155986501483508,3310.93257684266
0.006397643955748424,3394.1162378629124
0.0066487878384172625,3476.8289396963282
0.0069097905457156435,3558.779796284819
0.007181039092537346,3639.7188765534793
0.007462935686310132,3719.4129817548583
0.007755898323389004,3797.6193342861316
0.00806036140886134,3874.0828519452357
0.008376776400682916,3948.5390084861306
0.008705612479099857,4020.680865764081
0.009047357242349292,4090.167142976829
0.00940251742967013,4156.644080943512
0.009771619672696168,4219.734292508491
0.010155211276345676,4279.051500042316
0.010553861030365234,4334.188691705607
0.010968160052731372,4384.717091180374
0.011398722666160517,4430.205466105904
0.011846187309026826,4470.205097674293
0.012311217482038896,4504.26762331061
0.012794502732078732,4531.928952933526
0.013296759674662111,4552.689764840134
0.013818733056536317,4566.062964859656
0.014361196859990781,4571.531912581568
0.014924955450518284,4568.581487267132
0.015510844769528393,4556.720128410959
0.016119733573881575,4535.448371943426
0.01675252472408214,4504.318230978952
0.017410156523040152,4462.881671817432
0.018093604107387147,4410.710232141291
0.01880388089340914,4347.458750659891
0.019542040079740527,4272.801542026307
0.02030917620904734,4186.523418047066
0.021106426791015535,4088.494499749193
0.021934973989050584,3978.658123298337
0.02279604637318978,3857.134549921261
0.023690920741826323,3724.139142733333
0.02462092401494623,3580.0676057979636
0.02558743520168586,3425.516476167964
0.02659188744512693,3261.2327253639382
0.027635770147361564,3088.2132199407984
0.028720631177978267,2907.6558609797194
0.029848079169243254,2720.965187227637
0.03101978590138095,2529.771528309819
0.03223748878149028,2335.8928201714184
0.0335029934197723,2141.2818149900268
0.03481817630688963,1948.0837330825057
0.03618498759642746,1758.5351920231894
0.037605453996581675,1574.7707696154941
0.03908168177536263,1398.9832744816397
0.04061585988376978,1233.050926061606
0.04221026320156896,1078.8016757667813
0.04386725591048496,938.0881799477711
0.0455892949998106,811.9056539982034
0.047378933909631396,700.9874006252347
0.049238826317067365,605.4404404647961
0.05117173007114603,524.8702887275367
0.05318051128214196,459.05862568219123
0.05526814857144601,407.28583873152587
0.057437737488265785,368.8025920578265
0.0596924950997073,343.06627821064865
0.0620357647610427,329.0845165450823
0.06447102107323864,325.4683576956152
0.06700187503509585,331.39065715516375
0.06963207939763882,346.2273523270619
0.0723655342286965,369.075822704068
0.07520629269592405,397.88622689695455
0.07815856707684081,429.79151448201884
0.08122673500479707,460.86737460741466
0.08441534596012978,486.45484002186544
0.0877291280161335,501.6786612818097
0.09117299484984914,502.3979406599746
0.09475205302806537,485.91062642150456
0.09847160957933764,451.670318074313
0.1023371798632519,401.5997327619298
0.10635449574860109,340.067477698216
0.11052951411260206,274.3655654962064
0.1148684256737553,212.3518848549862
0.1193776641714435,160.20326422701686
0.1240639159058831,121.23277058883126
0.12893412965257148,95.99257277437655
0.13399552696593373,83.41170019389638
0.1392556128874462,82.1140419173055
0.14472218707411338,90.662709486135
0.15040335536380234,107.19139785363328
0.15630754179458153,128.08804160939266
0.16244350109588662,146.751986626258
0.16882033167003618,154.96491551890415
0.17544748908334581,147.53550416254467
0.1823348000868439,125.7565533718075
0.189492477187382,96.50114932755281
0.19693113379074215,68.74512358798265
0.20466179993919872,49.273253321864
0.21269593866686892,40.15888794560856
0.22104546299710207,40.28468115512099
0.22972275360711503,47.58648204043471
0.23874067718606454,57.96905353582522
0.2481126055137766,64.41175214641228
0.25785243528842716,61.19981040210205
0.26797460873256895,49.190200746586996
0.27849413500806414,35.5351033849504
0.28942661247167484,26.602878843097333
0.3007882518043098,24.322609002558664
0.31259590004822796,27.32174836722693
0.324867065587837,31.490465314770407
0.3376199441111335,31.638140525552437
0.35087344559027084,26.393508186826153
0.36464722232127456,20.014901536802483
0.37896169806447155,16.714511348640592
0.3938380983288488,17.068649335098623
0.4092984818452433,18.495582444512056
0.4253657732750382,17.655276968026424
0.44206379720285277,14.547823562962012
0.45941731346364734,12.097066537589113
0.47745205385661277,11.683421780210962
0.4961947603002895,11.89997034361003
0.5156732244854959,10.900046997280908
0.5359163290848509,9.243491282967291
0.556954090580013,8.438701768997117
0.5788177037701272,8.25361800632199
0.6015395880274836,7.5976424677798144
0.6251534353689703,6.67655326845619
0.6496942604146115,6.1996386454732395
0.6751984523072497,5.8394653528853775
0.7017038286703824,5.270934290566977
0.7292496916841444,4.806978214600244
0.7578768863625915,4.48641042554081
0.7876278611187046,4.152724992094174
0.8185467307069019,3.815135829574496
0.850679341636415,3.486978276957885
0.8840733401525058,3.1781224373401304
0.9187782428863317,2.8953021561759322
0.9548455102782278,2.6421789204508954
0.9923286228832539,2.4163399379945654
1.0312831606721837,2.2132378828584605
1.0717668854455022,2.02914950710127
1.1138398264826193,1.8610477721390861
1.1575643695533022,1.7064758750030902
1.2030053494233226,1.5636029153516207
1.2502301459914542,1.4316435755818848
1.299308784200415,1.3100577397740314
1.3503140378698726,1.1982792832436586
1.4033215376054824,1.0957279597672338
1.4584098829439835,1.0018194765474437
1.5156607589006013,0.9159322965115413
1.575159057091621,0.8373702800238231
1.6369930016117014,0.7654849015343399
1.7012542798525885,0.6996893766679773
1.7680381784572046,0.6394522862518134
1.8374437246107238,0.5842921170846462
1.9095738328780953,0.5337816455268686
1.9845354578058014,0.48754324595835796
2.0624397525140905,0.4452291847240005
2.143402233514853,0.40651834529500264
2.227542951999554,0.3711143868978633
2.314986671851158,0.33874388296115177
2.405863054644063,0.30915295247052926
2.5003068519063225,0.28210685212592695
2.598458104929248,0.25739027750755505
2.7004623524206774,0.23480582975001454
2.806470846309834,0.21417255313033204
2.916640776023701,0.195324622758707
3.031135501567576,0.17811029216845548
3.150124795755327,0.16239054419769436
3.2737850959485697,0.148037934446651
3.4022997656780634,0.1349356526682512
3.5358593665351745,0.122976658415039
3.6746619407366854,0.11206288045405874
3.8189133047818515,0.1021044738225363
3.968827354637162,0.09301916149713296
4.1246263829013445,0.08473161594428785
4.286541408420921,0.07717288558316998
4.4548125188449825,0.0702798672638891
4.629689226627261,0.06399481900187724
4.811430839003257,0.0582649128384382
5.000306842491082,0.05304183020009583
5.196597302486189,0.048281385554761545
5.400593278542364,0.04394318009621209
5.612597255954967,0.039990283358378835
5.8329235942862,0.036388930778607206
6.06189899349756,0.033108258893940035
6.29986297838068,0.030120074037783898
6.547168402004727,0.02739862591692947
6.804181968927091,0.024920399276535984
7.071284778942991,0.022663923512932043
7.348872892180382,0.020609602765523594
7.637357916378006,0.018739551485911634
7.937167617217536,0.017037443571678856
8.248746552614573,0.015488378642022268
8.572556731909314,0.01407875962234762
8.909078300934132,0.012796179570220834
9.258810253973934,0.011629314714763575
9.622271173675122,0.010567836319287973
9.999999999999984,0.009602326749994707
