k [1/Mpc],P(k) [Mpc^3]
0.0001,4637.158316120977
0.00010392556829367125,4818.249003237188
0.00010800523745162529,5006.334245955995
0.00011224505680853065,5201.675096889049
0.00011665131316981963,5404.541418485597
0.00012123054013376525,5615.211591620293
0.00012598952777950273,5833.973311214019
0.00013093533273536104,6061.122802973902
0.00013607528864243335,6296.965099217315
0.00014141701702890234,6541.814960813628
0.00014696843861124463,6795.996466360343
0.00015273778503907136,7059.843739568012
0.00015873361110102093,7333.699953759483
0.00016496480740980205,7617.916929369384
0.0001714406135851971,7912.856492593388
0.00017817063195457305,8218.888745321347
0.00018516484179121546,8536.393235000918
0.000192433614111598,8865.758729797497
0.00019998772705352857,9207.382015260671
0.0002078383818579757,9561.669392069009
0.00021599721947827182,9929.033630848802
0.0002244763378413224,10309.89473166186
0.0002332883097864157,10704.680366710305
0.00024244620170823283,11113.82261288309
0.0002519635929317015,11537.760590126822
0.0002618545958474233,11976.937938392964
0.0002721338768375308,12431.802150308986
0.0002828166780230032,12902.805419486129
0.0002939188398646886,13390.39906693068
0.0003054568246515432,13895.036434636102
0.00031744774091091926,14417.16996835461
0.00032990936877709396,14957.248004552133
0.00034286018635565856,15515.71806401585
0.00035631939712285854,16093.022648485348
0.000370306958400514,16689.599741169903
0.00038484361094874304,17305.879389751684
0.0003999509097203664,17942.276846901375
0.00041565125582259895,18599.19748586565
0.00043196792973341727,19277.032966056082
0.0004489251258218605,19976.160042267096
0.0004665479882234472,20696.938333336446
0.000484862648123908,21439.701098097757
0.000503896262506515,22204.75931626013
0.0005236770544204653,22992.396714245122
0.0005442343548300266,23802.866264837085
0.0005655986461065005,24636.38948034701
0.0005878016072274912,25493.140692456345
0.0006108761607505036,26373.252355234516
0.0006348565216305217,27276.80971232258
0.0006597782479539537,28203.84164472724
0.0006856782936641739,29154.324494476004
0.0007125950633568407,30128.154568747264
0.0007405684692262436,31125.15354372482
0.0007696399902471156,32145.06961230306
0.0007998527336796708,33187.55868810314
0.000831251498989063,34252.19565685024
0.0008638828442740447,35338.45051795534
0.000897795155303332,36445.68537850416
0.0009330387172620361,37573.16349701634
0.0009696657893145519,38720.02998565507
0.001007730682094461,39885.32077571411
0.0010472898382363582,41067.955811672866
0.0010884019160690055,42266.732646648576
0.0011311278765939214,43480.32773152144
0.001175531073878369,44707.26715578064
0.0012216773489967915,45945.93968944605
0.0012696351276599736,47194.61494589967
0.0013194755216767058,48451.451001302004
0.0013712724343984,49714.47676891632
0.0014251026703029975,50981.54215299362
0.0014810460488806749,52250.33280787593
0.0015391855229902056,53518.478171959294
0.001599607301861487,54783.717592131834
0.0016624009789266115,56043.73075229775
0.0017276596646690358,57295.986023997655
0.0017954801246878305,58537.73877773928
0.0018659629231817451,59766.12130168357
0.001939212572065829,60978.084056727406
0.0020153376859417325,62170.45835771124
0.002094451143151469,63340.07622442761
0.002176670253153458,64483.82716939203
0.002262116930469025,65598.56554634986
0.002350917875457286,66681.15684732432
0.002443204762186487,67728.46627206785
0.0025391144336803463,68737.36510711756
0.002638789104828933,69704.76472786604
0.002742376573264949,70627.60460552208
0.0028500304385181063,71502.91919117564
0.0029619103297725525,72327.83778641869
0.0030781821425650787,73099.5370601034
0.003199018284775064,73815.20511110952
0.0033245979322709396,74472.1070152214
0.003455107294592217,75067.64508314442
0.0035907398910610534,75599.37765258588
0.0037316968377327513,76064.80083277625
0.0038781871456107214,76460.43442363174
0.0040304280305680515,76782.57487289245
0.00418864523543527,77029.48694306087
0.004353073364731888,77202.62482480331
0.00452395623253805,77303.27804034238
0.004701547224022131,77326.6656008543
0.004886109671160325,77264.82713508276
0.005077917243205399,77112.07920000878
0.005277254352483535,76868.23054140275
0.005484416576121017,76534.20438078104
0.005699711094326071,76110.90792316881
0.005923457145875801,75599.29360362179
0.006155986501483508,75000.06862616815
0.006397643955748424,74312.02991112822
0.0066487878384172625,73533.82498862025
0.0069097905457156435,72664.06628185012
0.007181039092537346,71701.26739020154
0.007462935686310132,70644.502736094
0.007755898323389004,69493.45431149792
0.00806036140886134,68248.46285537582
0.008376776400682916,66910.07087914205
0.008705612479099857,65478.651178511085
0.009047357242349292,63955.207933836406
0.00940251742967013,62340.15442732442
0.009771619672696168,60634.084968648625
0.010155211276345676,58838.04782708408
0.010553861030365234,56952.24043978176
0.010968160052731372,54978.11246741984
0.011398722666160517,52918.3100308635
0.011846187309026826,50776.820870992444
0.012311217482038896,48558.58103665633
0.012794502732078732,46266.233087992274
0.013296759674662111,43904.02273451788
0.013818733056536317,41478.17499737718
0.014361196859990781,38996.63759397623
0.014924955450518284,36469.34980239597
0.015510844769528393,33900.723078748946
0.016119733573881575,31297.04741151808
0.01675252472408214,28675.745684449776
0.017410156523040152,26067.63999794494
0.018093604107387147,23500.28225224016
0.01880388089340914,20954.577511804968
0.019542040079740527,18402.59205869765
0.02030917620904734,15885.44369356633
0.021106426791015535,13557.645363859092
0.021934973989050584,11517.192406400183
0.02279604637318978,9578.117310604097
0.023690920741826323,7477.485659126662
0.02462092401494623,5355.142218647377
0.02558743520168586,3851.0693983253013
0.02659188744512693,3155.6447107251342
0.027635770147361564,2602.75343024403
0.028720631177978267,1261.4470966689244
0.029848079169243254,228.7900630490185
0.03101978590138095,31.902005633546697
0.03223748878149028,13.26035188490521
0.0335029934197723,32.98037330696481
0.03481817630688963,179.35626819805455
0.03618498759642746,628.278170647561
0.037605453996581675,1024.0417987984622
0.03908168177536263,1179.3406998366909
0.04061585988376978,1367.2084769037021
0.04221026320156896,1598.5162090265992
0.04386725591048496,1728.4288972156965
0.0455892949998106,1662.9020478012214
0.047378933909631396,1454.4920161412745
0.049238826317067365,1172.0598540028059
0.05117173007114603,832.0956052060671
0.05318051128214196,486.34646376869193
0.05526814857144601,205.28900272826166
0.057437737488265785,56.15187146028476
0.0596924950997073,22.58931890340769
0.0620357647610427,51.08548068440986
0.06447102107323864,287.2086042147208
0.06700187503509585,651.9477448938626
0.06963207939763882,770.1664635945207
0.0723655342286965,902.6554290549759
0.07520629269592405,941.9382142572366
0.07815856707684081,760.410392533229
0.08122673500479707,507.4440670112286
0.08441534596012978,356.47656041358385
0.0877291280161335,49.70865153042143
0.09117299484984914,6.209307428685978
0.09475205302806537,29.869302003939737
0.09847160957933764,139.96750294901224
0.1023371798632519,204.84815126846243
0.10635449574860109,223.22060545740763
0.11052951411260206,165.8044249521203
0.1148684256737553,50.10868203149567
0.1193776641714435,9.82281660012285
0.1240639159058831,13.277771086408164
0.12893412965257148,107.05487594767392
0.13399552696593373,157.48136042333326
0.1392556128874462,151.15984593427567
0.14472218707411338,97.59610952654083
0.15040335536380234,12.507849301734009
0.15630754179458153,1.1892464929828026
0.16244350109588662,23.336317446624644
0.16882033167003618,34.84446557357585
0.17544748908334581,21.480590725613023
0.1823348000868439,2.1339931325139956
0.189492477187382,4.429357555774771
0.19693113379074215,26.765314377715274
0.20466179993919872,28.506182918745594
0.21269593866686892,10.511094425262621
0.22104546299710207,0.35323313757905195
0.22972275360711503,3.323957837889779
0.23874067718606454,3.032878214039871
0.2481126055137766,0.11042426437927519
0.25785243528842716,3.674994354022898
0.26797460873256895,6.00207968478448
0.27849413500806414,2.561858521299153
0.28942661247167484,0.045214190778176455
0.3007882518043098,0.26772845573270165
0.31259590004822796,0.018199468544893776
0.324867065587837,0.8234167917442516
0.3376199441111335,1.2847234998732249
0.35087344559027084,0.3737256136264377
0.36464722232127456,0.013606452255478046
0.37896169806447155,0.05074475342831632
0.3938380983288488,0.33804182684940004
0.4092984818452433,0.3556422044457262
0.4253657732750382,0.1071612256637701
0.44206379720285277,0.06634843963767867
0.45941731346364734,0.15113757282151102
0.47745205385661277,0.15886130741166296
0.4961947603002895,0.08533157152784775
0.5156732244854959,0.07791299343758529
0.5359163290848509,0.09895741923627187
0.556954090580013,0.07811251548573817
0.5788177037701272,0.0626638739024813
0.6015395880274836,0.06584801544418169
0.6251534353689703,0.0574267897303144
0.6496942604146115,0.04998779758736833
0.6751984523072497,0.04502873033596168
0.7017038286703824,0.040846922877476294
0.7292496916841444,0.03722577664585189
0.7578768863625915,0.03400326259495073
0.7876278611187046,0.03105756722986752
0.8185467307069019,0.028298707424880193
0.850679341636415,0.025690115520139802
0.8840733401525058,0.02325245513559084
0.9187782428863317,0.021002430708722448
0.9548455102782278,0.01894798277074942
0.9923286228832539,0.01709006696795452
1.0312831606721837,0.015423592877304895
1.0717668854455022,0.013931134465248988
1.1138398264826193,0.012590735777930141
1.1575643695533022,0.011383608849232679
1.2030053494233226,0.010293749153448732
1.2502301459914542,0.009307488154796158
1.299308784200415,0.008413497536175171
1.3503140378698726,0.007603321809855175
1.4033215376054824,0.006869576216166803
1.4584098829439835,0.00620545093913096
1.5156607589006013,0.005604677468782381
1.575159057091621,0.005061493890857213
1.6369930016117014,0.004570552678314286
1.7012542798525885,0.004126894453143058
1.7680381784572046,0.0037260161338336316
1.8374437246107238,0.0033638367573859914
1.9095738328780953,0.0030366587454448914
1.9845354578058014,0.0027411310020342087
2.0624397525140905,0.002474205253396115
2.143402233514853,0.002233118999633339
2.227542951999554,0.0020153769224031714
2.314986671851158,0.00181872498334864
2.405863054644063,0.0016411269793288445
2.5003068519063225,0.0014807457356296732
2.598458104929248,0.0013359272221924806
2.7004623524206774,0.00120517568672694
2.806470846309834,0.0010871373740400216
2.916640776023701,0.0009805872529214921
3.031135501567576,0.0008844169356564376
3.150124795755327,0.000797623131483581
3.2737850959485697,0.0007192979440575894
3.4022997656780634,0.0006486206505402573
3.5358593665351745,0.0005848494458285571
3.6746619407366854,0.0005273139222330284
3.8189133047818515,0.0004754080449160012
3.968827354637162,0.00042858294221799
4.1246263829013445,0.0003863426545874199
4.286541408420921,0.0003482396464183173
4.4548125188449825,0.0003138700644640863
4.629689226627261,0.00028286946442468354
4.811430839003257,0.00025490968631609835
5.000306842491082,0.00022969590328679435
5.196597302486189,0.000206961594428768
5.400593278542364,0.00018646564824211192
5.612597255954967,0.00016799000053236416
5.8329235942862,0.00015133743675310737
6.06189899349756,0.00013632890364617177
6.29986297838068,0.0001228022049526908
6.547168402004727,0.00011061117170462555
6.804181968927091,9.962409227432198e-05
7.071284778942991,8.972227340743438e-05
7.348872892180382,8.079883249266426e-05
7.637357916378006,7.275781997484389e-05
7.937167617217536,6.55127292515644e-05
8.248746552614573,5.898543346122697e-05
8.572556731909314,5.310538630719247e-05
8.909078300934132,4.7808896374632e-05
9.258810253973934,4.303836230524919e-05
9.622271173675122,3.874165216106469e-05
9.999999999999984,3.487178800543335e-05
