k [1/Mpc],P(k) [Mpc^3]
0.0001,997.9402434663937
0.00010392556829367125,1042.918191038716
0.00010800523745162529,1089.9064853679483
0.00011224505680853065,1138.992854175945
0.00011665131316981963,1190.268629440417
0.00012123054013376525,1243.8288208253432
0.00012598952777950273,1299.7723186066012
0.00013093533273536104,1358.201748842435
0.00013607528864243335,1419.2236922854843
0.00014141701702890234,1482.9489181208694
0.00014696843861124463,1549.492364383325
0.00015273778503907136,1618.973432177959
0.00015873361110102093,1691.5158893772282
0.00016496480740980205,1767.2479965391217
0.0001714406135851971,1846.302725692265
0.00017817063195457305,1928.8173568771697
0.00018516484179121546,2014.9339908066695
0.000192433614111598,2104.7995003079945
0.00019998772705352857,2198.5654741954704
0.0002078383818579757,2296.388585009474
0.00021599721947827182,2398.429924481631
0.0002244763378413224,2504.8554692335574
0.0002332883097864157,2615.836061238034
0.00024244620170823283,2731.5469477783663
0.0002519635929317015,2852.168405342065
0.0002618545958474233,2977.884858475756
0.0002721338768375308,3108.885094588353
0.0002828166780230032,3245.3623917064147
0.0002939188398646886,3387.5134412098355
0.0003054568246515432,3535.5391761763062
0.00031744774091091926,3689.643847354167
0.00032990936877709396,3850.0347462099407
0.00034286018635565856,4016.9225526041646
0.00035631939712285854,4190.519673187374
0.000370306958400514,4371.040962413153
0.00038484361094874304,4558.702894573406
0.0003999509097203664,4753.7226102249315
0.00041565125582259895,4956.318504266261
0.00043196792973341727,5166.708621963102
0.0004489251258218605,5385.1107195980885
0.0004665479882234472,5611.741164378933
0.000484862648123908,5846.812830968214
0.000503896262506515,6090.536103062851
0.0005236770544204653,6343.11685194471
0.0005442343548300266,6604.755903536628
0.0005655986461065005,6875.647980776557
0.0005878016072274912,7155.9778150237935
0.0006108761607505036,7445.921577202452
0.0006348565216305217,7745.643046400166
0.0006597782479539537,8055.2917621456445
0.0006856782936641739,8375.003430042798
0.0007125950633568407,8704.892802952176
0.0007405684692262436,9045.055892144544
0.0007696399902471156,9395.565837479524
0.0007998527336796708,9756.468106662509
0.000831251498989063,10127.783290379863
0.0008638828442740447,10509.49844534806
0.000897795155303332,10901.56815745249
0.0009330387172620361,11303.913907455712
0.0009696657893145519,11716.418933389983
0.001007730682094461,12138.929588042502
0.0010472898382363582,12571.250173635179
0.0010884019160690055,13013.14141984293
0.0011311278765939214,13464.318443181764
0.001175531073878369,13924.441907281294
0.0012216773489967915,14393.122169919277
0.0012696351276599736,14869.920538836917
0.0013194755216767058,15354.34791807016
0.0013712724343984,15845.859726019753
0.0014251026703029975,16343.843181014074
0.0014810460488806749,16847.623729946885
0.0015391855229902056,17356.492845768713
0.001599607301861487,17869.726013715317
0.0016624009789266115,18386.55181732783
0.0017276596646690358,18906.16161972118
0.0017954801246878305,19427.7045978786
0.0018659629231817451,19950.23585310908
0.001939212572065829,20472.645788597816
0.0020153376859417325,20993.75249859815
0.002094451143151469,21512.415318875806
0.002176670253153458,22027.525013480034
0.002262116930469025,22537.923695071717
0.002350917875457286,23042.372265278667
0.002443204762186487,23539.584658630334
0.0025391144336803463,24028.272391794115
0.002638789104828933,24507.156451515406
0.002742376573264949,24974.94259038531
0.0028500304385181063,25430.33993582411
0.0029619103297725525,25872.055182866734
0.0030781821425650787,26298.77397813675
0.003199018284775064,26709.15265765676
0.0033245979322709396,27101.852449318067
0.003455107294592217,27475.57423483153
0.0035907398910610534,27829.05334691988
0.0037316968377327513,28160.885992052674
0.0038781871456107214,28469.26626070541
0.0040304280305680515,28752.39707975044
0.00418864523543527,29009.51552099959
0.004353073364731888,29240.76008253575
0.00452395623253805,29445.714893901175
0.004701547224022131,29621.33474403238
0.004886109671160325,29763.96472765344
0.005077917243205399,29871.37239186556
0.005277254352483535,29943.09158871452
0.005484416576121017,29978.84326749161
0.005699711094326071,29978.22828066147
0.005923457145875801,29940.878170447173
0.006155986501483508,29866.11852724784
0.006397643955748424,29752.628880651115
0.0066487878384172625,29599.14640554627
0.0069097905457156435,29404.28767961257
0.007181039092537346,29166.708645898245
0.007462935686310132,28885.273338001967
0.007755898323389004,28559.013596966928
0.00806036140886134,28187.227736930185
0.008376776400682916,27769.184144415172
0.008705612479099857,27304.217427406857
0.009047357242349292,26791.869696165908
0.00940251742967013,26231.298942095604
0.009771619672696168,25621.987325107766
0.010155211276345676,24963.34199660139
0.010553861030365234,24254.628369003432
0.010968160052731372,23495.817372185385
0.011398722666160517,22687.102812484638
0.011846187309026826,21829.45296729039
0.012311217482038896,20924.2348963523
0.012794502732078732,19972.739847089746
0.013296759674662111,18977.306020165917
0.013818733056536317,17938.40218457326
0.014361196859990781,16856.839361306425
0.014924955450518284,15737.430436642862
0.015510844769528393,14590.588041415738
0.016119733573881575,13427.553400518475
0.01675252472408214,12243.872872383168
0.017410156523040152,11028.16670246469
0.018093604107387147,9791.574714848944
0.01880388089340914,8593.520488679012
0.019542040079740527,7484.0504266483595
0.02030917620904734,6407.712687907224
0.021106426791015535,5247.733631571858
0.021934973989050584,4032.3112681283906
0.02279604637318978,3053.3219115125225
0.023690920741826323,2464.3557752726547
0.02462092401494623,1999.9292042799343
0.02558743520168586,1161.9900446615932
0.02659188744512693,352.6781065874831
0.027635770147361564,83.53906463902469
0.028720631177978267,37.17951682033506
0.029848079169243254,53.89696849817864
0.03101978590138095,152.46929770262048
0.03223748878149028,416.7456637684381
0.0335029934197723,819.8835892616463
0.03481817630688963,1294.331266925433
0.03618498759642746,1830.9070518070423
0.037605453996581675,2400.341841298757
0.03908168177536263,2946.232920341572
0.04061585988376978,3413.882306552611
0.04221026320156896,3755.3555897968836
0.04386725591048496,3941.212337767754
0.0455892949998106,3952.54846056718
0.047378933909631396,3787.5561335160805
0.049238826317067365,3447.5619228250166
0.05117173007114603,2934.61987503689
0.05318051128214196,2311.5815257252752
0.05526814857144601,1702.752919946881
0.057437737488265785,1149.4166773534544
0.0596924950997073,595.8880088470976
0.0620357647610427,206.43130735889608
0.06447102107323864,55.457711077526795
0.06700187503509585,21.362582599435193
0.06963207939763882,41.99373895686358
0.0723655342286965,197.29673275333607
0.07520629269592405,333.25212678463237
0.07815856707684081,323.10949330273974
0.08122673500479707,299.0785736011301
0.08441534596012978,197.99392384266247
0.0877291280161335,46.02587402900877
0.09117299484984914,18.55771346492166
0.09475205302806537,36.1086908667836
0.09847160957933764,149.75738814227677
0.1023371798632519,371.340473518324
0.10635449574860109,480.63420254824274
0.11052951411260206,522.1703284461377
0.1148684256737553,434.7533670035631
0.1193776641714435,218.97070063963457
0.1240639159058831,143.29039591697753
0.12893412965257148,1.487618091025788
0.13399552696593373,1.7394075340682689
0.1392556128874462,74.57913672902863
0.14472218707411338,47.185224141892355
0.15040335536380234,36.26954447320239
0.15630754179458153,0.5857029035765229
0.16244350109588662,18.284336823401624
0.16882033167003618,77.87171247965225
0.17544748908334581,117.4456232926706
0.1823348000868439,99.55478456156517
0.189492477187382,38.84887297368796
0.19693113379074215,0.021217173256936256
0.20466179993919872,2.2526063822238833
0.21269593866686892,5.604314179151947
0.22104546299710207,0.5535190688138475
0.22972275360711503,5.58581927557041
0.23874067718606454,23.939344525195057
0.2481126055137766,26.57139193529094
0.25785243528842716,10.719624902974644
0.26797460873256895,0.7490702386874544
0.27849413500806414,0.14528749625346643
0.28942661247167484,0.07478986122237083
0.3007882518043098,3.713453908192102
0.31259590004822796,8.232045641734063
0.324867065587837,5.186948824507414
0.3376199441111335,0.992374753219779
0.35087344559027084,0.20408978398070615
0.36464722232127456,1.0160988703179548
0.37896169806447155,2.8025782624731312
0.3938380983288488,2.3210770027560708
0.4092984818452433,0.8141384335802786
0.4253657732750382,0.5152473478266812
0.44206379720285277,1.1341265095732767
0.45941731346364734,1.2790875714922965
0.47745205385661277,0.7460891949283756
0.4961947603002895,0.5510170324051392
0.5156732244854959,0.7176929109479306
0.5359163290848509,0.6924819133386558
0.556954090580013,0.4945450303489874
0.5788177037701272,0.4736331145691122
0.6015395880274836,0.4864368357611345
0.6251534353689703,0.40350003192832756
0.6496942604146115,0.34859778901675176
0.6751984523072497,0.31084555387878043
0.7017038286703824,0.28334981122734837
0.7292496916841444,0.2620207723586247
0.7578768863625915,0.2439266971761287
0.7876278611187046,0.22686633614566604
0.8185467307069019,0.20930633320386252
0.850679341636415,0.19132380799117843
0.8840733401525058,0.17368343534247604
0.9187782428863317,0.15696430707172865
0.9548455102782278,0.14156207522469696
0.9923286228832539,0.1277164451509217
1.0312831606721837,0.11548198784522497
1.0717668854455022,0.10463670364405951
1.1138398264826193,0.09494829974718655
1.1575643695533022,0.08622925871957679
1.2030053494233226,0.07832806632517861
1.2502301459914542,0.0711228405656836
1.299308784200415,0.06453504821868528
1.3503140378698726,0.05852391819646102
1.4033215376054824,0.053050990896574134
1.4584098829439835,0.04807807770458561
1.5156607589006013,0.043567768740401525
1.575159057091621,0.039483369897459805
1.6369930016117014,0.03578546605839787
1.7012542798525885,0.03243575664273631
1.7680381784572046,0.029399989904676793
1.8374437246107238,0.026647533893360536
1.9095738328780953,0.024150963482058203
1.9845354578058014,0.021885926435824238
2.0624397525140905,0.019831259918659114
2.143402233514853,0.01796785156320766
2.227542951999554,0.016278262357533324
2.314986671851158,0.014746588440591724
2.405863054644063,0.013358331517019
2.5003068519063225,0.012100208423047714
2.598458104929248,0.010960049588846655
2.7004623524206774,0.009926816543131555
2.806470846309834,0.008990504342231902
2.916640776023701,0.008142044492939033
3.031135501567576,0.007373219662280973
3.150124795755327,0.006676604437078773
3.2737850959485697,0.006045473021784544
3.4022997656780634,0.005473719011308052
3.5358593665351745,0.004955799045734076
3.6746619407366854,0.004486681663770083
3.8189133047818515,0.004061795768934448
3.968827354637162,0.0036769792267175726
4.1246263829013445,0.0033284584235839993
4.286541408420921,0.0030128156780186025
4.4548125188449825,0.0027269555202863787
4.629689226627261,0.00246807432652721
4.811430839003257,0.0022336380383422114
5.000306842491082,0.002021356465880588
5.196597302486189,0.0018291521892476084
5.400593278542364,0.0016551405161195785
5.612597255954967,0.0014976118494360914
5.8329235942862,0.0013550151910066437
6.06189899349756,0.0012259401698327644
6.29986297838068,0.0011091071790080601
6.547168402004727,0.0010033577081691267
6.804181968927091,0.0009076428811159061
7.071284778942991,0.0008210130575239613
7.348872892180382,0.0007426090156338421
7.637357916378006,0.0006716544610662785
7.937167617217536,0.000607446195406294
8.248746552614573,0.0005493468631842088
8.572556731909314,0.0004967788471007219
8.909078300934132,0.00044921870632665025
9.258810253973934,0.0004061915408450474
9.622271173675122,0.00036726651978375195
9.999999999999984,0.0003320536687966852
