k [1/Mpc],P(k) [Mpc^3]
0.0001,1016.5900069846349
0.00010392556829367125,1050.391858692508
0.00010800523745162529,1085.3159899477268
0.00011224505680853065,1121.3994028186953
0.00011665131316981963,1158.6802974640557
0.00012123054013376525,1197.1981866905126
0.00012598952777950273,1236.9939272596885
0.00013093533273536104,1278.109672771324
0.00013607528864243335,1320.588795602468
0.00014141701702890234,1364.476035718701
0.00014696843861124463,1409.8176439752203
0.00015273778503907136,1456.6614449137544
0.00015873361110102093,1505.0567882953574
0.00016496480740980205,1555.0544435320176
0.0001714406135851971,1606.7067420956137
0.00017817063195457305,1660.0677006148617
0.00018516484179121546,1715.1930866400312
0.000192433614111598,1772.140431780868
0.00019998772705352857,1830.9689475817008
0.0002078383818579757,1891.7396296613051
0.00021599721947827182,1954.515370751298
0.0002244763378413224,2019.3609952491083
0.0002332883097864157,2086.343334071777
0.00024244620170823283,2155.531169804384
0.0002519635929317015,2226.9953029319445
0.0002618545958474233,2300.8086381018247
0.0002721338768375308,2377.046055866176
0.0002828166780230032,2455.7846234963054
0.0002939188398646886,2537.1036221659297
0.0003054568246515432,2621.0845763863376
0.00031744774091091926,2707.8113620093413
0.00032990936877709396,2797.3700402094532
0.00034286018635565856,2889.849046214133
0.00035631939712285854,2985.339122949913
0.000370306958400514,3083.933165963123
0.00038484361094874304,3185.7265623651815
0.0003999509097203664,3290.8169853766226
0.00041565125582259895,3399.3045362175685
0.00043196792973341727,3511.2918289381796
0.0004489251258218605,3626.883777536603
0.0004665479882234472,3746.187878215263
0.000484862648123908,3869.313738785312
0.000503896262506515,3996.373101125537
0.0005236770544204653,4127.4802080672625
0.0005442343548300266,4262.751413723909
0.0005655986461065005,4402.305514435333
0.0005878016072274912,4546.263317687392
0.0006108761607505036,4694.74737394817
0.0006348565216305217,4847.882529162329
0.0006597782479539537,5005.795389050763
0.0006856782936641739,5168.614591602036
0.0007125950633568407,5336.470457280825
0.0007405684692262436,5509.494288066058
0.0007696399902471156,5687.819137289668
0.0007998527336796708,5871.579031963769
0.000831251498989063,6060.909099601902
0.0008638828442740447,6255.945410040522
0.000897795155303332,6456.823547012525
0.0009330387172620361,6663.679705350203
0.0009696657893145519,6876.649662461277
0.001007730682094461,7095.868485365252
0.0010472898382363582,7321.470860076613
0.0010884019160690055,7553.588740139263
0.0011311278765939214,7792.352614434215
0.001175531073878369,8037.890028210147
0.0012216773489967915,8290.324119705083
0.0012696351276599736,8549.775273461666
0.0013194755216767058,8816.358202379839
0.0013712724343984,9090.182822818973
0.0014251026703029975,9371.35289336456
0.0014810460488806749,9659.962497689712
0.0015391855229902056,9956.09920946408
0.001599607301861487,10259.842120455874
0.0016624009789266115,10571.261636838368
0.0017276596646690358,10890.418442679555
0.0017954801246878305,11217.358179794352
0.0018659629231817451,11552.114882093485
0.001939212572065829,11894.707550156903
0.0020153376859417325,12245.138619308813
0.002094451143151469,12603.395919703815
0.002176670253153458,12969.447574236803
0.002262116930469025,13343.244056229658
0.002350917875457286,13724.715865632807
0.002443204762186487,14113.770376350369
0.0025391144336803463,14510.294482377572
0.002638789104828933,14914.149757344238
0.002742376573264949,15325.17332214618
0.0028500304385181063,15743.176599924009
0.0029619103297725525,16167.94035786615
0.0030781821425650787,16599.218391011444
0.003199018284775064,17036.733977229953
0.0033245979322709396,17480.179466138048
0.003455107294592217,17929.215776142817
0.0035907398910610534,18383.46482306104
0.0037316968377327513,18842.514667183063
0.0038781871456107214,19305.915126154363
0.0040304280305680515,19773.175635705942
0.00418864523543527,20243.769512902236
0.004353073364731888,20717.127361774004
0.00452395623253805,21192.640986056027
0.004701547224022131,21669.65827243161
0.004886109671160325,22147.476603610357
0.005077917243205399,22625.354580789488
0.005277254352483535,23102.5149608316
0.005484416576121017,23578.14487937065
0.005699711094326071,24051.36583110382
0.005923457145875801,24521.1808583797
0.006155986501483508,24986.54636581038
0.006397643955748424,25446.526574009444
0.0066487878384172625,25900.28608657145
0.0069097905457156435,26346.85096943429
0.007181039092537346,26784.68936514118
0.007462935686310132,27212.082656067796
0.007755898323389004,27627.581615756208
0.00806036140886134,28030.12431300366
0.008376776400682916,28418.60169907315
0.008705612479099857,28791.421404364715
0.009047357242349292,29146.772984780375
0.00940251742967013,29483.00833372047
0.009771619672696168,29798.831053084217
0.010155211276345676,30092.96908511577
0.010553861030365234,30363.79515733468
0.010968160052731372,30609.463318495888
0.011398722666160517,30828.117444231866
0.011846187309026826,31017.84933855275
0.012311217482038896,31176.780332913586
0.012794502732078732,31303.062142139635
0.013296759674662111,31394.894659937054
0.013818733056536317,31450.520722822865
0.014361196859990781,31468.061866598342
0.014924955450518284,31445.700290782475
0.015510844769528393,31381.654660200602
0.016119733573881575,31274.15935739456
0.01675252472408214,31121.610302079236
0.017410156523040152,30922.415767091145
0.018093604107387147,30675.14759729833
0.01880388089340914,30378.573680584985
0.019542040079740527,30031.5873723237
0.02030917620904734,29633.40386036067
0.021106426791015535,29183.45455044434
0.021934973989050584,28681.480579815176
0.02279604637318978,28127.64393748822
0.023690920741826323,27522.47542689937
0.02462092401494623,26866.992932963865
0.02558743520168586,26162.76762690443
0.02659188744512693,25411.923160038783
0.027635770147361564,24617.154569577564
0.028720631177978267,23781.939636529012
0.029848079169243254,22910.27455778237
0.03101978590138095,22006.926659471806
0.03223748878149028,21077.506150295685
0.0335029934197723,20127.89960780998
0.03481817630688963,19165.089950440084
0.03618498759642746,18196.285641940372
0.037605453996581675,17228.984477149796
0.03908168177536263,16271.652810424774
0.04061585988376978,15331.994718734817
0.04221026320156896,14418.275388369471
0.04386725591048496,13538.414965816984
0.0455892949998106,12699.286170509704
0.047378933909631396,11908.35305823884
0.049238826317067365,11171.434540139677
0.05117173007114603,10492.682038123898
0.05318051128214196,9874.90151896044
0.05526814857144601,9319.918627648733
0.057437737488265785,8830.332064626311
0.0596924950997073,8408.210527758389
0.0620357647610427,8049.594439005753
0.06447102107323864,7744.512452169868
0.06700187503509585,7484.033318682381
0.06963207939763882,7260.167934271054
0.0723655342286965,7064.949360796984
0.07520629269592405,6888.144651803982
0.07815856707684081,6718.25825600787
0.08122673500479707,6540.610043008982
0.08441534596012978,6340.122222378122
0.0877291280161335,6102.204704367038
0.09117299484984914,5817.282317019934
0.09475205302806537,5482.5351687960465
0.09847160957933764,5104.173842744646
0.1023371798632519,4693.76709725798
0.10635449574860109,4267.035834301173
0.11052951411260206,3842.9247871067882
0.1148684256737553,3441.034358086752
0.1193776641714435,3081.2342291567606
0.1240639159058831,2779.4508691736137
0.12893412965257148,2545.436431996443
0.13399552696593373,2378.792959013681
0.1392556128874462,2270.544768630386
0.14472218707411338,2204.6660999066116
0.15040335536380234,2160.474794461967
0.15630754179458153,2114.869336910848
0.16244350109588662,2045.9009266551109
0.16882033167003618,1937.9613796135532
0.17544748908334581,1787.093100353827
0.1823348000868439,1604.12110889504
0.189492477187382,1413.1872341365975
0.19693113379074215,1242.4362296103554
0.20466179993919872,1111.1037069619515
0.21269593866686892,1024.672012533092
0.22104546299710207,977.2221236949835
0.22972275360711503,951.6128189467624
0.23874067718606454,923.1921124716539
0.2481126055137766,872.9357498037449
0.25785243528842716,796.8825371296905
0.26797460873256895,706.6353164402537
0.27849413500806414,623.1377207766875
0.28942661247167484,562.4360079924919
0.3007882518043098,526.7681965435953
0.31259590004822796,504.37582743736834
0.324867065587837,478.5283673254794
0.3376199441111335,440.22999357935714
0.35087344559027084,393.7451510244812
0.36464722232127456,352.295053187918
0.37896169806447155,323.4493027989614
0.3938380983288488,303.9529362835158
0.4092984818452433,284.00449893830097
0.4253657732750382,259.07385806280183
0.44206379720285277,233.3294159503735
0.45941731346364734,212.8442719003349
0.47745205385661277,197.38800717419042
0.4961947603002895,182.2869437495349
0.5156732244854959,165.81908804805
0.5359163290848509,150.68603398219392
0.556954090580013,138.42492079353747
0.5788177037701272,127.20901795158387
0.6015395880274836,115.93055835103227
0.6251534353689703,105.67978550231925
0.6496942604146115,96.8059986118429
0.6751984523072497,88.44793241293907
0.7017038286703824,80.59885253735412
0.7292496916841444,73.60714427461131
0.7578768863625915,67.18208655573392
0.7876278611187046,61.22711299592148
0.8185467307069019,55.83147256434084
0.850679341636415,50.89224522030728
0.8840733401525058,46.36922662332773
0.9187782428863317,42.23118616270343
0.9548455102782278,38.44867394408275
0.9923286228832539,34.99399974050596
1.0312831606721837,31.84112106324689
1.0717668854455022,28.964886851109934
1.1138398264826193,26.34161164956535
1.1575643695533022,23.949587554264824
1.2030053494233226,21.76893053243117
1.2502301459914542,19.78142968398912
1.299308784200415,17.970444418733038
1.3503140378698726,16.320847055576124
1.4033215376054824,14.818771724045327
1.4584098829439835,13.451485745930267
1.5156607589006013,12.207303366282751
1.575159057091621,11.075504965912328
1.6369930016117014,10.046247571639805
1.7012542798525885,9.110497786912042
1.7680381784572046,8.259989899664928
1.8374437246107238,7.487164801359492
1.9095738328780953,6.78511205223416
1.9845354578058014,6.147516829671074
2.0624397525140905,5.568613125613091
2.143402233514853,5.0431356693871034
2.227542951999554,4.566276528558498
2.314986671851158,4.133646977417607
2.405863054644063,3.741242388587088
2.5003068519063225,3.3854091282140724
2.598458104929248,3.0628138787254127
2.7004623524206774,2.770418702413814
2.806470846309834,2.505456116712427
2.916640776023701,2.265405779625469
3.031135501567576,2.047973105026346
3.150124795755327,1.851069639894398
3.2737850959485697,1.67279510535305
3.4022997656780634,1.5114209602086226
3.5358593665351745,1.365375327224642
3.6746619407366854,1.2332291945428464
3.8189133047818515,1.1136837520034448
3.968827354637162,1.0055586703550363
4.1246263829013445,0.9077817715664994
4.286541408420921,0.8193794692985553
4.4548125188449825,0.7394679259550916
4.629689226627261,0.6672449786938068
4.811430839003257,0.6019827006345703
5.000306842491082,0.5430206339145602
5.196597302486189,0.48975983245621185
5.400593278542364,0.44165727652943865
5.612597255954967,0.39822075986671474
5.8329235942862,0.3590042327991786
6.06189899349756,0.32360356396512197
6.29986297838068,0.29165267840463993
6.547168402004727,0.26282004197149333
6.804181968927091,0.23680546527486845
7.071284778942991,0.213337196657924
7.348872892180382,0.1921692703654089
7.637357916378006,0.17307907707697653
7.937167617217536,0.1558652212161369
8.248746552614573,0.14034554702278057
8.572556731909314,0.1263553312082908
8.909078300934132,0.11374564186447206
9.258810253973934,0.1023818314204669
9.622271173675122,0.0921421816514313
9.999999999999984,0.08291671313859236
