k [1/Mpc],P(k) [Mpc^3]
0.0001,191.17803248768024
0.00010392556829367125,198.68095347937717
0.00010800523745162529,206.47817600106305
0.00011224505680853065,214.58121222048297
0.00011665131316981963,223.00202926311619
0.00012123054013376525,231.75307259390996
0.00012598952777950273,240.8472742596514
0.00013093533273536104,250.2980619217238
0.00013607528864243335,260.11938112405454
0.00014141701702890234,270.3257202443692
0.00014696843861124463,280.9321314184195
0.00015273778503907136,291.9542520444282
0.00015873361110102093,303.4083193597427
0.00016496480740980205,315.3111932684297
0.0001714406135851971,327.68038797263364
0.00017817063195457305,340.53410138431303
0.00018516484179121546,353.8912381045239
0.000192433614111598,367.7714198712265
0.00019998772705352857,382.19500402579496
0.0002078383818579757,397.1831319626467
0.00021599721947827182,412.75777454831484
0.0002244763378413224,428.9417572479942
0.0002332883097864157,445.7587686074984
0.00024244620170823283,463.2333676552374
0.0002519635929317015,481.3910468060461
0.0002618545958474233,500.2582708053672
0.0002721338768375308,519.8625131511877
0.0002828166780230032,540.2322807597616
0.0002939188398646886,561.3971107357314
0.0003054568246515432,583.3876434106064
0.00031744774091091926,606.2356949025617
0.00032990936877709396,629.9743075591673
0.00034286018635565856,654.6377531753812
0.00035631939712285854,680.2614606319153
0.000370306958400514,706.882120999673
0.00038484361094874304,734.5378011720488
0.0003999509097203664,763.2680151882776
0.00041565125582259895,793.1137329194714
0.00043196792973341727,824.1173126727911
0.0004489251258218605,856.3225761709912
0.0004665479882234472,889.7749189307712
0.000484862648123908,924.5213396027008
0.000503896262506515,960.6105117698445
0.0005236770544204653,998.0927390128052
0.0005442343548300266,1037.0199887607214
0.0005655986461065005,1077.4460371171554
0.0005878016072274912,1119.4265070650852
0.0006108761607505036,1163.0189380517847
0.0006348565216305217,1208.2827021164624
0.0006597782479539537,1255.2789375495358
0.0006856782936641739,1304.0707932371524
0.0007125950633568407,1354.7234455263542
0.0007405684692262436,1407.304174047349
0.0007696399902471156,1461.882372215358
0.0007998527336796708,1518.5294589868654
0.000831251498989063,1577.3190662259908
0.0008638828442740447,1638.3268875046651
0.000897795155303332,1701.6307195691684
0.0009330387172620361,1767.3106385860883
0.0009696657893145519,1835.4488512225375
0.001007730682094461,1906.1298743864165
0.0010472898382363582,1979.4403630969814
0.0010884019160690055,2055.468990571546
0.0011311278765939214,2134.3067390338583
0.001175531073878369,2216.0466002087283
0.0012216773489967915,2300.7837456589455
0.0012696351276599736,2388.615360848404
0.0013194755216767058,2479.6401675320376
0.0013712724343984,2573.95893969968
0.0014251026703029975,2671.674028253703
0.0014810460488806749,2772.889394077223
0.0015391855229902056,2877.710645455812
0.001599607301861487,2986.244115830686
0.0016624009789266115,3098.5974917203425
0.0017276596646690358,3214.879356984057
0.0017954801246878305,3335.198882521664
0.0018659629231817451,3459.6661025650246
0.001939212572065829,3588.3906162934645
0.0020153376859417325,3721.4820763375956
0.002094451143151469,3859.0498049642447
0.002176670253153458,4001.201868874194
0.002262116930469025,4148.045722574595
0.002350917875457286,4299.686672187113
0.002443204762186487,4456.22794048114
0.0025391144336803463,4617.770561948537
0.002638789104828933,4784.411589933921
0.002742376573264949,4956.245045989307
0.0028500304385181063,5133.3605717820965
0.0029619103297725525,5315.8427998089
0.0030781821425650787,5503.771555150125
0.003199018284775064,5697.219239867026
0.0033245979322709396,5896.251708507047
0.003455107294592217,6100.927390375173
0.0035907398910610534,6311.2958904798
0.0037316968377327513,6527.398464024
0.0038781871456107214,6749.264911277546
0.0040304280305680515,6976.9138597800065
0.00418864523543527,7210.352673711818
0.004353073364731888,7449.575428938164
0.00452395623253805,7694.563429400737
0.004701547224022131,7945.281903269381
0.004886109671160325,8201.679264258966
0.005077917243205399,8463.68779065198
0.005277254352483535,8731.220356004562
0.005484416576121017,9004.171490267441
0.005699711094326071,9282.414254764566
0.005923457145875801,9565.797911664287
0.006155986501483508,9854.15017069572
0.006397643955748424,10147.27339251759
0.0066487878384172625,10444.94542169521
0.0069097905457156435,10746.91126591651
0.007181039092537346,11052.870461681028
0.007462935686310132,11362.494156446024
0.007755898323389004,11675.458425256698
0.00806036140886134,11991.438438293995
0.008376776400682916,12310.052458477556
0.008705612479099857,12630.767786211316
0.009047357242349292,12952.985691845228
0.00940251742967013,13276.11796339303
0.009771619672696168,13599.60050855587
0.010155211276345676,13922.842320248492
0.010553861030365234,14245.226246283753
0.010968160052731372,14566.107467497552
0.011398722666160517,14884.778513522133
0.011846187309026826,15200.438218277652
0.012311217482038896,15512.243866593975
0.012794502732078732,15819.30307876776
0.013296759674662111,16120.681722744968
0.013818733056536317,16415.408449713046
0.014361196859990781,16702.460708030885
0.014924955450518284,16980.78677586924
0.015510844769528393,17249.30321650429
0.016119733573881575,17506.89922587502
0.01675252472408214,17752.441302097443
0.017410156523040152,17984.734778931
0.018093604107387147,18202.56501762264
0.01880388089340914,18404.706839589817
0.019542040079740527,18589.923971971024
0.02030917620904734,18756.994513728696
0.021106426791015535,18904.701586159008
0.021934973989050584,19031.853226813968
0.02279604637318978,19137.301301695912
0.023690920741826323,19219.948292718327
0.02462092401494623,19278.764420591164
0.02558743520168586,19312.821258041753
0.02659188744512693,19321.29810132929
0.027635770147361564,19303.494687016744
0.028720631177978267,19258.906212313806
0.029848079169243254,19187.168310611014
0.03101978590138095,19088.14250385593
0.03223748878149028,18961.948635879537
0.0335029934197723,18808.876017972627
0.03481817630688963,18629.597794750145
0.03618498759642746,18425.008730042253
0.037605453996581675,18196.26909403664
0.03908168177536263,17944.961453529726
0.04061585988376978,17672.790681393166
0.04221026320156896,17381.88485693487
0.04386725591048496,17074.628008048865
0.0455892949998106,16753.455146457018
0.047378933909631396,16421.045207183575
0.049238826317067365,16080.040513274049
0.05117173007114603,15733.284601809264
0.05318051128214196,15383.806426391136
0.05526814857144601,15034.210408263973
0.057437737488265785,14685.622878524144
0.0596924950997073,14338.651553636968
0.0620357647610427,13994.810624609157
0.06447102107323864,13657.095848901057
0.06700187503509585,13327.873135187936
0.06963207939763882,13004.20690265457
0.0723655342286965,12680.533554873664
0.07520629269592405,12352.788890600448
0.07815856707684081,12019.346766246505
0.08122673500479707,11678.984922718624
0.08441534596012978,11330.338457388041
0.0877291280161335,10972.156834059273
0.09117299484984914,10603.07635882627
0.09475205302806537,10221.76079028942
0.09847160957933764,9826.367208422796
0.1023371798632519,9417.407309276283
0.10635449574860109,9000.416494254225
0.11052951411260206,8583.49407804335
0.1148684256737553,8175.948202765745
0.1193776641714435,7785.585176482989
0.1240639159058831,7417.65075790416
0.12893412965257148,7074.764112367268
0.13399552696593373,6757.652095350747
0.1392556128874462,6465.213046255541
0.14472218707411338,6193.067152154119
0.15040335536380234,5933.728701641034
0.15630754179458153,5677.502386399976
0.16244350109588662,5416.354327159224
0.16882033167003618,5146.108349548811
0.17544748908334581,4867.685352742164
0.1823348000868439,4586.9603316616685
0.189492477187382,4313.2604761213615
0.19693113379074215,4055.5874459084025
0.20466179993919872,3819.2280913109516
0.21269593866686892,3605.581098448763
0.22104546299710207,3412.706550123079
0.22972275360711503,3233.504651565368
0.23874067718606454,3058.050252690139
0.2481126055137766,2881.124300632268
0.25785243528842716,2703.4729733633235
0.26797460873256895,2528.9762443077216
0.27849413500806414,2364.873226965025
0.28942661247167484,2215.883520399389
0.3007882518043098,2079.923899508289
0.31259590004822796,1953.1206413686352
0.324867065587837,1830.953349179868
0.3376199441111335,1711.2560969039857
0.35087344559027084,1596.0887698515508
0.36464722232127456,1488.45202867749
0.37896169806447155,1389.4485753828951
0.3938380983288488,1297.2577587405056
0.4092984818452433,1209.7424624671137
0.4253657732750382,1126.1550259814912
0.44206379720285277,1047.5650592678937
0.45941731346364734,974.3685187071525
0.47745205385661277,906.2447975690952
0.4961947603002895,842.0165080049809
0.5156732244854959,781.7119022973297
0.5359163290848509,725.3451362221167
0.556954090580013,672.8473194438079
0.5788177037701272,623.744317071304
0.6015395880274836,577.8473789309869
0.6251534353689703,535.1175955082459
0.6496942604146115,495.28621436867525
0.6751984523072497,458.1728937756522
0.7017038286703824,423.6467272761054
0.7292496916841444,391.52684425382853
0.7578768863625915,361.65669809195805
0.7876278611187046,333.9102656377536
0.8185467307069019,308.1524540283897
0.850679341636415,284.24758704646615
0.8840733401525058,262.0826597152485
0.9187782428863317,241.5421682987658
0.9548455102782278,222.51987063147905
0.9923286228832539,204.91129560882052
1.0312831606721837,188.61746744211044
1.0717668854455022,173.54833760324922
1.1138398264826193,159.6194269628163
1.1575643695533022,146.7513075449212
1.2030053494233226,134.86937856115358
1.2502301459914542,123.90362115261658
1.299308784200415,113.78813900239322
1.3503140378698726,104.46112958192157
1.4033215376054824,95.86487910875316
1.4584098829439835,87.94553369615863
1.5156607589006013,80.65287585919694
1.575159057091621,73.94012370879625
1.6369930016117014,67.76376372442844
1.7012542798525885,62.08329841099342
1.7680381784572046,56.86104621720049
1.8374437246107238,52.06196977865487
1.9095738328780953,47.65351193279187
1.9845354578058014,43.605409606349
2.0624397525140905,39.88953550716496
2.143402233514853,36.47982012661163
2.227542951999554,33.352120165012195
2.314986671851158,30.484087834232728
2.405863054644063,27.855048358312803
2.5003068519063225,25.4458902105255
2.598458104929248,23.23895273942136
2.7004623524206774,21.21791874510575
2.806470846309834,19.367719679815327
2.916640776023701,17.674446944288423
3.031135501567576,16.12526657636789
3.150124795755327,14.708333510130528
3.2737850959485697,13.412730238835112
3.4022997656780634,12.2284025032816
3.5358593665351745,11.146094831904149
3.6746619407366854,10.157290515692951
3.8189133047818515,9.254154912413142
3.968827354637162,8.429483005682293
4.1246263829013445,7.67665314619722
4.286541408420921,6.989582308538692
4.4548125188449825,6.362684315554787
4.629689226627261,5.790831056675145
4.811430839003257,5.269315826062817
5.000306842491082,4.793820493689225
5.196597302486189,4.360385574324145
5.400593278542364,3.965381663438934
5.612597255954967,3.605482999841091
5.8329235942862,3.2776428916576856
6.06189899349756,2.979070500083759
6.29986297838068,2.707210861929135
6.547168402004727,2.4597260134132863
6.804181968927091,2.2344771770782477
7.071284778942991,2.0295083482778407
7.348872892180382,1.843031116320714
7.637357916378006,1.6734106906618602
7.937167617217536,1.5191532630370945
8.248746552614573,1.378894236687704
8.572556731909314,1.2513873770594384
8.909078300934132,1.135494821193179
9.258810253973934,1.0301774877991934
9.622271173675122,0.9344868425869661
9.999999999999984,0.8475577207394198
