k [1/Mpc],P(k) [Mpc^3]
0.0001,1705.9159912321013
0.00010392556829367125,1772.5357182042826
0.00010800523745162529,1841.7286401048434
0.00011224505680853065,1913.590743742372
0.00011665131316981963,1988.2212981802522
0.00012123054013376525,2065.722700916774
0.00012598952777950273,2146.200749904518
0.00013093533273536104,2229.764498016783
0.00013607528864243335,2316.5261470639343
0.00014141701702890234,2406.601489372594
0.00014696843861124463,2500.1097713342583
0.00015273778503907136,2597.1738911032553
0.00015873361110102093,2697.920208972592
0.00016496480740980205,2802.478029004201
0.0001714406135851971,2910.980315434253
0.00017817063195457305,3023.563374796554
0.00018516484179121546,3140.366956038626
0.000192433614111598,3261.5342990191007
0.00019998772705352857,3387.2111276868045
0.0002078383818579757,3517.546488041508
0.00021599721947827182,3652.6923363105802
0.0002244763378413224,3792.803268326646
0.0002332883097864157,3938.0369062143864
0.00024244620170823283,4088.552176335467
0.0002519635929317015,4244.510144519428
0.0002618545958474233,4406.074047449019
0.0002721338768375308,4573.408562915884
0.0002828166780230032,4746.680277751245
0.0002939188398646886,4926.055200884294
0.0003054568246515432,5111.699113385571
0.00031744774091091926,5303.778308775707
0.00032990936877709396,5502.458273848855
0.00034286018635565856,5707.904268670028
0.00035631939712285854,5920.279170392753
0.000370306958400514,6139.742743335902
0.00038484361094874304,6366.452586717838
0.0003999509097203664,6600.561873648777
0.00041565125582259895,6842.22000713058
0.00043196792973341727,7091.571247133339
0.0004489251258218605,7348.753008575065
0.0004665479882234472,7613.896786690934
0.000484862648123908,7887.125439454221
0.000503896262506515,8168.553239318663
0.0005236770544204653,8458.28494221236
0.0005442343548300266,8756.412774427838
0.0005655986461065005,9063.017645080521
0.0005878016072274912,9378.1648089005
0.0006108761607505036,9701.902944487563
0.0006348565216305217,10034.264414071024
0.0006597782479539537,10375.258749327273
0.0006856782936641739,10724.875534497362
0.0007125950633568407,11083.079071977178
0.0007405684692262436,11449.804403288368
0.0007696399902471156,11824.96106109713
0.0007998527336796708,12208.423865299583
0.000831251498989063,12600.03563870441
0.0008638828442740447,12999.604124967767
0.000897795155303332,13406.893877133956
0.0009330387172620361,13821.63321867309
0.0009696657893145519,14243.510392173626
0.001007730682094461,14672.17295644411
0.0010472898382363582,15107.225883862067
0.0010884019160690055,15548.222295337724
0.0011311278765939214,15994.66957885826
0.001175531073878369,16446.025903523503
0.0012216773489967915,16901.698375654
0.0012696351276599736,17361.04807268324
0.0013194755216767058,17823.39542079405
0.0013712724343984,18288.016358244444
0.0014251026703029975,18754.12603081665
0.0014810460488806749,19220.866884954496
0.0015391855229902056,19687.340910599134
0.001599607301861487,20152.71817413041
0.0016624009789266115,20616.20074587542
0.0017276596646690358,21076.91525776697
0.0017954801246878305,21533.821825772826
0.0018659629231817451,21985.817490020083
0.001939212572065829,22431.776558790767
0.0020153376859417325,22870.55355920741
0.002094451143151469,23300.984916877514
0.002176670253153458,23721.937779722095
0.002262116930469025,24132.277622241247
0.002350917875457286,24530.855623602416
0.002443204762186487,24916.5123585629
0.0025391144336803463,25288.08949108067
0.002638789104828933,25644.475961118238
0.002742376573264949,25984.591064687294
0.0028500304385181063,26307.36094917868
0.0029619103297725525,26611.713716928425
0.0030781821425650787,26896.602397989525
0.003199018284775064,27161.074629684652
0.0033245979322709396,27404.264397754785
0.003455107294592217,27625.237468605537
0.0035907398910610534,27822.6813994315
0.0037316968377327513,27995.249018571358
0.0038781871456107214,28142.50529111113
0.0040304280305680515,28265.116837293313
0.00418864523543527,28363.44242215751
0.004353073364731888,28435.036128198833
0.00452395623253805,28476.39101496846
0.004701547224022131,28485.622728369228
0.004886109671160325,28463.86456489043
0.005077917243205399,28412.48737391047
0.005277254352483535,28330.896665484164
0.005484416576121017,28217.317109969717
0.005699711094326071,28070.64854212183
0.005923457145875801,27891.632410542876
0.006155986501483508,27681.394380299385
0.006397643955748424,27440.176326809393
0.0066487878384172625,27167.38432577778
0.0069097905457156435,26862.526571098384
0.007181039092537346,26525.184928895196
0.007462935686310132,26155.10134890582
0.007755898323389004,25752.23215294197
0.00806036140886134,25316.761800781
0.008376776400682916,24849.062708769
0.008705612479099857,24349.4523429786
0.009047357242349292,23818.35851862276
0.00940251742967013,23256.26924541114
0.009771619672696168,22663.45392403034
0.010155211276345676,22040.430692379923
0.010553861030365234,21387.583421382125
0.010968160052731372,20705.330729720044
0.011398722666160517,19994.54588388843
0.011846187309026826,19256.467454689122
0.012311217482038896,18492.808992210128
0.012794502732078732,17705.12350313245
0.013296759674662111,16894.74233607222
0.013818733056536317,16063.588531972573
0.014361196859990781,15213.519766000785
0.014924955450518284,14346.971915074602
0.015510844769528393,13466.966650005435
0.016119733573881575,12576.789738190466
0.01675252472408214,11680.59755110506
0.017410156523040152,10782.329040466853
0.018093604107387147,9886.359962770233
0.01880388089340914,8997.92838262984
0.019542040079740527,8122.275056239462
0.02030917620904734,7265.63407053772
0.021106426791015535,6434.1580046073395
0.021934973989050584,5634.017167555329
0.02279604637318978,4872.012297036373
0.023690920741826323,4153.999393931152
0.02462092401494623,3486.110829748823
0.02558743520168586,2873.784547947019
0.02659188744512693,2321.182031013219
0.027635770147361564,1832.1143130742905
0.028720631177978267,1408.225808895153
0.029848079169243254,1049.9065589393379
0.03101978590138095,756.2287866433326
0.03223748878149028,524.0903362985332
0.0335029934197723,347.9226906004183
0.03481817630688963,218.83777167441335
0.03618498759642746,128.23167965668412
0.037605453996581675,69.69359088897227
0.03908168177536263,37.095720556329695
0.04061585988376978,20.777549789301105
0.04221026320156896,13.483359480890758
0.04386725591048496,11.555951086496291
0.0455892949998106,14.565957856859917
0.047378933909631396,24.47414801479593
0.049238826317067365,45.09145978691292
0.05117173007114603,79.90537940029147
0.05318051128214196,133.19302130104336
0.05526814857144601,206.75759709385338
0.057437737488265785,297.84090580417353
0.0596924950997073,397.6921185480731
0.0620357647610427,493.7109878886875
0.06447102107323864,571.74465972032
0.06700187503509585,617.707483823535
0.06963207939763882,620.3667550019591
0.0723655342286965,573.7218402639008
0.07520629269592405,484.0315386506467
0.07815856707684081,369.0742385956845
0.08122673500479707,251.21233403422258
0.08441534596012978,148.26762628516963
0.0877291280161335,73.0506050071752
0.09117299484984914,29.19051256720517
0.09475205302806537,8.809684739910315
0.09847160957933764,3.2293495056965167
0.1023371798632519,3.1930390799237465
0.10635449574860109,7.706941687692115
0.11052951411260206,23.5790826198108
0.1148684256737553,52.63556796131646
0.1193776641714435,89.47103973205115
0.1240639159058831,119.79754782308157
0.12893412965257148,129.42779630884695
0.13399552696593373,112.007051652819
0.1392556128874462,76.1277353782453
0.14472218707411338,40.66484473561828
0.15040335536380234,17.389665037143246
0.15630754179458153,7.207689888456034
0.16244350109588662,5.340271164134071
0.16882033167003618,8.871204335918147
0.17544748908334581,18.2111826898958
0.1823348000868439,29.907512057202062
0.189492477187382,35.34097963046154
0.19693113379074215,30.45771742116277
0.20466179993919872,19.394514901910004
0.21269593866686892,10.319781736996708
0.22104546299710207,6.4676412741247535
0.22972275360711503,6.783945726886525
0.23874067718606454,9.809817223335006
0.2481126055137766,12.589502111080595
0.25785243528842716,12.128669170010618
0.26797460873256895,8.854402546938433
0.27849413500806414,5.960248603066871
0.28942661247167484,5.044900332722711
0.3007882518043098,5.596320726055815
0.31259590004822796,6.170432367424738
0.324867065587837,5.600632876207379
0.3376199441111335,4.383895096032168
0.35087344559027084,3.6699269706733513
0.36464722232127456,3.604551126672621
0.37896169806447155,3.5709977727100464
0.3938380983288488,3.16480464678358
0.4092984818452433,2.701656260521171
0.4253657732750382,2.471362699957278
0.44206379720285277,2.3526692114059182
0.45941731346364734,2.1099685912788986
0.47745205385661277,1.876536811765348
0.4961947603002895,1.7221636756224084
0.5156732244854959,1.578661889895193
0.5359163290848509,1.419708931369418
0.556954090580013,1.2887940452648625
0.5788177037701272,1.1754402336733896
0.6015395880274836,1.06360003245802
0.6251534353689703,0.9652200248997285
0.6496942604146115,0.8769433863183831
0.6751984523072497,0.7943266466002551
0.7017038286703824,0.7197737735374462
0.7292496916841444,0.6526467471055807
0.7578768863625915,0.5920192556894595
0.7876278611187046,0.5371050116508428
0.8185467307069019,0.4872350432433766
0.850679341636415,0.44184529968380404
0.8840733401525058,0.40052541591576607
0.9187782428863317,0.3629511466287305
0.9548455102782278,0.32881810318798654
0.9923286228832539,0.2978406173519427
1.0312831606721837,0.2697515726404816
1.0717668854455022,0.24429783036560102
1.1138398264826193,0.22123233494549738
1.1575643695533022,0.20032870393914198
1.2030053494233226,0.18138257440980482
1.2502301459914542,0.16420937986834652
1.299308784200415,0.1486424233851957
1.3503140378698726,0.13453262225585433
1.4033215376054824,0.12174633542261819
1.4584098829439835,0.11016189710092036
1.5156607589006013,0.09966849280370049
1.575159057091621,0.09016523300747713
1.6369930016117014,0.08156020581868961
1.7012542798525885,0.07376929991848369
1.7680381784572046,0.06671602304453468
1.8374437246107238,0.060331034057509975
1.9095738328780953,0.054551476645684056
1.9845354578058014,0.04932037544094754
2.0624397525140905,0.04458615521287998
2.143402233514853,0.04030216378975329
2.227542951999554,0.03642607962850928
2.314986671851158,0.03291950291907911
2.405863054644063,0.029747598449046696
2.5003068519063225,0.026878768435348727
2.598458104929248,0.024284339627129933
2.7004623524206774,0.021938309119922676
2.806470846309834,0.019817112154586928
2.916640776023701,0.01789939639714435
3.031135501567576,0.01616581663970598
3.150124795755327,0.014598848046945724
3.2737850959485697,0.013182616386458268
3.4022997656780634,0.011902745050128487
3.5358593665351745,0.010746215460956339
3.6746619407366854,0.009701240171519214
3.8189133047818515,0.008757147634583615
3.968827354637162,0.007904276761264595
4.1246263829013445,0.007133882489405606
4.286541408420921,0.00643805084348705
4.4548125188449825,0.005809620747444572
4.629689226627261,0.005242113069181418
4.811430839003257,0.0047296664067684345
5.000306842491082,0.004266979208583304
5.196597302486189,0.003849256237507324
5.400593278542364,0.0034721604418086944
5.612597255954967,0.0031317695921890248
5.8329235942862,0.002824536972889972
6.06189899349756,0.002547255321385701
6.29986297838068,0.00229702448416182
6.547168402004727,0.0020712230397833004
6.804181968927091,0.001867481792015755
7.071284778942991,0.0016836596864820105
7.348872892180382,0.0015178220030025583
7.637357916378006,0.0013682205796669486
7.937167617217536,0.0012332759897573117
8.248746552614573,0.0011115614042656614
8.572556731909314,0.001001787955500908
8.909078300934132,0.0009027914933459516
9.258810253973934,0.0008135205652354368
9.622271173675122,0.0007330255300738858
9.999999999999984,0.0006604488718463927
