k [1/Mpc],P(k) [Mpc^3]
0.0001,1676.0735680967593
0.00010392556829367125,1731.8033999965812
0.00010800523745162529,1789.3835580577838
0.00011224505680853065,1848.8750483776046
0.00011665131316981963,1910.3408523701403
0.00012123054013376525,1973.8461156402714
0.00012598952777950273,2039.4581995999351
0.00013093533273536104,2107.246603785662
0.00013607528864243335,2177.2828371580526
0.00014141701702890234,2249.6406634500104
0.00014696843861124463,2324.396337430286
0.00015273778503907136,2401.6287084380906
0.00015873361110102093,2481.4191404741755
0.00016496480740980205,2563.8513381479893
0.0001714406135851971,2649.0115814703436
0.00017817063195457305,2736.988928805975
0.00018516484179121546,2827.875325301227
0.000192433614111598,2921.7656245448266
0.00019998772705352857,3018.757449869378
0.0002078383818579757,3118.9513660489765
0.00021599721947827182,3222.4510656680122
0.0002244763378413224,3329.3634260893855
0.0002332883097864157,3439.7986328675624
0.00024244620170823283,3553.870089313617
0.0002519635929317015,3671.694525693172
0.0002618545958474233,3793.3921414490715
0.0002721338768375308,3919.0863937404097
0.0002828166780230032,4048.9043450166646
0.0002939188398646886,4182.97670783531
0.0003054568246515432,4321.43789339219
0.00031744774091091926,4464.4261895882855
0.00032990936877709396,4612.083487312599
0.00034286018635565856,4764.555591605719
0.00035631939712285854,4921.992112260787
0.000370306958400514,5084.54620814099
0.00038484361094874304,5252.375146005873
0.0003999509097203664,5425.639961771711
0.00041565125582259895,5604.50569444934
0.00043196792973341727,5789.141526005932
0.0004489251258218605,5979.72043038183
0.0004665479882234472,6176.419638852485
0.000484862648123908,6379.419864147584
0.000503896262506515,6588.905337479508
0.0005236770544204653,6805.0644134342865
0.0005442343548300266,7028.088927513651
0.0005655986461065005,7258.174741770003
0.0005878016072274912,7495.521034074939
0.0006108761607505036,7740.329855991917
0.0006348565216305217,7992.807043685466
0.0006597782479539537,8253.161334700617
0.0006856782936641739,8521.604817225334
0.0007125950633568407,8798.352353381735
0.0007405684692262436,9083.62042353537
0.0007696399902471156,9377.628395544729
0.0007998527336796708,9680.597242595533
0.000831251498989063,9992.749752293617
0.0008638828442740447,10314.310265872644
0.000897795155303332,10645.502323116998
0.0009330387172620361,10986.550471343646
0.0009696657893145519,11337.678569652766
0.001007730682094461,11699.109305912392
0.0010472898382363582,12071.064739819474
0.0010884019160690055,12453.762425988585
0.0011311278765939214,12847.417504213443
0.001175531073878369,13252.240261058523
0.0012216773489967915,13668.433717156086
0.0012696351276599736,14096.196353062254
0.0013194755216767058,14535.717298375188
0.0013712724343984,14987.177774534575
0.0014251026703029975,15450.748850527338
0.0014810460488806749,15926.585644106566
0.0015391855229902056,16414.83253984416
0.001599607301861487,16915.619938020704
0.0016624009789266115,17429.06391879167
0.0017276596646690358,17955.264533270747
0.0017954801246878305,18494.297032089024
0.0018659629231817451,19046.217527679033
0.001939212572065829,19611.057346701098
0.0020153376859417325,20188.820504326042
0.002094451143151469,20779.486935870882
0.002176670253153458,21383.0040848744
0.002262116930469025,21999.290295648894
0.002350917875457286,22628.230981984332
0.002443204762186487,23269.673429266204
0.0025391144336803463,23923.43115721861
0.002638789104828933,24589.2759393406
0.002742376573264949,25266.93923338855
0.0028500304385181063,25956.110128683235
0.0029619103297725525,26656.427171424963
0.0030781821425650787,27367.48443825732
0.003199018284775064,28088.825691518614
0.0033245979322709396,28819.943701477405
0.003455107294592217,29560.27941709897
0.0035907398910610534,30309.209482948307
0.0037316968377327513,31066.054725263864
0.0038781871456107214,31830.072918822047
0.0040304280305680515,32600.455259877916
0.00418864523543527,33376.33339507269
0.004353073364731888,34156.76854916043
0.00452395623253805,34940.75797602191
0.004701547224022131,35727.226522560995
0.004886109671160325,36515.01576870582
0.005077917243205399,37302.90335448021
0.005277254352483535,38089.60782259099
0.005484416576121017,38873.788986267704
0.005699711094326071,39653.998435131136
0.005923457145875801,40428.59246389544
0.006155986501483508,41195.850474646555
0.006397643955748424,41954.22962800543
0.0066487878384172625,42702.35258814894
0.0069097905457156435,43438.6136092726
0.007181039092537346,44160.48708540378
0.007462935686310132,44865.13949510902
0.007755898323389004,45550.18146790107
0.00806036140886134,46213.862175217946
0.008376776400682916,46854.35310481671
0.008705612479099857,47469.02888306706
0.009047357242349292,48054.90459227527
0.00940251742967013,48609.26296403408
0.009771619672696168,49129.96659921945
0.010155211276345676,49614.91822915175
0.010553861030365234,50061.434935079225
0.010968160052731372,50466.473257919504
0.011398722666160517,50826.97296594674
0.011846187309026826,51139.78797584382
0.012311217482038896,51401.82088682005
0.012794502732078732,51610.024391793544
0.013296759674662111,51761.43061722809
0.013818733056536317,51853.142490313236
0.014361196859990781,51882.06294716827
0.014924955450518284,51845.19494147428
0.015510844769528393,51739.60154803854
0.016119733573881575,51562.37175580187
0.01675252472408214,51310.86088347828
0.017410156523040152,50982.444616636196
0.018093604107387147,50574.76832553169
0.01880388089340914,50085.80060071155
0.019542040079740527,49513.716893639445
0.02030917620904734,48857.22326782392
0.021106426791015535,48115.38226982803
0.021934973989050584,47287.76710711393
0.02279604637318978,46374.64485441634
0.023690920741826323,45376.890658650584
0.02462092401494623,44296.18272832755
0.02558743520168586,43135.11148686205
0.02659188744512693,41897.178243353155
0.027635770147361564,40586.82636297539
0.028720631177978267,39209.78973725186
0.029848079169243254,37772.65698099577
0.03101978590138095,36283.28808620888
0.03223748878149028,34750.93272330527
0.0335029934197723,33185.296217913085
0.03481817630688963,31597.891456171834
0.03618498759642746,30000.603185602427
0.037605453996581675,28405.7931800392
0.03908168177536263,26827.420097994844
0.04061585988376978,25278.185815040124
0.04221026320156896,23771.717319616895
0.04386725591048496,22321.072725707407
0.0455892949998106,20937.583232027322
0.047378933909631396,19633.5549861253
0.049238826317067365,18418.58175056239
0.05117173007114603,17299.508062948044
0.05318051128214196,16280.96018037908
0.05526814857144601,15365.948082598812
0.057437737488265785,14558.756302294776
0.0596924950997073,13862.795545640005
0.0620357647610427,13271.537572098252
0.06447102107323864,12768.542411094471
0.06700187503509585,12339.084923140112
0.06963207939763882,11969.993302087698
0.0723655342286965,11648.132287565262
0.07520629269592405,11356.630603088552
0.07815856707684081,11076.535288736923
0.08122673500479707,10783.64290126379
0.08441534596012978,10453.094366873378
0.0877291280161335,10060.834694256322
0.09117299484984914,9591.077093738493
0.09475205302806537,9039.172350155559
0.09847160957933764,8415.35998388431
0.1023371798632519,7738.71365296163
0.10635449574860109,7035.152742852012
0.11052951411260206,6335.911838203724
0.1148684256737553,5673.30653938759
0.1193776641714435,5080.0964136200655
0.1240639159058831,4582.539768872496
0.12893412965257148,4196.715188647576
0.13399552696593373,3921.966550117554
0.1392556128874462,3743.4954561178183
0.14472218707411338,3634.8798937075244
0.15040335536380234,3562.0207484409325
0.15630754179458153,3486.830060516391
0.16244350109588662,3373.120375521384
0.16882033167003618,3195.158148364231
0.17544748908334581,2946.418407274793
0.1823348000868439,2644.7485930143293
0.189492477187382,2329.951852402891
0.19693113379074215,2048.4310392470616
0.20466179993919872,1831.9003156219314
0.21269593866686892,1689.3985425544167
0.22104546299710207,1611.1669015346708
0.22972275360711503,1568.944296068437
0.23874067718606454,1522.086472774601
0.2481126055137766,1439.2277386559995
0.25785243528842716,1313.8371892152052
0.26797460873256895,1165.0446768429622
0.27849413500806414,1027.3804148201218
0.28942661247167484,927.3002097848888
0.3007882518043098,868.4939303697714
0.31259590004822796,831.5751551229664
0.324867065587837,788.9598978429219
0.3376199441111335,725.816554414467
0.35087344559027084,649.1760057290965
0.36464722232127456,580.8363477533534
0.37896169806447155,533.2777455177742
0.3938380983288488,501.1336713423932
0.4092984818452433,468.24425837410877
0.4253657732750382,427.1405804704873
0.44206379720285277,384.6951711574186
0.45941731346364734,350.92087842876373
0.47745205385661277,325.4378060091972
0.4961947603002895,300.540361530776
0.5156732244854959,273.3894575529174
0.5359163290848509,248.43926942388546
0.556954090580013,228.22411130728568
0.5788177037701272,209.73221372165077
0.6015395880274836,191.13717747748927
0.6251534353689703,174.23651024070077
0.6496942604146115,159.6061090427125
0.6751984523072497,145.82598751865999
0.7017038286703824,132.8850425723587
0.7292496916841444,121.35766444104485
0.7578768863625915,110.76453511445561
0.7876278611187046,100.946443539936
0.8185467307069019,92.05053639133939
0.850679341636415,83.90712720840756
0.8840733401525058,76.44993023979511
0.9187782428863317,69.62745491334609
0.9548455102782278,63.39114656182302
0.9923286228832539,57.695351719046954
1.0312831606721837,52.49713357991303
1.0717668854455022,47.7550250548474
1.1138398264826193,43.42997543116068
1.1575643695533022,39.48619442521147
1.2030053494233226,35.89089880921274
1.2502301459914542,32.614063884851774
1.299308784200415,29.628253957099563
1.3503140378698726,26.908527696371912
1.4033215376054824,24.43202414708314
1.4584098829439835,22.17775067183481
1.5156607589006013,20.12644071787965
1.575159057091621,18.260420621044553
1.6369930016117014,16.563462062082056
1.7012542798525885,15.020671487948329
1.7680381784572046,13.618421043345785
1.8374437246107238,12.344247865238694
1.9095738328780953,11.18675856460226
1.9845354578058014,10.135541759065717
2.0624397525140905,9.181090908498229
2.143402233514853,8.314725049145046
2.227542951999554,7.528517240533136
2.314986671851158,6.815231697233702
2.405863054644063,6.168265904908487
2.5003068519063225,5.581596039708919
2.598458104929248,5.049726390050151
2.7004623524206774,4.567648243415104
2.806470846309834,4.1307987924295215
2.916640776023701,3.7350226956355175
3.031135501567576,3.3765368200787247
3.150124795755327,3.0518978888411206
3.2737850959485697,2.757972871718636
3.4022997656780634,2.491911886077968
3.5358593665351745,2.251123344484415
3.6746619407366854,2.0332512046911773
3.8189133047818515,1.8361540907612057
3.968827354637162,1.657885968751287
4.1246263829013445,1.4966791159355324
4.286541408420921,1.3509283598075108
4.4548125188449825,1.219176498522667
4.629689226627261,1.1001009891403333
4.811430839003257,0.9925016831297234
5.000306842491082,0.8952896695640029
5.196597302486189,0.8074774533050875
5.400593278542364,0.7281697461735739
5.612597255954967,0.6565550372266205
5.8329235942862,0.5918979148873865
6.06189899349756,0.5335320791836662
6.29986297838068,0.4808539745423938
6.547168402004727,0.4333169935647015
6.804181968927091,0.3904262076167162
7.071284778942991,0.3517335739614556
7.348872892180382,0.3168335636263735
7.637357916378006,0.2853591558899582
7.937167617217536,0.2569783055814258
8.248746552614573,0.23139068862450338
8.572556731909314,0.20832472222946877
8.909078300934132,0.18753485919139407
9.258810253973934,0.1687991031961585
9.622271173675122,0.15191677481742982
9.999999999999984,0.13670654864813803
