k [1/Mpc],P(k) [Mpc^3]
0.0001,120.67299802694296
0.00010392556829367125,126.13245169908394
0.00010800523745162529,131.8385616043582
0.00011224505680853065,137.8024287090193
0.00011665131316981963,144.03564958998908
0.00012123054013376525,150.55033516004863
0.00012598952777950273,157.35913407933947
0.00013093533273536104,164.47525641012325
0.00013607528864243335,171.9124921286648
0.00014141701702890234,179.6852418241168
0.00014696843861124463,187.80853931447012
0.00015273778503907136,196.29807780686855
0.00015873361110102093,205.17024325327992
0.00016496480740980205,214.44214109521866
0.0001714406135851971,224.13162938772317
0.00017817063195457305,234.2573404838185
0.00018516484179121546,244.83870282527445
0.000192433614111598,255.8959914059756
0.00019998772705352857,267.4503601735461
0.0002078383818579757,279.52388081420054
0.00021599721947827182,292.1395685877902
0.0002244763378413224,305.3213878250017
0.0002332883097864157,319.0943240517668
0.00024244620170823283,333.4844302539479
0.0002519635929317015,348.51887016078007
0.0002618545958474233,364.22595363217823
0.0002721338768375308,380.63512858726625
0.0002828166780230032,397.7770622000673
0.0002939188398646886,415.68368072022906
0.0003054568246515432,434.38819952731905
0.00031744774091091926,453.92519845090317
0.00032990936877709396,474.3306154917354
0.00034286018635565856,495.64182045280234
0.00035631939712285854,517.8976689721761
0.000370306958400514,541.138505087941
0.00038484361094874304,565.4062637462134
0.0003999509097203664,590.7444429525666
0.00041565125582259895,617.1981574977154
0.00043196792973341727,644.8142393570835
0.0004489251258218605,673.6412082878785
0.0004665479882234472,703.7293865573572
0.000484862648123908,735.1308642846308
0.000503896262506515,767.8994903456119
0.0005236770544204653,802.0910375296132
0.0005442343548300266,837.7631740849712
0.0005655986461065005,874.975552876303
0.0005878016072274912,913.7897797443303
0.0006108761607505036,954.2692900476394
0.0006348565216305217,996.4795709366714
0.0006597782479539537,1040.4880401161802
0.0006856782936641739,1086.3640998098078
0.0007125950633568407,1134.179242342019
0.0007405684692262436,1184.0069243773598
0.0007696399902471156,1235.9227028211733
0.0007998527336796708,1290.0039706811413
0.000831251498989063,1346.329845391006
0.0008638828442740447,1404.9814150784105
0.000897795155303332,1466.0413576694582
0.0009330387172620361,1529.5941189751193
0.0009696657893145519,1595.7256881865555
0.001007730682094461,1664.523167078356
0.0010472898382363582,1736.075164681338
0.0010884019160690055,1810.4712548360133
0.0011311278765939214,1887.8019956437868
0.001175531073878369,1968.1587321625248
0.0012216773489967915,2051.632489590679
0.0012696351276599736,2138.314657607815
0.0013194755216767058,2228.296476562871
0.0013712724343984,2321.6687167437135
0.0014251026703029975,2418.521692494237
0.0014810460488806749,2518.9437768308817
0.0015391855229902056,2623.021872166362
0.001599607301861487,2730.841321241387
0.0016624009789266115,2842.4853867678376
0.0017276596646690358,2958.034938910297
0.0017954801246878305,3077.5658004081
0.0018659629231817451,3201.1490198569118
0.001939212572065829,3328.8513185795878
0.0020153376859417325,3460.734001608173
0.002094451143151469,3596.852969287113
0.002176670253153458,3737.2570649831373
0.002262116930469025,3881.98740528167
0.002350917875457286,4031.0774524958006
0.002443204762186487,4184.551240478377
0.0025391144336803463,4342.423510917087
0.002638789104828933,4504.698891367412
0.002742376573264949,4671.370877186272
0.0028500304385181063,4842.421568107335
0.0029619103297725525,5017.819826902368
0.0030781821425650787,5197.521030670876
0.003199018284775064,5381.466762857642
0.0033245979322709396,5569.5838732154625
0.003455107294592217,5761.783921855068
0.0035907398910610534,5957.96120739101
0.0037316968377327513,6157.992171643653
0.0038781871456107214,6361.7351776312935
0.0040304280305680515,6569.028258755325
0.00418864523543527,6779.689772732717
0.004353073364731888,6993.516323905535
0.00452395623253805,7210.281423237885
0.004701547224022131,7429.737396940598
0.004886109671160325,7651.616343489416
0.005077917243205399,7875.629162090962
0.005277254352483535,8101.451898165327
0.005484416576121017,8328.710025491902
0.005699711094326071,8557.005078198927
0.005923457145875801,8785.987578431266
0.006155986501483508,9015.342882941397
0.006397643955748424,9244.680876664295
0.0066487878384172625,9473.36880982837
0.0069097905457156435,9700.690351549345
0.007181039092537346,9926.002917003843
0.007462935686310132,10148.763915975855
0.007755898323389004,10368.422719675806
0.00806036140886134,10584.425673760808
0.008376776400682916,10796.211047379553
0.008705612479099857,11003.153466506259
0.009047357242349292,11204.518564538266
0.00940251742967013,11399.544460970632
0.009771619672696168,11587.438753888278
0.010155211276345676,11767.387888260566
0.010553861030365234,11938.56486121454
0.010968160052731372,12100.121340007197
0.011398722666160517,12251.206407422043
0.011846187309026826,12390.969162531963
0.012311217482038896,12518.564390332427
0.012794502732078732,12633.147036249902
0.013296759674662111,12733.80789886761
0.013818733056536317,12819.637869946191
0.014361196859990781,12889.747522440573
0.014924955450518284,12943.266745138195
0.015510844769528393,12979.370145522726
0.016119733573881575,12997.243864736558
0.01675252472408214,12996.11900279023
0.017410156523040152,12975.293605996143
0.018093604107387147,12934.121375824818
0.01880388089340914,12872.052378127972
0.019542040079740527,12788.636395392037
0.02030917620904734,12683.535176226913
0.021106426791015535,12556.551255814617
0.021934973989050584,12407.66367217698
0.02279604637318978,12237.007800904195
0.023690920741826323,12044.934900625876
0.02462092401494623,11832.032232161431
0.02558743520168586,11599.06357758072
0.02659188744512693,11347.148410715412
0.027635770147361564,11077.61288682177
0.028720631177978267,10792.036036099935
0.029848079169243254,10492.407328736715
0.03101978590138095,10180.79184159972
0.03223748878149028,9859.656991225678
0.0335029934197723,9531.674065456258
0.03481817630688963,9199.53835946261
0.03618498759642746,8866.395485498655
0.037605453996581675,8535.229246693043
0.03908168177536263,8209.01065740339
0.04061585988376978,7890.699230925549
0.04221026320156896,7582.968835413577
0.04386725591048496,7288.856156168719
0.0455892949998106,7011.181161659262
0.047378933909631396,6751.444079167595
0.049238826317067365,6509.315938807723
0.05117173007114603,6284.323094289976
0.05318051128214196,6076.545790042789
0.05526814857144601,5886.352710711795
0.057437737488265785,5712.697606714193
0.0596924950997073,5550.451900033942
0.0620357647610427,5394.3244863090895
0.06447102107323864,5241.05616089149
0.06700187503509585,5088.8021314717735
0.06963207939763882,4933.732828137249
0.0723655342286965,4769.238516771319
0.07520629269592405,4590.065203717765
0.07815856707684081,4393.198608607583
0.08122673500479707,4178.5984457598415
0.08441534596012978,3949.6932720576347
0.0877291280161335,3711.9442989772137
0.09117299484984914,3472.1118755374614
0.09475205302806537,3237.933050392176
0.09847160957933764,3015.5479328681618
0.1023371798632519,2809.3694570566317
0.10635449574860109,2627.8059140886535
0.11052951411260206,2476.2936660493656
0.1148684256737553,2354.2795906241645
0.1193776641714435,2256.9988015572803
0.1240639159058831,2174.905269745352
0.12893412965257148,2097.374587071385
0.13399552696593373,2014.8629451318855
0.1392556128874462,1920.6205252107625
0.14472218707411338,1812.1406661640863
0.15040335536380234,1691.6568706444832
0.15630754179458153,1565.0306704089999
0.16244350109588662,1439.9312436331925
0.16882033167003618,1326.9576619547265
0.17544748908334581,1234.7668463105967
0.1823348000868439,1162.5095844020198
0.189492477187382,1103.6229254153911
0.19693113379074215,1051.6740986592747
0.20466179993919872,997.871291900124
0.21269593866686892,935.9637731723014
0.22104546299710207,868.5047144529361
0.22972275360711503,801.3779532344286
0.23874067718606454,740.549336165135
0.2481126055137766,689.606656589103
0.25785243528842716,647.236555866719
0.26797460873256895,609.1127843436036
0.27849413500806414,570.0594155270293
0.28942661247167484,529.5303946917072
0.3007882518043098,489.98854235421396
0.31259590004822796,454.2104135471595
0.324867065587837,423.0478622530069
0.3376199441111335,394.65921574094625
0.35087344559027084,367.21978103333083
0.36464722232127456,340.3443184764023
0.37896169806447155,315.3211627185202
0.3938380983288488,292.59849938500554
0.4092984818452433,271.6928679512444
0.4253657732750382,251.870403435547
0.44206379720285277,233.19348020049907
0.45941731346364734,215.93210458873293
0.47745205385661277,199.96764883536608
0.4961947603002895,185.0561530699336
0.5156732244854959,171.13954828078604
0.5359163290848509,158.24706182451007
0.556954090580013,146.2836626957954
0.5788177037701272,135.15613687027164
0.6015395880274836,124.83664125187207
0.6251534353689703,115.2712103688894
0.6496942604146115,106.39687634455031
0.6751984523072497,98.17431110459681
0.7017038286703824,90.55441686139082
0.7292496916841444,83.49772312831053
0.7578768863625915,76.9641174549454
0.7876278611187046,70.91836964411426
0.8185467307069019,65.3272747340959
0.850679341636415,60.15887393914239
0.8840733401525058,55.383415523623086
0.9187782428863317,50.97242341050983
0.9548455102782278,46.89935174625798
0.9923286228832539,43.13948046687358
1.0312831606721837,39.669798608906326
1.0717668854455022,36.468923725662435
1.1138398264826193,33.51706381808477
1.1575643695533022,30.79580668582888
1.2030053494233226,28.2880057655128
1.2502301459914542,25.977702409651695
1.299308784200415,23.850051486857005
1.3503140378698726,21.89123403457633
1.4033215376054824,20.08839440718413
1.4584098829439835,18.429602217563545
1.5156607589006013,16.903792066690258
1.575159057091621,15.50070532414561
1.6369930016117014,14.210835139348845
1.7012542798525885,13.02537373496008
1.7680381784572046,11.936165771041516
1.8374437246107238,10.935663839577686
1.9095738328780953,10.016885931440438
1.9845354578058014,9.173375607082848
2.0624397525140905,8.399163569166927
2.143402233514853,7.688732233171567
2.227542951999554,7.036985785891663
2.314986671851158,6.439219892361685
2.405863054644063,5.891093129025141
2.5003068519063225,5.388600197013127
2.598458104929248,4.928045473255239
2.7004623524206774,4.506021249977635
2.806470846309834,4.1193876482724345
2.916640776023701,3.7652524576576374
3.031135501567576,3.440952387157562
3.150124795755327,3.144035888459486
3.2737850959485697,2.8722474075424826
3.4022997656780634,2.6235116130626697
3.5358593665351745,2.3959193935559027
3.6746619407366854,2.187715055521164
3.8189133047818515,1.9972844291511367
3.968827354637162,1.8231431838912715
4.1246263829013445,1.663926897816507
4.286541408420921,1.5183825362993149
4.4548125188449825,1.3853596771805081
4.629689226627261,1.2638023587305605
4.811430839003257,1.1527415526057323
5.000306842491082,1.0512882188266424
5.196597302486189,0.9586268849093771
5.400593278542364,0.8740097256991237
5.612597255954967,0.7967511059664318
5.8329235942862,0.7262225477433901
6.06189899349756,0.6618480373632912
6.29986297838068,0.6030997358686616
6.547168402004727,0.5494941513135382
6.804181968927091,0.5005885134641113
7.071284778942991,0.4559774256807932
7.348872892180382,0.41528978318631804
7.637357916378006,0.3781859307602778
7.937167617217536,0.3443550641612648
8.248746552614573,0.31351284025469867
8.572556731909314,0.28539917340021576
8.909078300934132,0.25977621043185967
9.258810253973934,0.23642643298251056
9.622271173675122,0.21515089772204327
9.999999999999984,0.1957677859960833
