k [1/Mpc],P(k) [Mpc^3]
0.0001,120.67294697702773
0.00010392556829367125,126.1324063459706
0.00010800523745162529,131.8385163541749
0.00011224505680853065,137.80238231897474
0.00011665131316981963,144.0356064091517
0.00012123054013376525,150.55029862618593
0.00012598952777950273,157.35910227617714
0.00013093533273536104,164.47522195427078
0.00013607528864243335,171.91244519857125
0.00014141701702890234,179.68517108343582
0.00014696843861124463,187.80843867979627
0.00015273778503907136,196.2979551358333
0.00015873361110102093,205.17011797240949
0.00016496480740980205,214.44202027439138
0.0001714406135851971,224.1314976779916
0.00017817063195457305,234.25717311253368
0.00018516484179121546,244.8384937171361
0.000192433614111598,255.89575632599045
0.00019998772705352857,267.4501120482283
0.0002078383818579757,279.52361481583284
0.00021599721947827182,292.1392668499587
0.0002244763378413224,305.32104563147544
0.0002332883097864157,319.09395663977466
0.00024244620170823283,333.4840489967535
0.0002519635929317015,348.5184595894854
0.0002618545958474233,364.22547492977316
0.0002721338768375308,380.63456560365296
0.0002828166780230032,397.77644159426586
0.0002939188398646886,415.6830402556504
0.0003054568246515432,434.38754535747984
0.00031744774091091926,453.92450209971526
0.00032990936877709396,474.329858744498
0.00034286018635565856,495.6410262173707
0.00035631939712285854,517.8968816903163
0.000370306958400514,541.1377518554042
0.00038484361094874304,565.4055477890238
0.0003999509097203664,590.7437617562817
0.00041565125582259895,617.1975337113006
0.00043196792973341727,644.8137120551085
0.0004489251258218605,673.6408073803848
0.0004665479882234472,703.729130520693
0.000484862648123908,735.1307866344013
0.000503896262506515,767.8997060693838
0.0005236770544204653,802.0917419155585
0.0005442343548300266,837.7645505907418
0.0005655986461065005,874.9777402123353
0.0005878016072274912,913.7928901611323
0.0006108761607505036,954.2735112119444
0.0006348565216305217,996.4851899869591
0.0006597782479539537,1040.495427879165
0.0006856782936641739,1086.3737366136315
0.0007125950633568407,1134.1916933471782
0.0007405684692262436,1184.0227763880653
0.0007696399902471156,1235.942556312082
0.0007998527336796708,1290.02846912783
0.000831251498989063,1346.359795226781
0.0008638828442740447,1405.0177820126037
0.000897795155303332,1466.085213930667
0.0009330387172620361,1529.6466699953878
0.0009696657893145519,1595.7882367637515
0.001007730682094461,1664.5972045732278
0.0010472898382363582,1736.162382192508
0.0010884019160690055,1810.5734053088595
0.0011311278765939214,1887.9208986132858
0.001175531073878369,1968.2961676896864
0.0012216773489967915,2051.7902626404293
0.0012696351276599736,2138.494652176929
0.0013194755216767058,2228.5005340078533
0.0013712724343984,2321.898666376154
0.0014251026703029975,2418.779264736923
0.0014810460488806749,2519.2306436517442
0.0015391855229902056,2623.339770109463
0.001599607301861487,2731.1916496183876
0.0016624009789266115,2842.8687261134714
0.0017276596646690358,2958.4509076865425
0.0017954801246878305,3078.013739360629
0.0018659629231817451,3201.6286963704983
0.001939212572065829,3329.3625820178763
0.0020153376859417325,3461.276144064818
0.002094451143151469,3597.4245894488868
0.002176670253153458,3737.8561372190848
0.002262116930469025,3882.6116304977563
0.002350917875457286,4031.7242814572705
0.002443204762186487,4185.2183139198105
0.0025391144336803463,4343.108883027691
0.002638789104828933,4505.3998409166525
0.002742376573264949,4672.082637931132
0.0028500304385181063,4843.137033519497
0.0029619103297725525,5018.529714601367
0.0030781821425650787,5198.213979220725
0.003199018284775064,5382.127961412138
0.0033245979322709396,5570.192772601886
0.003455107294592217,5762.313375388702
0.0035907398910610534,5958.376911832759
0.0037316968377327513,6158.252358982782
0.0038781871456107214,6361.78936169648
0.0040304280305680515,6568.81546620765
0.00418864523543527,6779.13751946465
0.004353073364731888,6992.5385371854545
0.00452395623253805,7208.777072118698
0.004701547224022131,7427.588971321073
0.004886109671160325,7648.6860837101185
0.005077917243205399,7871.756332911192
0.005277254352483535,8096.4445864914405
0.005484416576121017,8322.34156854639
0.005699711094326071,8549.016966534324
0.005923457145875801,8776.09238487606
0.006155986501483508,9003.208567170626
0.006397643955748424,9229.895319852589
0.0066487878384172625,9455.434133653474
0.0069097905457156435,9679.039728444195
0.007181039092537346,9900.016513396537
0.007462935686310132,10117.742528674851
0.007755898323389004,10331.576041266158
0.00806036140886134,10540.846091177908
0.008376776400682916,10744.860756797005
0.008705612479099857,10942.836048894367
0.009047357242349292,11133.875938867615
0.00940251742967013,11317.05359834971
0.009771619672696168,11491.384134760625
0.010155211276345676,11655.853525256878
0.010553861030365234,11809.408515453279
0.010968160052731372,11950.930583181122
0.011398722666160517,12079.295625851995
0.011846187309026826,12193.354051217404
0.012311217482038896,12291.953525885188
0.012794502732078732,12373.923544788053
0.013296759674662111,12437.974699811151
0.013818733056536317,12482.836726205811
0.014361196859990781,12507.212039218988
0.014924955450518284,12509.7905505904
0.015510844769528393,12489.337875293282
0.016119733573881575,12444.597659932757
0.01675252472408214,12374.417124410773
0.017410156523040152,12277.701034496136
0.018093604107387147,12153.365495917527
0.01880388089340914,12000.536429991902
0.019542040079740527,11818.430647951562
0.02030917620904734,11606.483587937917
0.021106426791015535,11364.399259297885
0.021934973989050584,11092.047153133994
0.02279604637318978,10789.690356028404
0.023690920741826323,10457.907872016352
0.02462092401494623,10097.650589762572
0.02558743520168586,9710.365550977574
0.02659188744512693,9297.931577734005
0.027635770147361564,8862.726538644018
0.028720631177978267,8407.685001807924
0.029848079169243254,7936.257841259246
0.03101978590138095,7452.309029267284
0.03223748878149028,6960.336404875946
0.0335029934197723,6465.070095973228
0.03481817630688963,5971.573441132434
0.03618498759642746,5485.439571811982
0.037605453996581675,5011.779947100837
0.03908168177536263,4556.018868455196
0.04061585988376978,4123.107424884273
0.04221026320156896,3717.2841882648936
0.04386725591048496,3343.558609833391
0.0455892949998106,3005.1703941163382
0.047378933909631396,2704.2089629745146
0.049238826317067365,2441.856883355508
0.05117173007114603,2217.9709116824206
0.05318051128214196,2032.565430105156
0.05526814857144601,1885.2896058647245
0.057437737488265785,1775.0273571043833
0.0596924950997073,1700.4902779054491
0.0620357647610427,1659.9361864451305
0.06447102107323864,1648.707916182423
0.06700187503509585,1662.7201137512818
0.06963207939763882,1697.8756972050771
0.0723655342286965,1749.0797859050867
0.07520629269592405,1807.2932928740447
0.07815856707684081,1861.5805003459232
0.08122673500479707,1899.6600492279176
0.08441534596012978,1909.4721476512718
0.0877291280161335,1880.8349228963602
0.09117299484984914,1807.7914623318172
0.09475205302806537,1689.7287754196636
0.09847160957933764,1531.7091167839144
0.1023371798632519,1344.0725059353792
0.10635449574860109,1142.6284208610225
0.11052951411260206,947.1302943020834
0.1148684256737553,775.1618510896545
0.1193776641714435,639.1790022649765
0.1240639159058831,543.9911498157713
0.12893412965257148,489.0938904997428
0.13399552696593373,471.4476876161052
0.1392556128874462,485.6793756259412
0.14472218707411338,523.0734400589432
0.15040335536380234,570.5451123496184
0.15630754179458153,610.1897355414688
0.16244350109588662,621.6063151151277
0.16882033167003618,590.6573194291934
0.17544748908334581,520.1651369280424
0.1823348000868439,428.5038051909078
0.189492477187382,338.6358457685785
0.19693113379074215,269.7112440039508
0.20466179993919872,231.7129394235741
0.21269593866686892,224.0381264810366
0.22104546299710207,238.58442231536972
0.22972275360711503,261.56409779548403
0.23874067718606454,273.75642377001617
0.2481126055137766,260.0699348350937
0.25785243528842716,222.30473272133125
0.26797460873256895,177.7230020931807
0.27849413500806414,145.33303276367195
0.28942661247167484,132.5350047362974
0.3007882518043098,135.96138727554754
0.31259590004822796,143.52200274554994
0.324867065587837,140.75880915265628
0.3376199441111335,123.69908330407269
0.35087344559027084,102.38329129156257
0.36464722232127456,88.99759873293306
0.37896169806447155,86.0997346659145
0.3938380983288488,86.980466630376
0.4092984818452433,82.55231208772028
0.4253657732750382,72.09198619707034
0.44206379720285277,62.78662688011801
0.45941731346364734,58.919691028784115
0.47745205385661277,57.2862929372617
0.4961947603002895,53.002877288416165
0.5156732244854959,46.944458337576656
0.5359163290848509,42.85817584366111
0.556954090580013,40.62443055351955
0.5788177037701272,37.5785595816849
0.6015395880274836,33.87717843918069
0.6251534353689703,31.226965552773276
0.6496942604146115,29.100700203687403
0.6751984523072497,26.572742275090643
0.7017038286703824,24.347307433833592
0.7292496916841444,22.486119653678106
0.7578768863625915,20.698583436972232
0.7876278611187046,19.023875240427774
0.8185467307069019,17.465007877827425
0.850679341636415,16.021020551915697
0.8840733401525058,14.689375313918019
0.9187782428863317,13.466303489437351
0.9548455102782278,12.34680066760451
0.9923286228832539,11.322440473969436
1.0312831606721837,10.383902046232864
1.0717668854455022,9.522931418689415
1.1138398264826193,8.732224214511117
1.1575643695533022,8.005304540784051
1.2030053494233226,7.336553266010719
1.2502301459914542,6.72154710094918
1.299308784200415,6.156349904132329
1.3503140378698726,5.6372610989381515
1.4033215376054824,5.160808428428991
1.4584098829439835,4.7237399268802704
1.5156607589006013,4.322976346630358
1.575159057091621,3.9555605366250663
1.6369930016117014,3.618757549593575
1.7012542798525885,3.310054879019678
1.7680381784572046,3.027144389854542
1.8374437246107238,2.7679059139958246
1.9095738328780953,2.5304004420859996
1.9845354578058014,2.3128559854415025
2.0624397525140905,2.1136407064993636
2.143402233514853,1.9312513694163738
2.227542951999554,1.7643036934248615
2.314986671851158,1.6115232616981232
2.405863054644063,1.4717355260979805
2.5003068519063225,1.343859133304919
2.598458104929248,1.226900397629688
2.7004623524206774,1.1199464568203121
2.806470846309834,1.0221588962599728
2.916640776023701,0.9327678982135129
3.031135501567576,0.8510670282878516
3.150124795755327,0.7764079492859791
3.2737850959485697,0.7081956451509509
3.4022997656780634,0.6458841675313269
3.5358593665351745,0.5889727095106374
3.6746619407366854,0.5370019061512703
3.8189133047818515,0.48955032192161047
3.968827354637162,0.44623166782852103
4.1246263829013445,0.40669201465884836
4.286541408420921,0.3706071459857286
4.4548125188449825,0.3376801216892102
4.629689226627261,0.3076390455655129
4.811430839003257,0.28023500795475076
5.000306842491082,0.2552401653193143
5.196597302486189,0.23244599450425824
5.400593278542364,0.21166169049737338
5.612597255954967,0.19271269276185407
5.8329235942862,0.1754393095620042
6.06189899349756,0.15969548082941146
6.29986297838068,0.14534766634915922
6.547168402004727,0.1322737948196957
6.804181968927091,0.12036229754638926
7.071284778942991,0.10951122250862906
7.348872892180382,0.09962742836896389
7.637357916378006,0.09062583197312578
7.937167617217536,0.08242871785385482
8.248746552614573,0.07496511179035126
8.572556731909314,0.06817020658887839
8.909078300934132,0.061984829772353374
9.258810253973934,0.05635493702788578
9.622271173675122,0.05123120298378596
9.999999999999984,0.04656862806743088
