k [1/Mpc],P(k) [Mpc^3]
0.0001,210.04650743858988
0.00010392556829367125,217.6555124510778
0.00010800523745162529,225.5395765138244
0.00011224505680853065,233.70857142185164
0.00011665131316981963,242.17271781024323
0.00012123054013376525,250.94259564613333
0.00012598952777950273,260.0291576811228
0.00013093533273536104,269.4437381862543
0.00013607528864243335,279.1980581340018
0.00014141701702890234,289.30424690820803
0.00014696843861124463,299.7748419557631
0.00015273778503907136,310.6228043262832
0.00015873361110102093,321.8615452215394
0.00016496480740980205,333.5049434642182
0.0001714406135851971,345.56735862314895
0.00017817063195457305,358.06362336169485
0.00018516484179121546,371.00905094974115
0.000192433614111598,384.41947047055413
0.00019998772705352857,398.311217609938
0.0002078383818579757,412.7011661101304
0.00021599721947827182,427.6067457395811
0.0002244763378413224,443.0459486209874
0.0002332883097864157,459.03735851851326
0.00024244620170823283,475.6001296931463
0.0002519635929317015,492.7540148058182
0.0002618545958474233,510.5193810613817
0.0002721338768375308,528.9171678243744
0.0002828166780230032,547.9689601146595
0.0002939188398646886,567.6969992360872
0.0003054568246515432,588.1241974056951
0.00031744774091091926,609.2741495481456
0.00032990936877709396,631.1710431441282
0.00034286018635565856,653.8397449879308
0.00035631939712285854,677.3058110348813
0.000370306958400514,701.5954706279351
0.00038484361094874304,726.7356764566713
0.0003999509097203664,752.7539652300655
0.00041565125582259895,779.6785301609975
0.00043196792973341727,807.5382795771077
0.0004489251258218605,836.3627929397035
0.0004665479882234472,866.1823784917382
0.000484862648123908,897.0279091918821
0.000503896262506515,928.9308352180142
0.0005236770544204653,961.9232826701235
0.0005442343548300266,996.0379261975406
0.0005655986461065005,1031.308085706881
0.0005878016072274912,1067.767594742569
0.0006108761607505036,1105.450720831681
0.0006348565216305217,1144.3922996486654
0.0006597782479539537,1184.6275243972786
0.0006856782936641739,1226.1920341993796
0.0007125950633568407,1269.1218152847157
0.0007405684692262436,1313.452977343962
0.0007696399902471156,1359.2219601345075
0.0007998527336796708,1406.465260902236
0.000831251498989063,1455.219450814136
0.0008638828442740447,1505.5211196696546
0.000897795155303332,1557.4063775764064
0.0009330387172620361,1610.911182091222
0.0009696657893145519,1666.070887735018
0.001007730682094461,1722.920072235127
0.0010472898382363582,1781.4927671774904
0.0010884019160690055,1841.8217409893318
0.0011311278765939214,1903.9387963073384
0.001175531073878369,1967.874257152458
0.0012216773489967915,2033.6563372157962
0.0012696351276599736,2101.3117468714736
0.0013194755216767058,2170.8647937187907
0.0013712724343984,2242.337522220203
0.0014251026703029975,2315.7495290370503
0.0014810460488806749,2391.1169520508306
0.0015391855229902056,2468.4531433652264
0.001599607301861487,2547.768171894984
0.0016624009789266115,2629.0686181621622
0.0017276596646690358,2712.357278738121
0.0017954801246878305,2797.631353580326
0.0018659629231817451,2884.883404565155
0.001939212572065829,2974.100859166075
0.0020153376859417325,3065.2653968573554
0.002094451143151469,3158.353391116757
0.002176670253153458,3253.3348269684066
0.002262116930469025,3350.173474155501
0.002350917875457286,3448.8263962927863
0.002443204762186487,3549.242891043594
0.0025391144336803463,3651.3651798414953
0.002638789104828933,3755.1271479747643
0.002742376573264949,3860.4543243613116
0.0028500304385181063,3967.2640141755624
0.0029619103297725525,4075.464005161019
0.0030781821425650787,4184.953334889964
0.003199018284775064,4295.621594171293
0.0033245979322709396,4407.348593867483
0.003455107294592217,4520.004742335787
0.0035907398910610534,4633.449569389436
0.0037316968377327513,4747.53256477868
0.0038781871456107214,4862.092450717676
0.0040304280305680515,4976.956138570518
0.00418864523543527,5091.9402982386655
0.004353073364731888,5206.848947857691
0.00452395623253805,5321.474624061
0.004701547224022131,5435.59988901236
0.004886109671160325,5548.997070983729
0.005077917243205399,5661.428328050649
0.005277254352483535,5772.62857784617
0.005484416576121017,5882.306276357852
0.005699711094326071,5990.171965711505
0.005923457145875801,6095.987017783378
0.006155986501483508,6199.5242584312155
0.006397643955748424,6300.459096581614
0.0066487878384172625,6398.324571658086
0.0069097905457156435,6492.642909938643
0.007181039092537346,6583.027973774222
0.007462935686310132,6669.138248655426
0.007755898323389004,6750.6284550452
0.00806036140886134,6827.145183747827
0.008376776400682916,6898.332525658174
0.008705612479099857,6963.775369550535
0.009047357242349292,7023.0161049737835
0.00940251742967013,7075.594014116963
0.009771619672696168,7121.026965379055
0.010155211276345676,7158.837373237783
0.010553861030365234,7188.532758121084
0.010968160052731372,7209.605094216023
0.011398722666160517,7221.563367960107
0.011846187309026826,7223.908983688943
0.012311217482038896,7216.1650954833385
0.012794502732078732,7197.85055261792
0.013296759674662111,7168.449790823628
0.013818733056536317,7127.488821279835
0.014361196859990781,7074.469243659788
0.014924955450518284,7008.91738299626
0.015510844769528393,6930.417190773825
0.016119733573881575,6838.560748917918
0.01675252472408214,6733.037072383286
0.017410156523040152,6613.551962980373
0.018093604107387147,6479.856425778218
0.01880388089340914,6331.837847076744
0.019542040079740527,6169.422233765108
0.02030917620904734,5992.703015807422
0.021106426791015535,5801.898231862272
0.021934973989050584,5597.328167076598
0.02279604637318978,5379.555521375511
0.023690920741826323,5149.261676030135
0.02462092401494623,4907.358090459828
0.02558743520168586,4655.003808948639
0.02659188744512693,4393.526293243686
0.027635770147361564,4124.546214004393
0.028720631177978267,3849.899196190883
0.029848079169243254,3571.632762158409
0.03101978590138095,3292.0208059335914
0.03223748878149028,3013.5030883001473
0.0335029934197723,2738.608905172495
0.03481817630688963,2470.0245249032178
0.03618498759642746,2210.4574915500452
0.037605453996581675,1962.392642091537
0.03908168177536263,1728.2976617885636
0.04061585988376978,1510.1653172735387
0.04221026320156896,1309.852969051374
0.04386725591048496,1129.177090923061
0.0455892949998106,968.8608755602685
0.047378933909631396,829.284452319064
0.049238826317067365,710.0716860046574
0.05117173007114603,610.2674645275187
0.05318051128214196,529.1439534486933
0.05526814857144601,465.41722650532495
0.057437737488265785,417.80589829205707
0.0596924950997073,385.2974114237044
0.0620357647610427,366.40632973603454
0.06447102107323864,359.2541131021866
0.06700187503509585,362.6358157847775
0.06963207939763882,375.60318612503045
0.0723655342286965,396.9364193057521
0.07520629269592405,424.2303305398771
0.07815856707684081,454.2951541977421
0.08122673500479707,482.9405703799828
0.08441534596012978,505.3563332366238
0.0877291280161335,516.6759789482352
0.09117299484984914,512.9534449967869
0.09475205302806537,491.8401240082535
0.09847160957933764,453.2382647593617
0.1023371798632519,399.51757604272876
0.10635449574860109,335.3860798704646
0.11052951411260206,268.25448714621405
0.1148684256737553,205.831087998194
0.1193776641714435,153.9443196120161
0.1240639159058831,115.49143998231192
0.12893412965257148,90.65773319998164
0.13399552696593373,78.0965152908309
0.1392556128874462,76.21835486274769
0.14472218707411338,83.4273199973398
0.15040335536380234,97.78606978568432
0.15630754179458153,115.84121411270169
0.16244350109588662,131.57578276407122
0.16882033167003618,137.74086794652248
0.17544748908334581,130.00601153412563
0.1823348000868439,109.8588311262477
0.189492477187382,83.57459714476695
0.19693113379074215,59.02298387986806
0.20466179993919872,41.93995502534476
0.21269593866686892,33.88721348786989
0.22104546299710207,33.70012947629695
0.22972275360711503,39.46505356318784
0.23874067718606454,47.66095770470612
0.2481126055137766,52.50118748446405
0.25785243528842716,49.452875386081146
0.26797460873256895,39.40556190258547
0.27849413500806414,28.22110218458253
0.28942661247167484,20.945102147039098
0.3007882518043098,18.984600507420318
0.31259590004822796,21.141570695352296
0.324867065587837,24.157127901681303
0.3376199441111335,24.06105299406632
0.35087344559027084,19.89932096361365
0.36464722232127456,14.960015836051914
0.37896169806447155,12.385391467182561
0.3938380983288488,12.538704511847248
0.4092984818452433,13.46973284520325
0.4253657732750382,12.746852577945722
0.44206379720285277,10.412713316886963
0.45941731346364734,8.583875576419114
0.47745205385661277,8.21884628465871
0.4961947603002895,8.298968954438637
0.5156732244854959,7.536055523216894
0.5359163290848509,6.335621344414727
0.556954090580013,5.734113357724673
0.5788177037701272,5.5599701330011015
0.6015395880274836,5.07392921698621
0.6251534353689703,4.42033646861388
0.6496942604146115,4.069179472791216
0.6751984523072497,3.7997149047045995
0.7017038286703824,3.4001884421830404
0.7292496916841444,3.074149589936165
0.7578768863625915,2.844391041660025
0.7876278611187046,2.610122742527269
0.8185467307069019,2.3772520033816287
0.850679341636415,2.154030842325636
0.8840733401525058,1.9463043719374873
0.9187782428863317,1.7578081986199647
0.9548455102782278,1.5902934623008504
0.9923286228832539,1.4418183233903832
1.0312831606721837,1.3092363713482147
1.0717668854455022,1.189984957762812
1.1138398264826193,1.0819879007532844
1.1575643695533022,0.9835637045488408
1.2030053494233226,0.8934418074088283
1.2502301459914542,0.8109837763153196
1.299308784200415,0.7357074485146997
1.3503140378698726,0.6671296222890093
1.4033215376054824,0.6047729748038547
1.4584098829439835,0.5481716370228721
1.5156607589006013,0.4968530056304397
1.575159057091621,0.45031825165514744
1.6369930016117014,0.40810892633486784
1.7012542798525885,0.3698130250139655
1.7680381784572046,0.33505995491605145
1.8374437246107238,0.3035161932434437
1.9095738328780953,0.2748861975640121
1.9845354578058014,0.248908598961972
2.0624397525140905,0.2253449544930536
2.143402233514853,0.20397729180595278
2.227542951999554,0.18460647144139944
2.314986671851158,0.16705060394117588
2.405863054644063,0.1511427936602845
2.5003068519063225,0.13673041750914927
2.598458104929248,0.12367476714090242
2.7004623524206774,0.11184982186406572
2.806470846309834,0.10114110485029548
2.916640776023701,0.09144465631404573
3.031135501567576,0.0826661690884722
3.150124795755327,0.07472002205063083
3.2737850959485697,0.06752844188957001
3.4022997656780634,0.06102079824745181
3.5358593665351745,0.05513296089889675
3.6746619407366854,0.049806711501724124
3.8189133047818515,0.044989204782429244
3.968827354637162,0.04063248873971588
4.1246263829013445,0.03669306165188304
4.286541408420921,0.03313146646555257
4.4548125188449825,0.029911921369830976
4.629689226627261,0.02700198248356322
4.811430839003257,0.024372237156599585
5.000306842491082,0.021996027472184092
5.196597302486189,0.01984919669901437
5.400593278542364,0.017909858382819426
5.612597255954967,0.01615818620221834
5.8329235942862,0.014576218845439472
6.06189899349756,0.013147687893700006
6.29986297838068,0.011857865957707835
6.547168402004727,0.010693422904909726
6.804181968927091,0.009642295001851207
7.071284778942991,0.00869356633106484
7.348872892180382,0.00783736287970076
7.637357916378006,0.007064753038369885
7.937167617217536,0.006367657287706665
8.248746552614573,0.005738767977368028
8.572556731909314,0.005171476567261424
8.909078300934132,0.004659807235331725
9.258810253973934,0.004198355472191229
9.622271173675122,0.003782235963908768
9.999999999999984,0.003407034098693845
