k [1/Mpc],P(k) [Mpc^3]
0.0001,354.23630730859725
0.00010392556829367125,369.19950591010974
0.00010800523745162529,384.79418366199826
0.00011224505680853065,401.04690334774915
0.00011665131316981963,417.985314667587
0.00012123054013376525,435.6382328921438
0.00012598952777950273,454.03571435254963
0.00013093533273536104,473.20907961768864
0.00013607528864243335,493.1909216946599
0.00014141701702890234,514.0151537469443
0.00014696843861124463,535.7171012316641
0.00015273778503907136,558.3335809900058
0.00015873361110102093,581.9029492036368
0.00016496480740980205,606.4651160340122
0.0001714406135851971,632.0615749238126
0.00017817063195457305,658.7355286098827
0.00018516484179121546,686.5320168529405
0.000192433614111598,715.4979739976308
0.00019998772705352857,745.6822308170625
0.0002078383818579757,777.1354967072947
0.00021599721947827182,809.9105295344644
0.0002244763378413224,844.0622524641279
0.0002332883097864157,879.647841353743
0.00024244620170823283,916.7267820963634
0.0002519635929317015,955.3608741880834
0.0002618545958474233,995.6143783161187
0.0002721338768375308,1037.5541215929384
0.0002828166780230032,1081.2495804267548
0.0002939188398646886,1126.7729934520155
0.0003054568246515432,1174.1993269939426
0.00031744774091091926,1223.6064251378903
0.00032990936877709396,1275.0751772109575
0.00034286018635565856,1328.6895956861124
0.00035631939712285854,1384.5369572923455
0.000370306958400514,1442.7077481436322
0.00038484361094874304,1503.2957606135187
0.0003999509097203664,1566.3983352068517
0.00041565125582259895,1632.1163699108765
0.00043196792973341727,1700.5545185064452
0.0004489251258218605,1771.8211768549645
0.0004665479882234472,1846.0284676278643
0.000484862648123908,1923.2925716509342
0.000503896262506515,2003.7336831911207
0.0005236770544204653,2087.4761991829037
0.0005442343548300266,2174.648801789538
0.0005655986461065005,2265.3842955282694
0.0005878016072274912,2359.820000830733
0.0006108761607505036,2458.097674503921
0.0006348565216305217,2560.36360211001
0.0006597782479539537,2666.768796318409
0.0006856782936641739,2777.468554325216
0.0007125950633568407,2892.6229239190498
0.0007405684692262436,3012.396782441583
0.0007696399902471156,3136.9597768153003
0.0007998527336796708,3266.4865728258083
0.000831251498989063,3401.1561545696136
0.0008638828442740447,3541.1521554045044
0.000897795155303332,3686.6630209075693
0.0009330387172620361,3837.8814684850336
0.0009696657893145519,3995.0050393028823
0.001007730682094461,4158.235200501
0.0010472898382363582,4327.777243463514
0.0010884019160690055,4503.840731015777
0.0011311278765939214,4686.638061049448
0.001175531073878369,4876.385283568906
0.0012216773489967915,5073.301269820106
0.0012696351276599736,5277.606712864574
0.0013194755216767058,5489.5250982303
0.0013712724343984,5709.280403177248
0.0014251026703029975,5937.097575502145
0.0014810460488806749,6173.202224821603
0.0015391855229902056,6417.81820896908
0.001599607301861487,6671.169200657721
0.0016624009789266115,6933.477307448622
0.0017276596646690358,7204.9624575417165
0.0017954801246878305,7485.841757757226
0.0018659629231817451,7776.324435292185
0.001939212572065829,8076.614081652987
0.0020153376859417325,8386.907612478368
0.002094451143151469,8707.393261982275
0.002176670253153458,9038.251227411709
0.002262116930469025,9379.649408503821
0.002350917875457286,9731.743584539941
0.002443204762186487,10094.676553055424
0.0025391144336803463,10468.57433585105
0.002638789104828933,10853.547381293165
0.002742376573264949,11249.685876233674
0.0028500304385181063,11657.05818537231
0.0029619103297725525,12075.711521553825
0.0030781821425650787,12505.667034909218
0.003199018284775064,12946.920583989868
0.0033245979322709396,13399.438126540252
0.003455107294592217,13863.15139445474
0.0035907398910610534,14337.960542424835
0.0037316968377327513,14823.728470892565
0.0038781871456107214,15320.280766536082
0.0040304280305680515,15827.403338206383
0.00418864523543527,16344.83589052303
0.004353073364731888,16872.274835313925
0.00452395623253805,17409.363054244994
0.004701547224022131,17955.68822411188
0.004886109671160325,18510.78823701623
0.005077917243205399,19074.148189394058
0.005277254352483535,19645.199538247132
0.005484416576121017,20223.280462295403
0.005699711094326071,20807.611462285604
0.005923457145875801,21397.3602327654
0.006155986501483508,21991.786960284076
0.006397643955748424,22590.182639095514
0.0066487878384172625,23191.60967164224
0.0069097905457156435,23794.595218223105
0.007181039092537346,24397.50592118474
0.007462935686310132,24998.956289628586
0.007755898323389004,25597.794590984304
0.00806036140886134,26192.73417025137
0.008376776400682916,26781.98582070425
0.008705612479099857,27363.550958934036
0.009047357242349292,27935.519506688226
0.00940251742967013,28496.169113505744
0.009771619672696168,29043.7107073923
0.010155211276345676,29575.961686378578
0.010553861030365234,30090.50792105549
0.010968160052731372,30584.825853771057
0.011398722666160517,31056.219324463014
0.011846187309026826,31501.92779404469
0.012311217482038896,31919.071724951882
0.012794502732078732,32304.682914431007
0.013296759674662111,32655.74372569852
0.013818733056536317,32969.023822018295
0.014361196859990781,33241.27198966991
0.014924955450518284,33469.11786516834
0.015510844769528393,33649.02447554942
0.016119733573881575,33777.534872119024
0.01675252472408214,33851.03735471443
0.017410156523040152,33865.98958075274
0.018093604107387147,33818.96521421547
0.01880388089340914,33706.4829653903
0.019542040079740527,33525.39482113986
0.02030917620904734,33272.64475681245
0.021106426791015535,32945.4290385614
0.021934973989050584,32541.47477531258
0.02279604637318978,32058.764607583427
0.023690920741826323,31495.991049820062
0.02462092401494623,30852.49843597578
0.02558743520168586,30128.28266670506
0.02659188744512693,29324.38899007432
0.027635770147361564,28442.784266464976
0.028720631177978267,27486.540976861783
0.029848079169243254,26460.013596043395
0.03101978590138095,25368.87078085062
0.03223748878149028,24219.960327811885
0.0335029934197723,23021.76128822933
0.03481817630688963,21783.98114207307
0.03618498759642746,20517.281052859435
0.037605453996581675,19234.22819684643
0.03908168177536263,17947.40874932607
0.04061585988376978,16670.508870488266
0.04221026320156896,15418.02640352405
0.04386725591048496,14202.890298201799
0.0455892949998106,13039.611111482427
0.047378933909631396,11940.639936962765
0.049238826317067365,10916.476832478094
0.05117173007114603,9977.72978843799
0.05318051128214196,9130.945971737134
0.05526814857144601,8382.314958506035
0.057437737488265785,7736.659310405032
0.0596924950997073,7195.266486209051
0.0620357647610427,6757.015285954807
0.06447102107323864,6419.298249632032
0.06700187503509585,6172.9481366444115
0.06963207939763882,6008.692648083976
0.0723655342286965,5917.85351904688
0.07520629269592405,5892.106409613528
0.07815856707684081,5917.283733077539
0.08122673500479707,5975.1571787671
0.08441534596012978,6040.013240839354
0.0877291280161335,6082.082816772922
0.09117299484984914,6069.292094075496
0.09475205302806537,5973.7226274504865
0.09847160957933764,5776.589375095633
0.1023371798632519,5471.859696662368
0.10635449574860109,5063.99915736131
0.11052951411260206,4571.321115485474
0.1148684256737553,4026.180617599964
0.1193776641714435,3469.5473452198344
0.1240639159058831,2948.2469962352534
0.12893412965257148,2502.2685886713866
0.13399552696593373,2157.548563797366
0.1392556128874462,1923.6452590825954
0.14472218707411338,1797.0491046884451
0.15040335536380234,1765.845906970277
0.15630754179458153,1809.8154495786064
0.16244350109588662,1897.1847312092232
0.16882033167003618,1983.7893855033183
0.17544748908334581,2019.2919846008217
0.1823348000868439,1961.4632235466208
0.189492477187382,1796.2316722037274
0.19693113379074215,1551.6176415647963
0.20466179993919872,1285.2799332077839
0.21269593866686892,1054.2704443675489
0.22104546299710207,896.5461236520204
0.22972275360711503,825.9436855396183
0.23874067718606454,830.1597710754652
0.2481126055137766,874.8216109521206
0.25785243528842716,911.5487420592858
0.26797460873256895,891.9303318903891
0.27849413500806414,800.0558978449308
0.28942661247167484,668.2994842572532
0.3007882518043098,550.5236637442646
0.31259590004822796,484.3108319164964
0.324867065587837,471.7269826112095
0.3376199441111335,487.0536770801897
0.35087344559027084,487.65443132544954
0.36464722232127456,446.80776648053535
0.37896169806447155,379.5728574320495
0.3938380983288488,324.15223266832186
0.4092984818452433,301.3530143238261
0.4253657732750382,300.04080230866003
0.44206379720285277,291.76595778504145
0.45941731346364734,261.90189923258663
0.47745205385661277,226.77916668856307
0.4961947603002895,206.77057806439822
0.5156732244854959,199.8757219044647
0.5359163290848509,188.91037708645516
0.556954090580013,168.65217441527668
0.5788177037701272,151.2727451042216
0.6015395880274836,142.2892758485572
0.6251534353689703,133.3681881299392
0.6496942604146115,120.4353419675174
0.6751984523072497,109.67882801916434
0.7017038286703824,102.37232256484792
0.7292496916841444,94.04367425916651
0.7578768863625915,85.55806254084867
0.7876278611187046,78.94058995543324
0.8185467307069019,72.77568761512579
0.850679341636415,66.90765154359119
0.8840733401525058,61.378718171326796
0.9187782428863317,56.219630838110355
0.9548455102782278,51.44721852400016
0.9923286228832539,47.06684994421871
1.0312831606721837,43.0734238627819
1.0717668854455022,39.437652547840514
1.1138398264826193,36.11954080127549
1.1575643695533022,33.08427432014154
1.2030053494233226,30.30176749742265
1.2502301459914542,27.745975111299327
1.299308784200415,25.39526803618608
1.3503140378698726,23.234363323292627
1.4033215376054824,21.249887744208202
1.4584098829439835,19.429119286367882
1.5156607589006013,17.759998378664857
1.575159057091621,16.231124026040188
1.6369930016117014,14.83140974564313
1.7012542798525885,13.550065794364592
1.7680381784572046,12.37716622858391
1.8374437246107238,11.303621517237673
1.9095738328780953,10.32110676482561
1.9845354578058014,9.422005561387627
2.0624397525140905,8.599421738547305
2.143402233514853,7.847056027806738
2.227542951999554,7.159104571688299
2.314986671851158,6.5302219310014875
2.405863054644063,5.955487165305758
2.5003068519063225,5.430366343677691
2.598458104929248,4.95067402407475
2.7004623524206774,4.512565181008749
2.806470846309834,4.112512088448016
2.916640776023701,3.747278901783366
3.031135501567576,3.4138982869636245
3.150124795755327,3.109651958572082
3.2737850959485697,2.832050054571594
3.4022997656780634,2.5788097768660885
3.5358593665351745,2.347838617963819
3.6746619407366854,2.1372190384579017
3.8189133047818515,1.9451940812430812
3.968827354637162,1.7701530602127866
4.1246263829013445,1.6106210400963945
4.286541408420921,1.4652484613466676
4.4548125188449825,1.3328007506475823
4.629689226627261,1.2121487646794102
4.811430839003257,1.1022602256364358
5.000306842491082,1.0021918296375598
5.196597302486189,0.9110812477166561
5.400593278542364,0.8281402766800763
5.612597255954967,0.7526486309848234
5.8329235942862,0.6839482200358368
6.06189899349756,0.621437615794597
6.29986297838068,0.564567411597213
6.547168402004727,0.5128361234398867
6.804181968927091,0.46578610268520676
7.071284778942991,0.4229997789083517
7.348872892180382,0.3840962351372348
7.637357916378006,0.34872811592050335
7.937167617217536,0.31657864961217597
8.248746552614573,0.28735897721885917
8.572556731909314,0.26080574084521496
8.909078300934132,0.2366788751690037
9.258810253973934,0.21475953989763336
9.622271173675122,0.19484825592343225
9.999999999999984,0.17676330893569273
