k [1/Mpc],P(k) [Mpc^3]
0.0001,73.19186927099486
0.00010392556829367125,76.5031995800106
0.00010800523745162529,79.96413009258917
0.00011224505680853065,83.58139981484533
0.00011665131316981963,87.36204590296177
0.00012123054013376525,91.31340812069053
0.00012598952777950273,95.44315088947769
0.00013093533273536104,99.75928415094708
0.00013607528864243335,104.27017885165824
0.00014141701702890234,108.98457666005345
0.00014696843861124463,113.91159729213885
0.00015273778503907136,119.06076136501039
0.00015873361110102093,124.44200680241859
0.00016496480740980205,130.06570508451085
0.0001714406135851971,135.9426830951739
0.00017817063195457305,142.08423664658943
0.00018516484179121546,148.502153776912
0.000192433614111598,155.20873394412314
0.00019998772705352857,162.21680470840116
0.0002078383818579757,169.53974993038355
0.00021599721947827182,177.19152361938535
0.0002244763378413224,185.18667649237057
0.0002332883097864157,193.540377945635
0.00024244620170823283,202.26842286389498
0.0002519635929317015,211.3872750450592
0.0002618545958474233,220.91408829061848
0.0002721338768375308,230.86673361401625
0.0002828166780230032,241.26382770381082
0.0002939188398646886,252.12473199101615
0.0003054568246515432,263.4696034612203
0.00031744774091091926,275.31940446771176
0.00032990936877709396,287.69591886667337
0.00034286018635565856,300.6218120785727
0.00035631939712285854,314.12064407974646
0.000370306958400514,328.2169126917859
0.00038484361094874304,342.93605610399993
0.0003999509097203664,358.3044418034599
0.00041565125582259895,374.3494531747865
0.00043196792973341727,391.09948313710953
0.0004489251258218605,408.58397927816213
0.0004665479882234472,426.8334687854109
0.000484862648123908,445.87951780040044
0.000503896262506515,465.75483033936547
0.0005236770544204653,486.49322997444824
0.0005442343548300266,508.1296866199491
0.0005655986461065005,530.7003755541251
0.0005878016072274912,554.2426256029079
0.0006108761607505036,578.7950031296988
0.0006348565216305217,604.397245067103
0.0006597782479539537,631.0902257733528
0.0006856782936641739,658.9160915265008
0.0007125950633568407,687.9182221814409
0.0007405684692262436,718.1412800248783
0.0007696399902471156,749.6310888018093
0.0007998527336796708,782.43446604567
0.000831251498989063,816.599448807656
0.0008638828442740447,852.1752197167099
0.000897795155303332,889.2121282395125
0.0009330387172620361,927.7615531907844
0.0009696657893145519,967.875508971243
0.001007730682094461,1009.6069636158176
0.0010472898382363582,1053.0096488181516
0.0010884019160690055,1098.1380032597274
0.0011311278765939214,1145.04712295595
0.001175531073878369,1193.792079394884
0.0012216773489967915,1244.4282780773706
0.0012696351276599736,1297.011247561734
0.0013194755216767058,1351.5963964062298
0.0013712724343984,1408.2390715009083
0.0014251026703029975,1466.9936572282536
0.0014810460488806749,1527.9138168211898
0.0015391855229902056,1591.052422085143
0.001599607301861487,1656.461140436341
0.0016624009789266115,1724.1904571644743
0.0017276596646690358,1794.2886466467303
0.0017954801246878305,1866.8017585831083
0.0018659629231817451,1941.7734164313517
0.001939212572065829,2019.243723056722
0.0020153376859417325,2099.249732027186
0.002094451143151469,2181.8247784921505
0.002176670253153458,2266.9981253176934
0.002262116930469025,2354.7948638528765
0.002350917875457286,2445.2350517244586
0.002443204762186487,2538.333688381066
0.0025391144336803463,2634.099888838261
0.002638789104828933,2732.5362258483005
0.002742376573264949,2833.6388037037163
0.0028500304385181063,2937.3962608226443
0.0029619103297725525,3043.789649798194
0.0030781821425650787,3152.7918629602304
0.003199018284775064,3264.366809697666
0.0033245979322709396,3378.469396157054
0.003455107294592217,3495.0440362376758
0.0035907398910610534,3614.0245480060876
0.0037316968377327513,3735.33379112548
0.0038781871456107214,3858.8821947685033
0.0040304280305680515,3984.568415432253
0.00418864523543527,4112.278363146385
0.004353073364731888,4241.884868676681
0.00452395623253805,4373.248367987828
0.004701547224022131,4506.217786496711
0.004886109671160325,4640.629071893902
0.005077917243205399,4776.2920753280005
0.005277254352483535,4912.985662831913
0.005484416576121017,5050.480172790432
0.005699711094326071,5188.588573381598
0.005923457145875801,5327.1366876192005
0.006155986501483508,5465.86477915928
0.006397643955748424,5604.354948932177
0.0066487878384172625,5742.160399327004
0.0069097905457156435,5878.955108532663
0.007181039092537346,6014.486764329038
0.007462935686310132,6148.446101860203
0.007755898323389004,6280.371289512335
0.00806036140886134,6409.762751868032
0.008376776400682916,6536.1973573590885
0.008705612479099857,6659.323179186992
0.009047357242349292,6778.759679493615
0.00940251742967013,6894.006002832329
0.009771619672696168,7004.522417183388
0.010155211276345676,7109.747321236431
0.010553861030365234,7209.096418632074
0.010968160052731372,7301.981364984427
0.011398722666160517,7387.813230536989
0.011846187309026826,7466.007563155082
0.012311217482038896,7535.969683786427
0.012794502732078732,7597.083315589136
0.013296759674662111,7648.740345049716
0.013818733056536317,7690.292563239222
0.014361196859990781,7721.084561989278
0.014924955450518284,7740.484632808306
0.015510844769528393,7747.873866508262
0.016119733573881575,7742.677234381677
0.01675252472408214,7724.325179263944
0.017410156523040152,7692.273289713601
0.018093604107387147,7646.045739450439
0.01880388089340914,7585.213910235828
0.019542040079740527,7509.440454802165
0.02030917620904734,7418.474634513291
0.021106426791015535,7312.158177273702
0.021934973989050584,7190.465637544776
0.02279604637318978,7053.516245412117
0.023690920741826323,6901.577759040498
0.02462092401494623,6735.103992321565
0.02558743520168586,6554.756743349337
0.02659188744512693,6361.3590017468005
0.027635770147361564,6156.020753776372
0.028720631177978267,5940.03610183736
0.029848079169243254,5714.894093800568
0.03101978590138095,5482.419536138345
0.03223748878149028,5244.475728592164
0.0335029934197723,5003.258793987541
0.03481817630688963,4761.111939443767
0.03618498759642746,4520.305325724199
0.037605453996581675,4283.409186674186
0.03908168177536263,4052.739114024706
0.04061585988376978,3830.745906896661
0.04221026320156896,3619.984104310194
0.04386725591048496,3422.498167920542
0.0455892949998106,3240.1237583645034
0.047378933909631396,3074.299671133233
0.049238826317067365,2925.8082456527372
0.05117173007114603,2794.7850790199805
0.05318051128214196,2681.226826903358
0.05526814857144601,2585.0001823788216
0.057437737488265785,2505.9675239366393
0.0596924950997073,2442.692499481259
0.0620357647610427,2391.3089406041845
0.06447102107323864,2348.186010726309
0.06700187503509585,2310.420644702715
0.06963207939763882,2274.9317090194663
0.0723655342286965,2236.294848040895
0.07520629269592405,2188.7030529644703
0.07815856707684081,2127.131838949509
0.08122673500479707,2047.9814409794033
0.08441534596012978,1949.940136911386
0.0877291280161335,1834.1257199100564
0.09117299484984914,1703.9735790398672
0.09475205302806537,1565.0863065094718
0.09847160957933764,1423.472234457754
0.1023371798632519,1285.6715871556373
0.10635449574860109,1160.1020073546804
0.11052951411260206,1053.7533505847687
0.1148684256737553,970.8700212069332
0.1193776641714435,912.7687018034948
0.1240639159058831,876.4896324948959
0.12893412965257148,856.6498158497426
0.13399552696593373,846.0020477424191
0.1392556128874462,835.9161746786817
0.14472218707411338,817.5639588991969
0.15040335536380234,784.5216465524378
0.15630754179458153,734.2584067931791
0.16244350109588662,669.0126582083357
0.16882033167003618,597.0304761197823
0.17544748908334581,530.2711770274601
0.1823348000868439,477.3878292692591
0.189492477187382,441.22921561618415
0.19693113379074215,421.0546021192235
0.20466179993919872,411.3122161781862
0.21269593866686892,402.16125245440236
0.22104546299710207,385.4931380325718
0.22972275360711503,358.45576460190705
0.23874067718606454,324.0047712013461
0.2481126055137766,289.88196252583236
0.25785243528842716,263.14856549328493
0.26797460873256895,246.31015509693418
0.27849413500806414,235.92014071068766
0.28942661247167484,225.5565930648495
0.3007882518043098,211.0394647508764
0.31259590004822796,192.57085526503795
0.324867065587837,174.7171436603164
0.3376199441111335,161.0466677904983
0.35087344559027084,151.4382756594276
0.36464722232127456,142.5571174941941
0.37896169806447155,132.1661427563598
0.3938380983288488,121.02467498518477
0.4092984818452433,111.32786864874417
0.4253657732750382,103.61874119690475
0.44206379720285277,96.51740854800266
0.45941731346364734,89.10392824743323
0.47745205385661277,81.97612015268658
0.4961947603002895,75.81420073581963
0.5156732244854959,70.25787050276641
0.5359163290848509,64.84699960688683
0.556954090580013,59.76110129997256
0.5788177037701272,55.197434020267195
0.6015395880274836,50.95965065662669
0.6251534353689703,46.96668595208947
0.6496942604146115,43.30395207788843
0.6751984523072497,39.92800983086177
0.7017038286703824,36.78101083766923
0.7292496916841444,33.88042894356358
0.7578768863625915,31.200906024772245
0.7876278611187046,28.719106329798915
0.8185467307069019,26.428202934596325
0.850679341636415,24.314491015838236
0.8840733401525058,22.364406707159908
0.9187782428863317,20.565441614468813
0.9548455102782278,18.906057233707035
0.9923286228832539,17.375619665275444
1.0312831606721837,15.964515367174558
1.0717668854455022,14.663973244894
1.1138398264826193,13.465813248651093
1.1575643695533022,12.362407253920354
1.2030053494233226,11.346647468411144
1.2502301459914542,10.411906416011178
1.299308784200415,9.551967159945066
1.3503140378698726,8.7610475894857
1.4033215376054824,8.033794044980317
1.4584098829439835,7.365251242372932
1.5156607589006013,6.75083414028145
1.575159057091621,6.186304694372419
1.6369930016117014,5.667750203299351
1.7012542798525885,5.191552298022224
1.7680381784572046,4.75436493483117
1.8374437246107238,4.353095099855114
1.9095738328780953,3.9848847419939655
1.9845354578058014,3.6470932881847387
2.0624397525140905,3.3372821102722208
2.143402233514853,3.0532006539594296
2.227542951999554,2.7927726889847198
2.314986671851158,2.554083457230503
2.405863054644063,2.3353675626394375
2.5003068519063225,2.1349969077077686
2.598458104929248,1.9514713130328103
2.7004623524206774,1.7834094915111902
2.806470846309834,1.6295399928485226
2.916640776023701,1.488692799254252
3.031135501567576,1.3597915303679713
3.150124795755327,1.2418462163736521
3.2737850959485697,1.1339466170540824
3.4022997656780634,1.0352560270110354
3.5358593665351745,0.9450055387810496
3.6746619407366854,0.8624887320774487
3.8189133047818515,0.7870566693347965
3.968827354637162,0.7181133548182645
4.1246263829013445,0.6551116957417751
4.286541408420921,0.5975496205895481
4.4548125188449825,0.5449664824636309
4.629689226627261,0.49693973518635237
4.811430839003257,0.45308182839787486
5.000306842491082,0.41303741676266303
5.196597302486189,0.37648078977852384
5.400593278542364,0.3431134651628858
5.612597255954967,0.31266197086787434
5.8329235942862,0.2848757947614859
6.06189899349756,0.25952548185200125
6.29986297838068,0.2364009364246685
6.547168402004727,0.21530983685148533
6.804181968927091,0.19607616619579948
7.071284778942991,0.178538860845561
7.348872892180382,0.16255055460393428
7.637357916378006,0.14797643079933737
7.937167617217536,0.1346932030177409
8.248746552614573,0.12258815193642159
8.572556731909314,0.11155823746529735
8.909078300934132,0.10150928282808437
9.258810253973934,0.09235521183671327
9.622271173675122,0.08401737128400728
9.999999999999984,0.07642391747203227
