k [1/Mpc],P(k) [Mpc^3]
0.0001,4789.445519620982
0.00010392556829367125,4948.476028669968
0.00010800523745162529,5112.761441698946
0.00011224505680853065,5282.472786549843
0.00011665131316981963,5457.78546773508
0.00012123054013376525,5638.880094960525
0.00012598952777950273,5825.943121359705
0.00013093533273536104,6019.167100683912
0.00013607528864243335,6218.75042765012
0.00014141701702890234,6424.896579812922
0.00014696843861124463,6637.814774351097
0.00015273778503907136,6857.720483873085
0.00015873361110102093,7084.835574098583
0.00016496480740980205,7319.388407733494
0.0001714406135851971,7561.612720634304
0.00017817063195457305,7811.748059651946
0.00018516484179121546,8070.040794331223
0.000192433614111598,8336.74436693827
0.00019998772705352857,8612.11932861859
0.0002078383818579757,8896.431921065936
0.00021599721947827182,9189.953854441195
0.0002244763378413224,9492.963742009091
0.0002332883097864157,9805.746395104763
0.00024244620170823283,10128.593479988345
0.0002519635929317015,10461.80302839534
0.0002618545958474233,10805.678650404143
0.0002721338768375308,11160.530704059403
0.0002828166780230032,11526.674006699244
0.0002939188398646886,11904.428599276705
0.0003054568246515432,12294.1204821937
0.00031744774091091926,12696.080035715468
0.00032990936877709396,13110.643430914219
0.00034286018635565856,13538.150335569891
0.00035631939712285854,13978.94350093336
0.000370306958400514,14433.37011354406
0.00038484361094874304,14901.778169474646
0.0003999509097203664,15384.518612502583
0.00041565125582259895,15881.9441108257
0.00043196792973341727,16394.407096138308
0.0004489251258218605,16922.261843753244
0.0004665479882234472,17465.860210524246
0.000484862648123908,18025.55271120828
0.000503896262506515,18601.688339477383
0.0005236770544204653,19194.610542507497
0.0005442343548300266,19804.660066012428
0.0005655986461065005,20432.170246096368
0.0005878016072274912,21077.466166649323
0.0006108761607505036,21740.866187512653
0.0006348565216305217,22422.675408163264
0.0006597782479539537,23123.188847973404
0.0006856782936641739,23842.68778031065
0.0007125950633568407,24581.43597771893
0.0007405684692262436,25339.68247078292
0.0007696399902471156,26117.65015018229
0.0007998527336796708,26915.53896800904
0.000831251498989063,27733.524336390365
0.0008638828442740447,28571.747448277623
0.000897795155303332,29430.322095612806
0.0009330387172620361,30309.319630721475
0.0009696657893145519,31208.768223986972
0.001007730682094461,32128.657534101912
0.0010472898382363582,33068.92258719309
0.0010884019160690055,34029.45272042121
0.0011311278765939214,35010.07980695111
0.001175531073878369,36010.5699082638
0.0012216773489967915,37030.63444395142
0.0012696351276599736,38069.91826760669
0.0013194755216767058,39128.002535946114
0.0013712724343984,40204.39372803466
0.0014251026703029975,41298.504270928126
0.0014810460488806749,42409.671859576665
0.0015391855229902056,43537.15593514252
0.001599607301861487,44680.13619097134
0.0016624009789266115,45837.71311612664
0.0017276596646690358,47008.904993329554
0.0017954801246878305,48192.645895288355
0.0018659629231817451,49387.74793883159
0.001939212572065829,50592.88934570611
0.0020153376859417325,51806.652353165
0.002094451143151469,53027.53169458269
0.002176670253153458,54253.92995744863
0.002262116930469025,55484.15323472625
0.002350917875457286,56716.410092534796
0.002443204762186487,57948.813240110736
0.0025391144336803463,59179.36656232346
0.002638789104828933,60405.97109637776
0.002742376573264949,61626.438315678526
0.0028500304385181063,62838.49677093422
0.0029619103297725525,64039.79238580811
0.0030781821425650787,65227.89533962637
0.003199018284775064,66400.3054473604
0.0033245979322709396,67554.45795804796
0.003455107294592217,68687.74719698125
0.0035907398910610534,69797.52113449569
0.0037316968377327513,70881.09028015597
0.0038781871456107214,71935.74240016908
0.0040304280305680515,72958.74700595431
0.00418864523543527,73947.44140374388
0.004353073364731888,74899.20894937812
0.00452395623253805,75811.29624830022
0.004701547224022131,76680.54251096155
0.004886109671160325,77503.7651367996
0.005077917243205399,78278.8328141686
0.005277254352483535,79004.67031132075
0.005484416576121017,79679.72613741651
0.005699711094326071,80299.4198398172
0.005923457145875801,80858.23837453088
0.006155986501483508,81352.14896814199
0.006397643955748424,81779.45957423853
0.0066487878384172625,82138.82613593836
0.0069097905457156435,82429.09578110446
0.007181039092537346,82649.29949753328
0.007462935686310132,82798.30000997918
0.007755898323389004,82874.26082893349
0.00806036140886134,82875.3865694847
0.008376776400682916,82799.96877674953
0.008705612479099857,82646.41803598052
0.009047357242349292,82413.41071108246
0.00940251742967013,82100.03406303584
0.009771619672696168,81705.67637614375
0.010155211276345676,81229.97794117495
0.010553861030365234,80672.83541850156
0.010968160052731372,80034.4182511018
0.011398722666160517,79315.10966967336
0.011846187309026826,78515.5557904618
0.012311217482038896,77636.55973052199
0.012794502732078732,76678.90608292558
0.013296759674662111,75643.67190290744
0.013818733056536317,74532.31965026996
0.014361196859990781,73346.6848825851
0.014924955450518284,72088.9276269191
0.015510844769528393,70761.49436601602
0.016119733573881575,69367.14743289133
0.01675252472408214,67908.91717485206
0.017410156523040152,66390.08330334231
0.018093604107387147,64814.25431545222
0.01880388089340914,63185.512508902015
0.019542040079740527,61508.2643574576
0.02030917620904734,59787.21621426372
0.021106426791015535,58027.421925704926
0.021934973989050584,56234.12676895636
0.02279604637318978,54413.17908869795
0.023690920741826323,52570.762084212474
0.02462092401494623,50713.16422829159
0.02558743520168586,48847.15476347657
0.02659188744512693,46979.380297506315
0.027635770147361564,45116.85670964587
0.028720631177978267,43266.88671390517
0.029848079169243254,41436.24015302648
0.03101978590138095,39631.32042406047
0.03223748878149028,37857.955537889065
0.0335029934197723,36122.591646392226
0.03481817630688963,34433.05707438103
0.03618498759642746,32795.893285241575
0.037605453996581675,31214.254896948398
0.03908168177536263,29689.290772781704
0.04061585988376978,28221.29858961498
0.04221026320156896,26809.051074600156
0.04386725591048496,25451.161253961796
0.0455892949998106,24148.043788973107
0.047378933909631396,22901.483346747882
0.049238826317067365,21711.785602413984
0.05117173007114603,20574.327944544162
0.05318051128214196,19483.616520915064
0.05526814857144601,18433.79135189944
0.057437737488265785,17418.13283024835
0.0596924950997073,16431.539724613653
0.0620357647610427,15474.121486822007
0.06447102107323864,14548.229400674269
0.06700187503509585,13654.377950510017
0.06963207939763882,12789.350977467911
0.0723655342286965,11950.722791950882
0.07520629269592405,11146.266168846594
0.07815856707684081,10389.906566210811
0.08122673500479707,9688.50936161955
0.08441534596012978,9035.700049649504
0.0877291280161335,8425.109181664535
0.09117299484984914,7859.8503355501325
0.09475205302806537,7344.065381713518
0.09847160957933764,6869.675820088496
0.1023371798632519,6425.221193329667
0.10635449574860109,6007.2430831572965
0.11052951411260206,5612.996272403983
0.1148684256737553,5231.877039475615
0.1193776641714435,4858.811196653737
0.1240639159058831,4498.044863374319
0.12893412965257148,4158.977504990651
0.13399552696593373,3845.5923204948367
0.1392556128874462,3552.471104748665
0.14472218707411338,3281.226756666089
0.15040335536380234,3035.6417594350805
0.15630754179458153,2813.4151927992757
0.16244350109588662,2604.541289024807
0.16882033167003618,2408.3807471184855
0.17544748908334581,2224.6650029483935
0.1823348000868439,2050.4686932133795
0.189492477187382,1887.6019315872322
0.19693113379074215,1737.6266288955426
0.20466179993919872,1600.297100284214
0.21269593866686892,1473.747565832305
0.22104546299710207,1356.1757644006702
0.22972275360711503,1247.2526306681655
0.23874067718606454,1146.2903461228689
0.2481126055137766,1052.5786198295705
0.25785243528842716,966.5319789539027
0.26797460873256895,887.1302674264641
0.27849413500806414,813.9669500863663
0.28942661247167484,746.3601399747494
0.3007882518043098,684.1121266749277
0.31259590004822796,626.7984448775863
0.324867065587837,574.0510653474231
0.3376199441111335,525.5351960930507
0.35087344559027084,480.904636651805
0.36464722232127456,439.882164104179
0.37896169806447155,402.20734418147833
0.3938380983288488,367.6021608354228
0.4092984818452433,335.83662968852576
0.4253657732750382,306.693126454556
0.44206379720285277,279.9692316800243
0.45941731346364734,255.4790077374805
0.47745205385661277,233.04778616724911
0.4961947603002895,212.51511398490274
0.5156732244854959,193.73148588976858
0.5359163290848509,176.55653734138667
0.556954090580013,160.85708277209906
0.5788177037701272,146.51851463149615
0.6015395880274836,133.4165717042107
0.6251534353689703,121.45049695442582
0.6496942604146115,110.5234420206953
0.6751984523072497,100.5442265253054
0.7017038286703824,91.43577599108036
0.7292496916841444,83.12537646295259
0.7578768863625915,75.54722718326323
0.7876278611187046,68.64162454207298
0.8185467307069019,62.352860629441935
0.850679341636415,56.62806251387873
0.8840733401525058,51.41749831889285
0.9187782428863317,46.674861081868876
0.9548455102782278,42.35737729718344
0.9923286228832539,38.4275537646067
1.0312831606721837,34.85301281234979
1.0717668854455022,31.603175170419366
1.1138398264826193,28.650293565033884
1.1575643695533022,25.967871705284534
1.2030053494233226,23.531576065084362
1.2502301459914542,21.319229693596895
1.299308784200415,19.310623282763586
1.3503140378698726,17.48734999474688
1.4033215376054824,15.832725753521137
1.4584098829439835,14.331581222622937
1.5156607589006013,12.970062097292825
1.575159057091621,11.7355195198193
1.6369930016117014,10.616410335130704
1.7012542798525885,9.602195108456884
1.7680381784572046,8.683240314374023
1.8374437246107238,7.8507716113623
1.9095738328780953,7.0968047815011746
1.9845354578058014,6.414076437496417
2.0624397525140905,5.79598070989836
2.143402233514853,5.236512513265317
2.227542951999554,4.730213640530176
2.314986671851158,4.272122997150552
2.405863054644063,3.857732463928745
2.5003068519063225,3.482946592456213
2.598458104929248,3.1440462121843207
2.7004623524206774,2.837655582729074
2.806470846309834,2.560710052131214
2.916640776023701,2.3104277896868695
3.031135501567576,2.0842843562730953
3.150124795755327,1.8799894777849742
3.2737850959485697,1.6954656556231291
3.4022997656780634,1.5288289489152704
3.5358593665351745,1.3783715873179179
3.6746619407366854,1.242545876272151
3.8189133047818515,1.1199495233323529
3.968827354637162,1.009311878482088
4.1246263829013445,0.9094807939576267
4.286541408420921,0.8194132692435923
4.4548125188449825,0.7381657063829
4.629689226627261,0.6648845624660547
4.811430839003257,0.5987979006592912
5.000306842491082,0.5392085142156435
5.196597302486189,0.4854866377569612
5.400593278542364,0.4370625027552133
5.612597255954967,0.39342069572987515
5.8329235942862,0.3540950875514833
6.06189899349756,0.3186640549714735
6.29986297838068,0.2867457471112946
6.547168402004727,0.25799512464110946
6.804181968927091,0.23210072407359789
7.071284778942991,0.20878142123476634
7.348872892180382,0.18778350996876084
7.637357916378006,0.16887828657740372
7.937167617217536,0.15185961056932856
8.248746552614573,0.13654137208633974
8.572556731909314,0.12275555761838321
8.909078300934132,0.11035052172587138
9.258810253973934,0.09918938359276075
9.622271173675122,0.08914845363752216
9.999999999999984,0.08011616011842476
