k [1/Mpc],P(k) [Mpc^3]
0.0001,15.135482816740748
0.00010392556829367125,15.820596912121673
0.00010800523745162529,16.536710559349814
0.00011224505680853065,17.28522448244891
0.00011665131316981963,18.067602500212836
0.00012123054013376525,18.88537426878237
0.00012598952777950273,19.740138358488228
0.00013093533273536104,20.63356595249139
0.00013607528864243335,21.567404175781682
0.00014141701702890234,22.543478553510557
0.00014696843861124463,23.563694514225972
0.00015273778503907136,24.630042297886693
0.00015873361110102093,25.74460226572315
0.00016496480740980205,26.90954957100399
0.0001714406135851971,28.127157184245416
0.00017817063195457305,29.399799160097743
0.00018516484179121546,30.729955492796055
0.000192433614111598,32.12021666398279
0.00019998772705352857,33.573287216849806
0.0002078383818579757,35.09199225128821
0.00021599721947827182,36.67928440653477
0.0002244763378413224,38.338249597501516
0.0002332883097864157,40.07211071608566
0.00024244620170823283,41.88422921585781
0.0002519635929317015,43.778114275033055
0.0002618545958474233,45.75743254383405
0.0002721338768375308,47.82601631001705
0.0002828166780230032,49.98786744721214
0.0002939188398646886,52.247156299172296
0.0003054568246515432,54.60823209668878
0.00031744774091091926,57.07563751600286
0.00032990936877709396,59.65412167404042
0.00034286018635565856,62.348643536821946
0.00035631939712285854,65.16436986944593
0.000370306958400514,68.10668387092578
0.00038484361094874304,71.18120226129884
0.0003999509097203664,74.39378529434566
0.00041565125582259895,77.75054693168043
0.00043196792973341727,81.25786145960997
0.0004489251258218605,84.92237180842191
0.0004665479882234472,88.75100415660617
0.000484862648123908,92.75097027247776
0.000503896262506515,96.92978298443965
0.0005236770544204653,101.29527102776225
0.0005442343548300266,105.85558840333236
0.0005655986461065005,110.61922997074062
0.0005878016072274912,115.59503084166431
0.0006108761607505036,120.7921798046735
0.0006348565216305217,126.22024099249798
0.0006597782479539537,131.8891579321678
0.0006856782936641739,137.80927519861558
0.0007125950633568407,143.99134704182106
0.0007405684692262436,150.44654709314003
0.0007696399902471156,157.18649051524733
0.0007998527336796708,164.22322503866218
0.000831251498989063,171.56925669628222
0.0008638828442740447,179.23756708897696
0.000897795155303332,187.24161372289626
0.0009330387172620361,195.59536112655803
0.0009696657893145519,204.31327498400293
0.001007730682094461,213.4103387460362
0.0010472898382363582,222.90207368475262
0.0010884019160690055,232.80451039674327
0.0011311278765939214,243.13423539997282
0.001175531073878369,253.9083876551634
0.0012216773489967915,265.1446568335477
0.0012696351276599736,276.86131741287596
0.0013194755216767058,289.07716205299215
0.0013712724343984,301.8115478256909
0.0014251026703029975,315.0844030278476
0.0014810460488806749,328.9161799480099
0.0015391855229902056,343.32791826924625
0.001599607301861487,358.3411662587133
0.0016624009789266115,373.9779905054398
0.0017276596646690358,390.26100540395487
0.0017954801246878305,407.21326132024643
0.0018659629231817451,424.8583216673319
0.001939212572065829,443.2201732548494
0.0020153376859417325,462.3231641349702
0.002094451143151469,482.1920826883533
0.002176670253153458,502.8520071774373
0.002262116930469025,524.3283469184972
0.002350917875457286,546.6467463837363
0.002443204762186487,569.8328834967602
0.0025391144336803463,593.9126186645769
0.002638789104828933,618.9118252834379
0.002742376573264949,644.8563573357047
0.0028500304385181063,671.7720122885729
0.0029619103297725525,699.6842264475326
0.0030781821425650787,728.6181926932513
0.003199018284775064,758.5986496853483
0.0033245979322709396,789.6497204314724
0.003455107294592217,821.7949761880625
0.0035907398910610534,855.0571043519398
0.0037316968377327513,889.457921720573
0.0038781871456107214,925.0181736691961
0.0040304280305680515,961.7571861428452
0.00418864523543527,999.6929899634473
0.004353073364731888,1038.8419240707585
0.00452395623253805,1079.2185340653143
0.004701547224022131,1120.8354342797431
0.004886109671160325,1163.7026856921163
0.005077917243205399,1207.8279924486305
0.005277254352483535,1253.21618902647
0.005484416576121017,1299.8689075590635
0.005699711094326071,1347.7846701423189
0.005923457145875801,1396.9578964057916
0.006155986501483508,1447.379132772889
0.006397643955748424,1499.0348613884014
0.0066487878384172625,1551.9069568032296
0.0069097905457156435,1605.9726947075003
0.007181039092537346,1661.2021532517292
0.007462935686310132,1717.5585065396533
0.007755898323389004,1775.0007864801973
0.00806036140886134,1833.4874158259017
0.008376776400682916,1892.9722330074574
0.008705612479099857,1953.3909809177976
0.009047357242349292,2014.6580959764703
0.00940251742967013,2076.6800049349754
0.009771619672696168,2139.3641820870484
0.010155211276345676,2202.613889761673
0.010553861030365234,2266.3258002204875
0.010968160052731372,2330.3909618368634
0.011398722666160517,2394.692171884792
0.011846187309026826,2459.091859963496
0.012311217482038896,2523.4355653363677
0.012794502732078732,2587.557836450543
0.013296759674662111,2651.2789413172427
0.013818733056536317,2714.408662833052
0.014361196859990781,2776.7437618061076
0.014924955450518284,2838.0679623159003
0.015510844769528393,2898.1554152058843
0.016119733573881575,2956.7672029031637
0.01675252472408214,3013.6553030522873
0.017410156523040152,3068.558432798707
0.018093604107387147,3121.1975215587327
0.01880388089340914,3171.287009329536
0.019542040079740527,3218.5319477004955
0.02030917620904734,3262.632141236817
0.021106426791015535,3303.284895314915
0.021934973989050584,3340.181292800378
0.02279604637318978,3373.015636517754
0.023690920741826323,3401.487391950816
0.02462092401494623,3425.30409581215
0.02558743520168586,3444.1876797264154
0.02659188744512693,3457.881265082542
0.027635770147361564,3466.149719236989
0.028720631177978267,3468.791862712118
0.029848079169243254,3465.650262704985
0.03101978590138095,3456.6020699683195
0.03223748878149028,3441.5946567410842
0.0335029934197723,3420.629554499694
0.03481817630688963,3393.7665532113824
0.03618498759642746,3361.168242256551
0.037605453996581675,3323.0420660032546
0.03908168177536263,3279.710390293185
0.04061585988376978,3231.596575214255
0.04221026320156896,3179.1585910493686
0.04386725591048496,3122.967184095989
0.0455892949998106,3063.618616228358
0.047378933909631396,3001.833112060222
0.049238826317067365,2938.513974106699
0.05117173007114603,2874.495489620438
0.05318051128214196,2810.2921162986
0.05526814857144601,2746.243851389347
0.057437737488265785,2682.950578773548
0.0596924950997073,2621.709645580388
0.0620357647610427,2563.77676090828
0.06447102107323864,2509.45584427973
0.06700187503509585,2458.282705395206
0.06963207939763882,2409.7418243142556
0.0723655342286965,2363.1587225598196
0.07520629269592405,2317.8343453912057
0.07815856707684081,2272.878029839194
0.08122673500479707,2227.346144692922
0.08441534596012978,2180.2290348309457
0.0877291280161335,2130.503403592836
0.09117299484984914,2077.0345361853106
0.09475205302806537,2018.6406759786846
0.09847160957933764,1953.9626848833086
0.1023371798632519,1882.3788120934614
0.10635449574860109,1804.4496545038837
0.11052951411260206,1721.8998740708507
0.1148684256737553,1637.1811448953254
0.1193776641714435,1553.1062284883153
0.1240639159058831,1472.3020001351279
0.12893412965257148,1397.0242354145757
0.13399552696593373,1329.0810617513303
0.1392556128874462,1269.7434606854226
0.14472218707411338,1219.1989644749349
0.15040335536380234,1176.25820166839
0.15630754179458153,1138.2344986657638
0.16244350109588662,1101.4641102865544
0.16882033167003618,1062.3020925287085
0.17544748908334581,1018.0048715113625
0.1823348000868439,967.5616289916061
0.189492477187382,912.1673103875054
0.19693113379074215,854.8334900892537
0.20466179993919872,799.2463291678441
0.21269593866686892,748.8891063799136
0.22104546299710207,706.3826163343338
0.22972275360711503,672.0934536996407
0.23874067718606454,643.3045501064802
0.2481126055137766,615.864420158772
0.25785243528842716,586.3252396921899
0.26797460873256895,552.9040916186018
0.27849413500806414,516.7020950169384
0.28942661247167484,481.2776145684789
0.3007882518043098,449.7664984839325
0.31259590004822796,423.50898684054664
0.324867065587837,401.29321689316043
0.3376199441111335,380.0657340694085
0.35087344559027084,357.59963267640285
0.36464722232127456,333.8370265523157
0.37896169806447155,310.92700526274774
0.3938380983288488,290.72369450732606
0.4092984818452433,273.20025883643115
0.4253657732750382,256.78949084782323
0.44206379720285277,240.22249345580522
0.45941731346364734,223.77443717972702
0.47745205385661277,208.63525991492742
0.4961947603002895,195.05855852141792
0.5156732244854959,182.35961722878113
0.5359163290848509,169.97200181380768
0.556954090580013,158.20040556039785
0.5788177037701272,147.397281433534
0.6015395880274836,137.35620848108357
0.6251534353689703,127.80881864004479
0.6496942604146115,118.81883209184254
0.6751984523072497,110.4899605781996
0.7017038286703824,102.69573420604377
0.7292496916841444,95.36618722962135
0.7578768863625915,88.535556820685
0.7876278611187046,82.16475958441855
0.8185467307069019,76.2073960222422
0.850679341636415,70.65489846132775
0.8840733401525058,65.48149681522848
0.9187782428863317,60.65816747275877
0.9548455102782278,56.16722871788994
0.9923286228832539,51.98866832171824
1.0312831606721837,48.10247553176319
1.0717668854455022,44.48977898183263
1.1138398264826193,41.13279350886627
1.1575643695533022,38.014768418760596
1.2030053494233226,35.11998330841843
1.2502301459914542,32.43375276703472
1.299308784200415,29.94225083878712
1.3503140378698726,27.632451730390795
1.4033215376054824,25.49209457756035
1.4584098829439835,23.509648375403952
1.5156607589006013,21.674261476921117
1.575159057091621,19.97572641398924
1.6369930016117014,18.40447547998108
1.7012542798525885,16.951549061024874
1.7680381784572046,15.608562656849129
1.8374437246107238,14.36767482576244
1.9095738328780953,13.221551102541813
1.9845354578058014,12.163337732767383
2.0624397525140905,11.186639891329339
2.143402233514853,10.285494560037538
2.227542951999554,9.454344486531358
2.314986671851158,8.68801322475929
2.405863054644063,7.9816801979308325
2.5003068519063225,7.330859800279933
2.598458104929248,6.73138124342298
2.7004623524206774,6.179368407207952
2.806470846309834,5.671220791967599
2.916640776023701,5.203595151951562
3.031135501567576,4.773387332715939
3.150124795755327,4.3777180743745205
3.2737850959485697,4.0139184650392705
3.4022997656780634,3.6795156396103215
3.5358593665351745,3.372219350970608
3.6746619407366854,3.0899090524801887
3.8189133047818515,2.8306217268704006
3.968827354637162,2.5925417246507028
4.1246263829013445,2.3739904874394244
4.286541408420921,2.1734167817170658
4.4548125188449825,1.9893875671902
4.629689226627261,1.8205791432216993
4.811430839003257,1.6657691706053857
5.000306842491082,1.5238298364583576
5.196597302486189,1.3937209348190032
5.400593278542364,1.2744833752412126
5.612597255954967,1.1652331321294365
5.8329235942862,1.0651554494540079
6.06189899349756,0.9734997162739114
6.29986297838068,0.8895748116341531
6.547168402004727,0.8127445824446458
6.804181968927091,0.7424236408836979
7.071284778942991,0.6780734685095138
7.348872892180382,0.6191988136816549
7.637357916378006,0.565344333711749
7.937167617217536,0.516091487241793
8.248746552614573,0.47105566467550647
8.572556731909314,0.4298835323323791
8.909078300934132,0.3922505134784421
9.258810253973934,0.35785832360680286
9.622271173675122,0.3264331607684991
9.999999999999984,0.2977238430281207
