k [1/Mpc],P(k) [Mpc^3]
0.0001,605.544175292129
0.00010392556829367125,627.4881215884669
0.00010800523745162529,650.226305802865
0.00011224505680853065,673.7873339911546
0.00011665131316981963,698.2007933266873
0.00012123054013376525,723.4973433454803
0.00012598952777950273,749.7087982033498
0.00013093533273536104,776.8681195476369
0.00013607528864243335,805.0093844828791
0.00014141701702890234,834.1678180666502
0.00014696843861124463,864.379895655813
0.00015273778503907136,895.6834200684586
0.00015873361110102093,928.1175456479093
0.00016496480740980205,961.722747843818
0.0001714406135851971,996.5408161261224
0.00017817063195457305,1032.614997920015
0.00018516484179121546,1069.9901394147607
0.000192433614111598,1108.7127118687301
0.00019998772705352857,1148.830750185782
0.0002078383818579757,1190.3937625128349
0.00021599721947827182,1233.4529277684403
0.0002244763378413224,1278.0612051273222
0.0002332883097864157,1324.2733943608916
0.00024244620170823283,1372.1461480094415
0.0002519635929317015,1421.737901961297
0.0002618545958474233,1473.1090203650565
0.0002721338768375308,1526.321872096711
0.0002828166780230032,1581.4408706635618
0.0002939188398646886,1638.5325551837875
0.0003054568246515432,1697.6654540737593
0.00031744774091091926,1758.910217475394
0.00032990936877709396,1822.3397687157815
0.00034286018635565856,1888.0293218941533
0.00035631939712285854,1956.0564867210992
0.000370306958400514,2026.5010929945238
0.00038484361094874304,2099.445231545258
0.0003999509097203664,2174.97349365832
0.00041565125582259895,2253.172879750252
0.00043196792973341727,2334.132968963224
0.0004489251258218605,2417.9457919907127
0.0004665479882234472,2504.705704523645
0.000484862648123908,2594.509731041957
0.000503896262506515,2687.45739079204
0.0005236770544204653,2783.6508399976037
0.0005442343548300266,2883.194866073945
0.0005655986461065005,2986.1965567662496
0.0005878016072274912,3092.7657082265173
0.0006108761607505036,3203.0146009173513
0.0006348565216305217,3317.058004171738
0.0006597782479539537,3435.013315379703
0.0006856782936641739,3556.9998718170727
0.0007125950633568407,3683.1394414104957
0.0007405684692262436,3813.5562050063195
0.0007696399902471156,3948.3765626483987
0.0007998527336796708,4087.729331818822
0.000831251498989063,4231.744755385343
0.0008638828442740447,4380.554818079838
0.000897795155303332,4534.293344145207
0.0009330387172620361,4693.09523008528
0.0009696657893145519,4857.09703046024
0.001007730682094461,5026.435769907079
0.0010472898382363582,5201.248751506181
0.0010884019160690055,5381.674026841263
0.0011311278765939214,5567.848611329994
0.001175531073878369,5759.909421937193
0.0012216773489967915,5957.992247092806
0.0012696351276599736,6162.230554822134
0.0013194755216767058,6372.756629047306
0.0013712724343984,6589.698891295601
0.0014251026703029975,6813.182504618163
0.0014810460488806749,7043.3290594229575
0.0015391855229902056,7280.253883438533
0.001599607301861487,7524.067934952301
0.0016624009789266115,7774.876328878766
0.0017276596646690358,8032.777769185071
0.0017954801246878305,8297.863972465075
0.0018659629231817451,8570.214247016356
0.001939212572065829,8849.898263520932
0.0020153376859417325,9136.975157864892
0.002094451143151469,9431.491623662461
0.002176670253153458,9733.482929393384
0.002262116930469025,10042.968654348846
0.002350917875457286,10359.95330134743
0.002443204762186487,10684.425796809668
0.0025391144336803463,11016.355929242465
0.002638789104828933,11355.696145832524
0.002742376573264949,11702.377168976129
0.0028500304385181063,12056.307007439611
0.0029619103297725525,12417.372306597892
0.0030781821425650787,12785.433957432631
0.003199018284775064,13160.32864375512
0.0033245979322709396,13541.864911527557
0.003455107294592217,13929.81967200031
0.0035907398910610534,14323.941807046105
0.0037316968377327513,14723.947396604506
0.0038781871456107214,15129.520673297415
0.0040304280305680515,15540.31269846891
0.00418864523543527,15955.936037480864
0.004353073364731888,16375.968796822455
0.00452395623253805,16799.945853562927
0.004701547224022131,17227.358621724823
0.004886109671160325,17657.661617647707
0.005077917243205399,18090.270825545576
0.005277254352483535,18524.56418333705
0.005484416576121017,18959.845701483806
0.005699711094326071,19395.325047596427
0.005923457145875801,19830.180608651768
0.006155986501483508,20263.694530281777
0.006397643955748424,20695.193488743847
0.0066487878384172625,21123.811374341734
0.0069097905457156435,21548.217365755696
0.007181039092537346,21966.966993426566
0.007462935686310132,22378.87143930519
0.007755898323389004,22782.978102904082
0.00806036140886134,23178.237952312807
0.008376776400682916,23563.18518189372
0.008705612479099857,23936.20602806636
0.009047357242349292,24295.802601337597
0.00940251742967013,24640.675900229002
0.009771619672696168,24969.501845999537
0.010155211276345676,25280.65311288857
0.010553861030365234,25572.346002831488
0.010968160052731372,25842.748684703234
0.011398722666160517,26089.93013191357
0.011846187309026826,26311.954015108844
0.012311217482038896,26506.834176119042
0.012794502732078732,26672.561792588258
0.013296759674662111,26807.13894077969
0.013818733056536317,26908.445745140027
0.014361196859990781,26974.400266229364
0.014924955450518284,27002.878883391935
0.015510844769528393,26991.680178162882
0.016119733573881575,26938.72464436351
0.01675252472408214,26841.86581554421
0.017410156523040152,26699.06964006849
0.018093604107387147,26508.44860070794
0.01880388089340914,26268.12502105419
0.019542040079740527,25976.532309332037
0.02030917620904734,25632.220834431075
0.021106426791015535,25233.97795416068
0.021934973989050584,24781.03389427661
0.02279604637318978,24272.84105230531
0.023690920741826323,23709.409977859992
0.02462092401494623,23091.250138334686
0.02558743520168586,22419.355468640562
0.02659188744512693,21695.48465580108
0.027635770147361564,20922.044935642345
0.028720631177978267,20102.207514162943
0.029848079169243254,19240.01312037267
0.03101978590138095,18340.36928525214
0.03223748878149028,17408.927068116736
0.0335029934197723,16452.381205755082
0.03481817630688963,15478.152041589237
0.03618498759642746,14494.16838657121
0.037605453996581675,13509.519355744947
0.03908168177536263,12533.10061972055
0.04061585988376978,11574.367514922904
0.04221026320156896,10643.116968198468
0.04386725591048496,9747.840658018902
0.0455892949998106,8897.909145668329
0.047378933909631396,8101.073435855804
0.049238826317067365,7363.581579377883
0.05117173007114603,6691.600153139495
0.05318051128214196,6088.434747110706
0.05526814857144601,5557.065255500958
0.057437737488265785,5099.488693155461
0.0596924950997073,4715.325552846529
0.0620357647610427,4402.621391190032
0.06447102107323864,4158.489706954571
0.06700187503509585,3975.871538093872
0.06963207939763882,3847.789846203324
0.0723655342286965,3767.79446937234
0.07520629269592405,3729.7971556477396
0.07815856707684081,3724.1628617473298
0.08122673500479707,3738.9292183112593
0.08441534596012978,3757.746154382146
0.0877291280161335,3762.1275579614535
0.09117299484984914,3732.5949575278496
0.09475205302806537,3652.6622669441617
0.09847160957933764,3511.7824217744587
0.1023371798632519,3307.3693354442107
0.10635449574860109,3043.2175924527182
0.11052951411260206,2731.321036138727
0.1148684256737553,2391.7507151540653
0.1193776641714435,2049.213063217809
0.1240639159058831,1731.2899223121708
0.12893412965257148,1460.937037131421
0.13399552696593373,1252.4194219449555
0.1392556128874462,1110.211800594489
0.14472218707411338,1031.1751438374856
0.15040335536380234,1007.434764379498
0.15630754179458153,1026.5735264097762
0.16244350109588662,1069.9340985733818
0.16882033167003618,1112.3324546413046
0.17544748908334581,1125.7185091644067
0.1823348000868439,1087.1826024128864
0.189492477187382,989.8657848169588
0.19693113379074215,850.1397258892173
0.20466179993919872,700.1562464127505
0.21269593866686892,571.0063146316741
0.22104546299710207,482.78431875838965
0.22972275360711503,442.20392628938475
0.23874067718606454,441.9015041305138
0.2481126055137766,462.9935465409505
0.25785243528842716,479.65278395616633
0.26797460873256895,466.62676480628164
0.27849413500806414,416.15075042314595
0.28942661247167484,345.6154240077387
0.3007882518043098,283.0672462932096
0.31259590004822796,247.58791915743782
0.324867065587837,239.7660146940442
0.3376199441111335,246.13046459058094
0.35087344559027084,245.01482273915363
0.36464722232127456,223.1991498521257
0.37896169806447155,188.52051202596633
0.3938380983288488,160.06785214146018
0.4092984818452433,147.95249009542115
0.4253657732750382,146.45988738713453
0.44206379720285277,141.60045052998802
0.45941731346364734,126.37474817179863
0.47745205385661277,108.79688203909211
0.4961947603002895,98.62651213961188
0.5156732244854959,94.7887109132946
0.5359163290848509,89.07257868271212
0.556954090580013,79.0627278097604
0.5788177037701272,70.50699023413924
0.6015395880274836,65.9379280145327
0.6251534353689703,61.44789597014452
0.6496942604146115,55.16966599108062
0.6751984523072497,49.95291591048312
0.7017038286703824,46.356670788520404
0.7292496916841444,42.34000543828054
0.7578768863625915,38.297806553204396
0.7876278611187046,35.1321692449397
0.8185467307069019,32.20197843519287
0.850679341636415,29.434974406329744
0.8840733401525058,26.847096838284077
0.9187782428863317,24.448889810910963
0.9548455102782278,22.244604688088565
0.9923286228832539,20.23343247810785
1.0312831606721837,18.41007106134302
1.0717668854455022,16.7590256383397
1.1138398264826193,15.260598557682023
1.1575643695533022,13.897689343396886
1.2030053494233226,12.65553726118448
1.2502301459914542,11.521373516410364
1.299308784200415,10.484523654075502
1.3503140378698726,9.53714351467936
1.4033215376054824,8.672330505427302
1.4584098829439835,7.883588256772363
1.5156607589006013,7.164821577875175
1.575159057091621,6.5103253561806484
1.6369930016117014,5.9146379962734486
1.7012542798525885,5.372529123860478
1.7680381784572046,4.8792181615916
1.8374437246107238,4.430352268918764
1.9095738328780953,4.021967541404242
1.9845354578058014,3.650457409870915
2.0624397525140905,3.312568111824577
2.143402233514853,3.00534241495166
2.227542951999554,2.7260734440399
2.314986671851158,2.4722843853583663
2.405863054644063,2.2417099353279304
2.5003068519063225,2.032276949679365
2.598458104929248,1.8420852812809656
2.7004623524206774,1.6694004569446197
2.806470846309834,1.5126409950773312
2.916640776023701,1.370365244615905
3.031135501567576,1.24125935326752
3.150124795755327,1.1241270007612034
3.2737850959485697,1.0178790104137576
3.4022997656780634,0.921523003619095
3.5358593665351745,0.8341549922538469
3.6746619407366854,0.7549517299002638
3.8189133047818515,0.6831636159967219
3.968827354637162,0.6181078343133293
4.1246263829013445,0.5591630110635557
4.286541408420921,0.5057640771758304
4.4548125188449825,0.4573972750827533
4.629689226627261,0.4135955966159223
4.811430839003257,0.3739346915199663
5.000306842491082,0.3380291229207879
5.196597302486189,0.30552869664138665
5.400593278542364,0.27611528292826615
5.612597255954967,0.24949994436935646
5.8329235942862,0.22542030836795737
6.06189899349756,0.20363807940936182
6.29986297838068,0.18393691548503815
6.547168402004727,0.1661205425934009
6.804181968927091,0.15001092801864246
7.071284778942991,0.13544661324883256
7.348872892180382,0.12228120196145309
7.637357916378006,0.11038199800887412
7.937167617217536,0.09962871950774926
8.248746552614573,0.08991234700178596
8.572556731909314,0.08113408649227488
8.909078300934132,0.07320442593324404
9.258810253973934,0.06604226299392939
9.622271173675122,0.0595741209839229
9.999999999999984,0.053733469317504716
