k [1/Mpc],P(k) [Mpc^3]
0.0001,160.24644750427495
0.00010392556829367125,165.5757186161519
0.00010800523745162529,171.08205387076933
0.00011224505680853065,176.77130990878746
0.00011665131316981963,182.64953362226495
0.00012123054013376525,188.72297194054784
0.00012598952777950273,194.99807818653437
0.00013093533273536104,201.48151740253755
0.00013607528864243335,208.18017330073243
0.00014141701702890234,215.10115510395906
0.00014696843861124463,222.25179928981754
0.00015273778503907136,229.63967441217557
0.00015873361110102093,237.27259378121065
0.00016496480740980205,245.15861651387377
0.0001714406135851971,253.306059074455
0.00017817063195457305,261.7235106177387
0.00018516484179121546,270.41984662598577
0.000192433614111598,279.40422971807175
0.00019998772705352857,288.68609544106636
0.0002078383818579757,298.27516471469323
0.00021599721947827182,308.1814653908376
0.0002244763378413224,318.4153341930138
0.0002332883097864157,328.9874333026621
0.00024244620170823283,339.9087690822808
0.0002519635929317015,351.190704483972
0.0002618545958474233,362.8449549866016
0.0002721338768375308,374.88355501838737
0.0002828166780230032,387.31889318613213
0.0002939188398646886,400.16373242248875
0.0003054568246515432,413.4312122932851
0.00031744774091091926,427.1348708661345
0.00032990936877709396,441.2886430533381
0.00034286018635565856,455.90687554359533
0.00035631939712285854,471.00433252087726
0.000370306958400514,486.5961734396691
0.00038484361094874304,502.69799397131015
0.0003999509097203664,519.3257928074996
0.00041565125582259895,536.4959736003567
0.00043196792973341727,554.2254019020867
0.0004489251258218605,572.531410456511
0.0004665479882234472,591.4318143259138
0.000484862648123908,610.9448604147638
0.000503896262506515,631.0891854342728
0.0005236770544204653,651.8839064737675
0.0005442343548300266,673.3485952134572
0.0005655986461065005,695.5033017117939
0.0005878016072274912,718.368545670385
0.0006108761607505036,741.9652457865018
0.0006348565216305217,766.3148035471797
0.0006597782479539537,791.4390427259412
0.0006856782936641739,817.360210781531
0.0007125950633568407,844.1010176434154
0.0007405684692262436,871.6845101096175
0.0007696399902471156,900.1341661906316
0.0007998527336796708,929.4738894434075
0.000831251498989063,959.7279787887962
0.0008638828442740447,990.9211486892374
0.000897795155303332,1023.0782640342791
0.0009330387172620361,1056.224446478036
0.0009696657893145519,1090.3851381454333
0.001007730682094461,1125.586003022668
0.0010472898382363582,1161.8529979879297
0.0010884019160690055,1199.212113331209
0.0011311278765939214,1237.6893728589412
0.001175531073878369,1277.3108833560352
0.0012216773489967915,1318.1024259906776
0.0012696351276599736,1360.089726911706
0.0013194755216767058,1403.2982866404952
0.0013712724343984,1447.7532342998425
0.0014251026703029975,1493.4794623778935
0.0014810460488806749,1540.5010331302315
0.0015391855229902056,1588.8414090128242
0.001599607301861487,1638.5233675367801
0.0016624009789266115,1689.5686002858652
0.0017276596646690358,1741.9980284802928
0.0017954801246878305,1795.8312019602504
0.0018659629231817451,1851.086320850176
0.001939212572065829,1907.7802908607298
0.0020153376859417325,1965.9279923604495
0.002094451143151469,2025.5427174375366
0.002176670253153458,2086.6355820202234
0.002262116930469025,2149.2152345928644
0.002350917875457286,2213.288225052632
0.002443204762186487,2278.8581930424284
0.0025391144336803463,2345.9261483483106
0.002638789104828933,2414.4900518287623
0.002742376573264949,2484.544128639319
0.0028500304385181063,2556.0794519777924
0.0029619103297725525,2629.083162689901
0.0030781821425650787,2703.5385134941766
0.003199018284775064,2779.4247270514634
0.0033245979322709396,2856.715950796726
0.003455107294592217,2935.381923704436
0.0035907398910610534,3015.3871399798277
0.0037316968377327513,3096.69057997137
0.0038781871456107214,3179.2460204812055
0.0040304280305680515,3263.0005505605795
0.00418864523543527,3347.8953353151865
0.004353073364731888,3433.8650270383355
0.00452395623253805,3520.8369568218945
0.004701547224022131,3608.732042404664
0.004886109671160325,3697.463189573085
0.005077917243205399,3786.9358281540417
0.005277254352483535,3877.0476491794025
0.005484416576121017,3967.6867061573275
0.005699711094326071,4058.733383079128
0.005923457145875801,4150.059255299656
0.006155986501483508,4241.527163240699
0.006397643955748424,4332.990089209707
0.0066487878384172625,4424.282451075203
0.0069097905457156435,4515.2275379932935
0.007181039092537346,4605.651671983538
0.007462935686310132,4695.390013269582
0.007755898323389004,4784.265782712937
0.00806036140886134,4872.037087830423
0.008376776400682916,4958.424288641316
0.008705612479099857,5043.151276561977
0.009047357242349292,5125.966400996551
0.00940251742967013,5206.616604378835
0.009771619672696168,5284.844087620203
0.010155211276345676,5360.387208166013
0.010553861030365234,5432.970221061935
0.010968160052731372,5502.271760379611
0.011398722666160517,5567.956466598231
0.011846187309026826,5629.677719450238
0.012311217482038896,5687.076989126465
0.012794502732078732,5739.79269117491
0.013296759674662111,5787.443702381593
0.013818733056536317,5829.64449593721
0.014361196859990781,5866.006519689872
0.014924955450518284,5896.130587651866
0.015510844769528393,5919.62546792248
0.016119733573881575,5936.08017591448
0.01675252472408214,5945.07973447146
0.017410156523040152,5946.222531773391
0.018093604107387147,5939.099625807158
0.01880388089340914,5923.328558562726
0.019542040079740527,5898.538538551063
0.02030917620904734,5864.374700418072
0.021106426791015535,5820.527266119522
0.021934973989050584,5766.704779788548
0.02279604637318978,5702.669271066027
0.023690920741826323,5628.2411010495425
0.02462092401494623,5543.293782558263
0.02558743520168586,5447.787056061894
0.02659188744512693,5341.76488086627
0.027635770147361564,5225.365487786493
0.028720631177978267,5098.839803315941
0.029848079169243254,4962.567098377559
0.03101978590138095,4817.036432362157
0.03223748878149028,4662.900878165189
0.0335029934197723,4500.958886736675
0.03481817630688963,4332.116669001215
0.03618498759642746,4157.501280941806
0.037605453996581675,3978.3075937218746
0.03908168177536263,3795.8918175765248
0.04061585988376978,3611.801087727948
0.04221026320156896,3427.5259091868156
0.04386725591048496,3244.7389327652168
0.0455892949998106,3065.054258691706
0.047378933909631396,2890.072921412458
0.049238826317067365,2721.654315185832
0.05117173007114603,2561.328180544085
0.05318051128214196,2410.2068943726276
0.05526814857144601,2269.0502067512034
0.057437737488265785,2138.6041442213937
0.0596924950997073,2020.3719119492737
0.0620357647610427,1915.634881753925
0.06447102107323864,1824.2372132807134
0.06700187503509585,1744.965057748157
0.06963207939763882,1676.709535123425
0.0723655342286965,1618.4662761253874
0.07520629269592405,1569.054602470027
0.07815856707684081,1526.6697855014656
0.08122673500479707,1489.186637520729
0.08441534596012978,1453.8551935464802
0.0877291280161335,1417.732305594446
0.09117299484984914,1377.7559689122309
0.09475205302806537,1331.100725329507
0.09847160957933764,1275.6278788838274
0.1023371798632519,1210.3774921366758
0.10635449574860109,1135.5985209276694
0.11052951411260206,1052.8174220107173
0.1148684256737553,964.7577476148775
0.1193776641714435,874.9709082434593
0.1240639159058831,787.8112763112515
0.12893412965257148,707.6590948444117
0.13399552696593373,638.5209986592216
0.1392556128874462,582.9580170096882
0.14472218707411338,541.6527495181045
0.15040335536380234,513.4964996643203
0.15630754179458153,495.86256609650263
0.16244350109588662,484.9045051847776
0.16882033167003618,475.7738286264444
0.17544748908334581,463.2715758560998
0.1823348000868439,443.1611341933389
0.189492477187382,413.538201680458
0.19693113379074215,375.58923736233913
0.20466179993919872,333.59619729297253
0.21269593866686892,293.6508970819964
0.22104546299710207,261.0893890190952
0.22972275360711503,238.45553643632854
0.23874067718606454,225.38722066957448
0.2481126055137766,218.89159674997848
0.25785243528842716,213.7402415631216
0.26797460873256895,204.7317398454796
0.27849413500806414,189.41985820815017
0.28942661247167484,169.30347256645453
0.3007882518043098,149.01223352209587
0.31259590004822796,133.12597618707946
0.324867065587837,123.49150279479535
0.3376199441111335,118.32171454970074
0.35087344559027084,113.49717022323053
0.36464722232127456,105.81016110476524
0.37896169806447155,95.14487149662791
0.3938380983288488,84.5880552787466
0.4092984818452433,76.94428201886755
0.4253657732750382,72.3074307631189
0.44206379720285277,68.2801949921594
0.45941731346364734,62.85542419069969
0.47745205385661277,56.51094177148635
0.4961947603002895,51.18095949518028
0.5156732244854959,47.49422575058905
0.5359163290848509,44.22932487923591
0.556954090580013,40.397906116998
0.5788177037701272,36.569403104831956
0.6015395880274836,33.55373081205016
0.6251534353689703,31.00867056785606
0.6496942604146115,28.336959603318373
0.6751984523072497,25.77607641117886
0.7017038286703824,23.64520749086395
0.7292496916841444,21.680904606688557
0.7578768863625915,19.755060224247526
0.7876278611187046,18.051530030389376
0.8185467307069019,16.514024992405933
0.850679341636415,15.0620373345361
0.8840733401525058,13.73808433517916
0.9187782428863317,12.532485024075399
0.9548455102782278,11.432709289168036
0.9923286228832539,10.427842625582265
1.0312831606721837,9.508357669500267
1.0717668854455022,8.666065802579046
1.1138398264826193,7.894753002113485
1.1575643695533022,7.189106008797713
1.2030053494233226,6.544113367852664
1.2502301459914542,5.955059939303764
1.299308784200415,5.417521302757157
1.3503140378698726,4.927283052027615
1.4033215376054824,4.4802901790372465
1.4584098829439835,4.072809625904057
1.5156607589006013,3.701425394830458
1.575159057091621,3.363011867252215
1.6369930016117014,3.0547109961926826
1.7012542798525885,2.773926502956201
1.7680381784572046,2.5182895053261505
1.8374437246107238,2.2856255162513244
1.9095738328780953,2.0739392986189644
1.9845354578058014,1.8814010492180295
2.0624397525140905,1.7063324916302915
2.143402233514853,1.5471932428372237
2.227542951999554,1.402573351111317
2.314986671851158,1.2711834575968306
2.405863054644063,1.1518449207735475
2.5003068519063225,1.0434807015547538
2.598458104929248,0.9451068940991283
2.7004623524206774,0.855825013510886
2.806470846309834,0.7748149441191454
2.916640776023701,0.7013283638320678
3.031135501567576,0.6346826903089913
3.150124795755327,0.5742554999521226
3.2737850959485697,0.5194793652808909
3.4022997656780634,0.4698372219165746
3.5358593665351745,0.4248580698771194
3.6746619407366854,0.3841130029996187
3.8189133047818515,0.3472115654110342
3.968827354637162,0.3137983489285783
4.1246263829013445,0.28354993233055176
4.286541408420921,0.256172187881887
4.4548125188449825,0.23139770956539185
4.629689226627261,0.20898345098267335
4.811430839003257,0.18870856282489912
5.000306842491082,0.17037240362456668
5.196597302486189,0.15379275148131677
5.400593278542364,0.13880416453574015
5.612597255954967,0.12525647318929362
5.8329235942862,0.11301340375983333
6.06189899349756,0.10195131537112617
6.29986297838068,0.0919580493261184
6.547168402004727,0.08293190317614965
6.804181968927091,0.07478067918396625
7.071284778942991,0.06742081473754898
7.348872892180382,0.06077659009875499
7.637357916378006,0.05477940453411218
7.937167617217536,0.049367122033918256
8.248746552614573,0.04448347643393103
8.572556731909314,0.04007752755121191
8.909078300934132,0.0361031665192592
9.258810253973934,0.03251866146566068
9.622271173675122,0.02928624026609167
9.999999999999984,0.026371736395117723
