k [1/Mpc],P(k) [Mpc^3]
0.0001,373.9825945303237
0.00010392556829367125,386.4175787693871
0.00010800523745162529,399.2654495065534
0.00011224505680853065,412.5398117321856
0.00011665131316981963,426.2547074533248
0.00012123054013376525,440.42466477134957
0.00012598952777950273,455.06470671392907
0.00013093533273536104,470.1903359460938
0.00013607528864243335,485.8175203402905
0.00014141701702890234,501.96273693446153
0.00014696843861124463,518.6430051418555
0.00015273778503907136,535.8759050159517
0.00015873361110102093,553.6795757476647
0.00016496480740980205,572.0726891815619
0.0001714406135851971,591.0744977305689
0.00017817063195457305,610.7048765926427
0.00018516484179121546,630.9843485025519
0.000192433614111598,651.9340856469897
0.00019998772705352857,673.575881482289
0.0002078383818579757,695.9321914558096
0.00021599721947827182,719.0261557578584
0.0002244763378413224,742.8815920625681
0.0002332883097864157,767.5230499469382
0.00024244620170823283,792.9758303229546
0.0002519635929317015,819.2660084339057
0.0002618545958474233,846.4204265085993
0.0002721338768375308,874.4666257350218
0.0002828166780230032,903.4329469438728
0.0002939188398646886,933.3485486368751
0.0003054568246515432,964.2434234077574
0.00031744774091091926,996.1484257975262
0.00032990936877709396,1029.0952047995274
0.00034286018635565856,1063.11628297686
0.00035631939712285854,1098.245033915005
0.000370306958400514,1134.515646520014
0.00038484361094874304,1171.9632308135351
0.0003999509097203664,1210.6237383763953
0.00041565125582259895,1250.534024750377
0.00043196792973341727,1291.7318336970502
0.0004489251258218605,1334.2556755223338
0.0004665479882234472,1378.1449957073805
0.000484862648123908,1423.440117347515
0.000503896262506515,1470.1822652292326
0.0005236770544204653,1518.4135445201493
0.0005442343548300266,1568.1766496708678
0.0005655986461065005,1619.5151230218114
0.0005878016072274912,1672.4733470924182
0.0006108761607505036,1727.0965203801557
0.0006348565216305217,1783.430677521577
0.0006597782479539537,1841.5223238737942
0.0006856782936641739,1901.4186489123401
0.0007125950633568407,1963.1674722709572
0.0007405684692262436,2026.8170740318963
0.0007696399902471156,2092.416385532226
0.0007998527336796708,2160.014635246479
0.000831251498989063,2229.661448504241
0.0008638828442740447,2301.406768676671
0.000897795155303332,2375.300406935101
0.0009330387172620361,2451.392416748114
0.0009696657893145519,2529.7326252218395
0.001007730682094461,2610.37059996566
0.0010472898382363582,2693.355725681771
0.0010884019160690055,2778.7363895821686
0.0011311278765939214,2866.5604798318655
0.001175531073878369,2956.874767646075
0.0012216773489967915,3049.724536526995
0.0012696351276599736,3145.154025182156
0.0013194755216767058,3243.2051839746478
0.0013712724343984,3343.9181909098443
0.0014251026703029975,3447.331010750278
0.0014810460488806749,3553.478499997267
0.0015391855229902056,3662.3932037023433
0.001599607301861487,3774.1041367369703
0.0016624009789266115,3888.636944756088
0.0017276596646690358,4006.013784225689
0.0017954801246878305,4126.252021352343
0.0018659629231817451,4249.36500723949
0.001939212572065829,4375.36005169354
0.0020153376859417325,4504.238152902425
0.002094451143151469,4635.994967638933
0.002176670253153458,4770.619345259358
0.002262116930469025,4908.093937765082
0.002350917875457286,5048.39372643588
0.002443204762186487,5191.485039078646
0.0025391144336803463,5337.326653547886
0.002638789104828933,5485.867937140591
0.002742376573264949,5637.049404009941
0.0028500304385181063,5790.801908168997
0.0029619103297725525,5947.045040123492
0.0030781821425650787,6105.688551701837
0.003199018284775064,6266.6313180158195
0.0033245979322709396,6429.761314849082
0.003455107294592217,6594.955144731996
0.0035907398910610534,6762.076141303311
0.0037316968377327513,6930.975736872553
0.0038781871456107214,7101.492105075708
0.0040304280305680515,7273.449917060547
0.00418864523543527,7446.66114860734
0.004353073364731888,7620.923646376575
0.00452395623253805,7796.022050059561
0.004701547224022131,7971.724915484947
0.004886109671160325,8147.7831200431465
0.005077917243205399,8323.934032082216
0.005277254352483535,8499.90262200746
0.005484416576121017,8675.40128269931
0.005699711094326071,8850.11787666765
0.005923457145875801,9023.702112321285
0.006155986501483508,9195.791246002407
0.006397643955748424,9366.072195914845
0.0066487878384172625,9534.26621884163
0.0069097905457156435,9700.030839757896
0.007181039092537346,9862.8247729073
0.007462935686310132,10022.055441677921
0.007755898323389004,10177.251318749932
0.00806036140886134,10328.072095528842
0.008376776400682916,10474.148726165855
0.008705612479099857,10614.937820511244
0.009047357242349292,10749.835750196393
0.00940251742967013,10878.319976904757
0.009771619672696168,10999.998202479432
0.010155211276345676,11114.478387719502
0.010553861030365234,11221.241603079858
0.010968160052731372,11319.709836849253
0.011398722666160517,11409.304822196238
0.011846187309026826,11489.444460824723
0.012311217482038896,11559.558548849467
0.012794502732078732,11619.10441597113
0.013296759674662111,11667.568118233661
0.013818733056536317,11704.445003207722
0.014361196859990781,11729.204892747859
0.014924955450518284,11741.338493689993
0.015510844769528393,11740.354919998028
0.016119733573881575,11725.78577688143
0.01675252472408214,11697.203932525921
0.017410156523040152,11654.203369117085
0.018093604107387147,11596.426719086448
0.01880388089340914,11523.571243260012
0.019542040079740527,11435.388581469817
0.02030917620904734,11331.704332153711
0.021106426791015535,11212.418099615617
0.021934973989050584,11077.51152076992
0.02279604637318978,10927.067186546112
0.023690920741826323,10761.286301911094
0.02462092401494623,10580.469731979725
0.02558743520168586,10385.069905445665
0.02659188744512693,10175.670253454415
0.027635770147361564,9952.97651796881
0.028720631177978267,9717.911766095775
0.029848079169243254,9471.490486410752
0.03101978590138095,9214.925376271636
0.03223748878149028,8949.615312360367
0.0335029934197723,8677.007802074715
0.03481817630688963,8398.81335646578
0.03618498759642746,8116.765514262759
0.037605453996581675,7832.686745198321
0.03908168177536263,7548.569902265857
0.04061585988376978,7266.272517308785
0.04221026320156896,6987.708717434306
0.04386725591048496,6714.6874255196335
0.0455892949998106,6448.863824761483
0.047378933909631396,6191.876021635808
0.049238826317067365,5945.093582263837
0.05117173007114603,5709.1921673722345
0.05318051128214196,5484.348966480119
0.05526814857144601,5270.807005345261
0.057437737488265785,5069.311536472257
0.0596924950997073,4880.5060097866635
0.0620357647610427,4702.565392175192
0.06447102107323864,4531.19704204824
0.06700187503509585,4362.943827713141
0.06963207939763882,4196.671213461925
0.0723655342286965,4031.8360223088976
0.07520629269592405,3867.055416387497
0.07815856707684081,3700.6357159991494
0.08122673500479707,3530.736294150773
0.08441534596012978,3355.7313890687765
0.0877291280161335,3175.463283625225
0.09117299484984914,2991.0786953544184
0.09475205302806537,2806.000131236143
0.09847160957933764,2624.2805284286674
0.1023371798632519,2450.0297300621432
0.10635449574860109,2286.439645161544
0.11052951411260206,2135.9134381392773
0.1148684256737553,2000.3464628642523
0.1193776641714435,1880.852567439636
0.1240639159058831,1777.0676046264573
0.12893412965257148,1686.394757542426
0.13399552696593373,1603.9832359774514
0.1392556128874462,1524.3771166637623
0.14472218707411338,1442.9307313950876
0.15040335536380234,1357.1801247818516
0.15630754179458153,1267.3546121252302
0.16244350109588662,1175.8576755064316
0.16882033167003618,1085.9959934215128
0.17544748908334581,1001.1685798903426
0.1823348000868439,924.8664418738324
0.189492477187382,859.6993757040286
0.19693113379074215,804.8894979994769
0.20466179993919872,756.3848666634954
0.21269593866686892,710.3100256511084
0.22104546299710207,664.0582572461129
0.22972275360711503,616.0884907404779
0.23874067718606454,567.8455834862737
0.2481126055137766,522.5402987384703
0.25785243528842716,482.1339004191742
0.26797460873256895,447.0497044707445
0.27849413500806414,415.8841537715583
0.28942661247167484,386.62920216843366
0.3007882518043098,357.80320138587473
0.31259590004822796,329.55520955006745
0.324867065587837,303.2991579902979
0.3376199441111335,279.6641884063253
0.35087344559027084,258.449408349349
0.36464722232127456,238.72535369142665
0.37896169806447155,219.94253866098012
0.3938380983288488,202.24883585892292
0.4092984818452433,186.0313734970457
0.4253657732750382,171.23750712013853
0.44206379720285277,157.54266872282147
0.45941731346364734,144.74504153279585
0.47745205385661277,132.9009110999092
0.4961947603002895,122.03317253806462
0.5156732244854959,112.01231649594406
0.5359163290848509,102.73725452524918
0.556954090580013,94.18600636657233
0.5788177037701272,86.32517611229014
0.6015395880274836,79.08353516367161
0.6251534353689703,72.41601891262346
0.6496942604146115,66.28711431089579
0.6751984523072497,60.65213955387307
0.7017038286703824,55.47283571762241
0.7292496916841444,50.71712127365344
0.7578768863625915,46.3508126958815
0.7876278611187046,42.34289079157449
0.8185467307069019,38.66697321533035
0.850679341636415,35.297940059329505
0.8840733401525058,32.21141097337764
0.9187782428863317,29.38465686518727
0.9548455102782278,26.79689338721421
0.9923286228832539,24.42888511389457
1.0312831606721837,22.262844021946982
1.0717668854455022,20.282330799259274
1.1138398264826193,18.472161764351558
1.1575643695533022,16.818316617862912
1.2030053494233226,15.307855915105538
1.2502301459914542,13.92885226877325
1.299308784200415,12.670317787832381
1.3503140378698726,11.522135450782027
1.4033215376054824,10.47499570722793
1.4584098829439835,9.520339710549152
1.5156607589006013,8.650299199931966
1.575159057091621,7.857642811098918
1.6369930016117014,7.135727951917986
1.7012542798525885,6.478455876507295
1.7680381784572046,5.880226810186427
1.8374437246107238,5.3359016222155065
1.9095738328780953,4.840770604777915
1.9845354578058014,4.390519734889003
2.0624397525140905,3.981199088068848
2.143402233514853,3.609193426679926
2.227542951999554,3.2711945805069487
2.314986671851158,2.964177326941333
2.405863054644063,2.6853765421060887
2.5003068519063225,2.4322657912359156
2.598458104929248,2.2025375626832204
2.7004623524206774,1.9940845477293536
2.806470846309834,1.804983054955652
2.916640776023701,1.6334782771882872
3.031135501567576,1.477970029743773
3.150124795755327,1.3369996027628401
3.2737850959485697,1.2092377202116955
3.4022997656780634,1.0934735435018088
3.5358593665351745,0.9886043235555634
3.6746619407366854,0.893626025112494
3.8189133047818515,0.807624775949634
3.968827354637162,0.7297690131383118
4.1246263829013445,0.6593020414625871
4.286541408420921,0.5955355839849188
4.4548125188449825,0.5378440589194544
4.629689226627261,0.48565903074785743
4.811430839003257,0.4384641248471557
5.000306842491082,0.39579037688443575
5.196597302486189,0.35721198104187163
5.400593278542364,0.3223424272914987
5.612597255954967,0.29083096475775166
5.8329235942862,0.2623593711549442
6.06189899349756,0.2366390037309875
6.29986297838068,0.21340808174263418
6.547168402004727,0.19242925686579276
6.804181968927091,0.17348741182000443
7.071284778942991,0.1563876220941244
7.348872892180382,0.14095329904318943
7.637357916378006,0.12702449763593296
7.937167617217536,0.11445637557911433
8.248746552614573,0.10311780053630511
8.572556731909314,0.09289007807252665
8.909078300934132,0.08366579380755153
9.258810253973934,0.07534775868904228
9.622271173675122,0.06784802684679432
9.999999999999984,0.061087047921235905
