k [1/Mpc],P(k) [Mpc^3]
0.0001,373.82025695247097
0.00010392556829367125,389.5420200637463
0.00010800523745162529,405.9187196350958
0.00011224505680853065,422.97691468595156
0.00011665131316981963,440.7441224280478
0.00012123054013376525,459.2488040387609
0.00012598952777950273,478.5204754055205
0.00013093533273536104,498.5897052220456
0.00013607528864243335,519.4881674614172
0.00014141701702890234,541.248644140987
0.00014696843861124463,563.9049793313335
0.00015273778503907136,587.4921948506466
0.00015873361110102093,612.0464082903732
0.00016496480740980205,637.604879918007
0.0001714406135851971,664.2060883655816
0.00017817063195457305,691.8896462957815
0.00018516484179121546,720.6964182297635
0.000192433614111598,750.668377349864
0.00019998772705352857,781.8485788349996
0.0002078383818579757,814.2813149288596
0.00021599721947827182,848.011924582571
0.0002244763378413224,883.0869343991941
0.0002332883097864157,919.5539255534977
0.00024244620170823283,957.4613718849278
0.0002519635929317015,996.8588648093369
0.0002618545958474233,1037.7967908106837
0.0002721338768375308,1080.3264430717284
0.0002828166780230032,1124.4999727300028
0.0002939188398646886,1170.37006467271
0.0003054568246515432,1217.9901921268633
0.00031744774091091926,1267.4141750237304
0.00032990936877709396,1318.696165040128
0.00034286018635565856,1371.8907391783578
0.00035631939712285854,1427.0524368455963
0.000370306958400514,1484.2359711326915
0.00038484361094874304,1543.4957444519919
0.0003999509097203664,1604.885603055477
0.00041565125582259895,1668.4590794200476
0.00043196792973341727,1734.268939446738
0.0004489251258218605,1802.3672165297228
0.0004665479882234472,1872.804644265565
0.000484862648123908,1945.63006711096
0.000503896262506515,2020.8908173948196
0.0005236770544204653,2098.63201946455
0.0005442343548300266,2178.896550070633
0.0005655986461065005,2261.724563220791
0.0005878016072274912,2347.1524551105226
0.0006108761607505036,2435.2133247545253
0.0006348565216305217,2525.9355000590094
0.0006597782479539537,2619.342328714359
0.0006856782936641739,2715.4521166738923
0.0007125950633568407,2814.2760498318453
0.0007405684692262436,2915.819165089318
0.0007696399902471156,3020.078642568919
0.0007998527336796708,3127.042899974212
0.000831251498989063,3236.6923476636603
0.0008638828442740447,3348.996877625533
0.000897795155303332,3463.91666925678
0.0009330387172620361,3581.401368862996
0.0009696657893145519,3701.3887295701948
0.001007730682094461,3823.805479340066
0.0010472898382363582,3948.566214882563
0.0010884019160690055,4075.573239356081
0.0011311278765939214,4204.715248314873
0.001175531073878369,4335.864907200916
0.0012216773489967915,4468.8807635984995
0.0012696351276599736,4603.60729194013
0.0013194755216767058,4739.874599761642
0.0013712724343984,4877.497244166745
0.0014251026703029975,5016.271324832519
0.0014810460488806749,5155.977018372741
0.0015391855229902056,5296.387467842073
0.001599607301861487,5437.270891296584
0.0016624009789266115,5578.383634500702
0.0017276596646690358,5719.474848882865
0.0017954801246878305,5860.283411343108
0.0018659629231817451,6000.520645694887
0.001939212572065829,6139.858719806526
0.0020153376859417325,6277.955503655394
0.002094451143151469,6414.478381951131
0.002176670253153458,6549.0963645619395
0.002262116930469025,6681.469487370309
0.002350917875457286,6811.249245835319
0.002443204762186487,6938.080644480144
0.0025391144336803463,7061.607923125382
0.002638789104828933,7181.475206721696
0.002742376573264949,7297.3275044339925
0.0028500304385181063,7408.8203119428
0.0029619103297725525,7515.613001536523
0.0030781821425650787,7617.357725983383
0.003199018284775064,7713.698942776959
0.0033245979322709396,7804.288311520666
0.003455107294592217,7888.798891518806
0.0035907398910610534,7966.9175156171195
0.0037316968377327513,8038.2736499138255
0.0038781871456107214,8102.392978491713
0.0040304280305680515,8158.836560031746
0.00418864523543527,8207.509591418673
0.004353073364731888,8248.517352987912
0.00452395623253805,8281.694183600915
0.004701547224022131,8306.155302297884
0.004886109671160325,8320.951447530617
0.005077917243205399,8325.640228832215
0.005277254352483535,8320.192103079873
0.005484416576121017,8304.602036579141
0.005699711094326071,8278.817093451933
0.005923457145875801,8242.797570200726
0.006155986501483508,8196.382264483931
0.006397643955748424,8139.271361326927
0.0066487878384172625,8071.191516370173
0.0069097905457156435,7991.82817456327
0.007181039092537346,7900.899521582394
0.007462935686310132,7798.1750630752595
0.007755898323389004,7683.466273011157
0.00806036140886134,7556.660822368901
0.008376776400682916,7417.630045660547
0.008705612479099857,7266.2973536558875
0.009047357242349292,7102.599161378829
0.00940251742967013,6926.339883150119
0.009771619672696168,6737.44964378643
0.010155211276345676,6535.89026699897
0.010553861030365234,6321.719210189731
0.010968160052731372,6095.098797811047
0.011398722666160517,5855.9616649449745
0.011846187309026826,5604.47763219238
0.012311217482038896,5341.041543759063
0.012794502732078732,5066.288396494913
0.013296759674662111,4781.125648492187
0.013818733056536317,4485.999842357365
0.014361196859990781,4181.729506832232
0.014924955450518284,3869.60304854746
0.015510844769528393,3551.250401829527
0.016119733573881575,3228.906106346457
0.01675252472408214,2903.7255457580313
0.017410156523040152,2577.4440475196943
0.018093604107387147,2253.5075133626
0.01880388089340914,1936.6852236564205
0.019542040079740527,1632.142865759119
0.02030917620904734,1339.3913703935132
0.021106426791015535,1058.8088677017777
0.021934973989050584,798.4348186243219
0.02279604637318978,571.264231174727
0.023690920741826323,385.34076684633686
0.02462092401494623,227.91896416257615
0.02558743520168586,101.64401976771498
0.02659188744512693,32.28842582155384
0.027635770147361564,12.569333945618913
0.028720631177978267,12.833200664109535
0.029848079169243254,41.220078748978814
0.03101978590138095,182.00652623158703
0.03223748878149028,473.0785220564096
0.0335029934197723,682.011134168302
0.03481817630688963,800.6944513448734
0.03618498759642746,1004.020302189485
0.037605453996581675,1297.008085826205
0.03908168177536263,1590.1513847254164
0.04061585988376978,1807.7654974081622
0.04221026320156896,1954.750382795207
0.04386725591048496,2054.387886436111
0.0455892949998106,2099.9707222237707
0.047378933909631396,2077.6767584212203
0.049238826317067365,1967.8401634078957
0.05117173007114603,1754.8712363621287
0.05318051128214196,1482.4904839188307
0.05526814857144601,1245.2273780993976
0.057437737488265785,999.3629631233467
0.0596924950997073,596.1794967474249
0.0620357647610427,306.8433144059391
0.06447102107323864,320.94355499432015
0.06700187503509585,117.84765375067536
0.06963207939763882,0.5824021977131064
0.0723655342286965,0.05314105872479505
0.07520629269592405,8.280388739666183
0.07815856707684081,87.93100674461891
0.08122673500479707,48.874216471431936
0.08441534596012978,52.560271580354744
0.0877291280161335,41.35960346527244
0.09117299484984914,1.0795451573734125
0.09475205302806537,0.23327180943151368
0.09847160957933764,18.772217615736192
0.1023371798632519,126.30729344423925
0.10635449574860109,138.80302727577032
0.11052951411260206,212.33155570810004
0.1148684256737553,218.20981190510366
0.1193776641714435,181.66775038503667
0.1240639159058831,111.50711953193343
0.12893412965257148,55.10386660707261
0.13399552696593373,6.00086836728502
0.1392556128874462,1.5400358651674193
0.14472218707411338,5.521127120983651
0.15040335536380234,9.744939495249199
0.15630754179458153,3.296589344295837
0.16244350109588662,0.46150814802922724
0.16882033167003618,16.074387744612423
0.17544748908334581,35.02657888643373
0.1823348000868439,49.717340288381855
0.189492477187382,39.5297114331214
0.19693113379074215,15.383243829143357
0.20466179993919872,2.1729282624847035
0.21269593866686892,0.08977845166700997
0.22104546299710207,0.598733482218124
0.22972275360711503,0.15472376994905923
0.23874067718606454,4.612199518351372
0.2481126055137766,11.73924677853081
0.25785243528842716,12.356709018978544
0.26797460873256895,5.625480983253714
0.27849413500806414,0.7897206650972052
0.28942661247167484,0.023278988356519075
0.3007882518043098,0.32140924523443937
0.31259590004822796,2.380884575127406
0.324867065587837,4.2602518675152075
0.3376199441111335,2.735857892713369
0.35087344559027084,0.7113524426138768
0.36464722232127456,0.260061355557321
0.37896169806447155,0.7482511689566099
0.3938380983288488,1.6077128640910907
0.4092984818452433,1.2992336893793979
0.4253657732750382,0.5136600072304561
0.44206379720285277,0.3840901686312251
0.45941731346364734,0.6692824419689904
0.47745205385661277,0.7575922273184243
0.4961947603002895,0.4411784958455228
0.5156732244854959,0.3430794874590645
0.5359163290848509,0.4329994326507821
0.556954090580013,0.4055307785407324
0.5788177037701272,0.2886588354059476
0.6015395880274836,0.2822692355117343
0.6251534353689703,0.28120801023918707
0.6496942604146115,0.2398086885304421
0.6751984523072497,0.20947636840967898
0.7017038286703824,0.1871052529273275
0.7292496916841444,0.16965842299340736
0.7578768863625915,0.15504617324070888
0.7876278611187046,0.14177528765316016
0.8185467307069019,0.1289236561382689
0.850679341636415,0.11655805359120029
0.8840733401525058,0.104943097925326
0.9187782428863317,0.09425236036778266
0.9548455102782278,0.08458282585930045
0.9923286228832539,0.07597080264401722
1.0312831606721837,0.06836376082191237
1.0717668854455022,0.06161372938368227
1.1138398264826193,0.05558878318367218
1.1575643695533022,0.050181167281018076
1.2030053494233226,0.04530269858475895
1.2502301459914542,0.040881847237267864
1.299308784200415,0.036871689646716325
1.3503140378698726,0.033240458551098466
1.4033215376054824,0.029957937241014334
1.4584098829439835,0.02699524271466987
1.5156607589006013,0.024324979995924274
1.575159057091621,0.02192092203195818
1.6369930016117014,0.01975641451812304
1.7012542798525885,0.01780673794673613
1.7680381784572046,0.016049867179326095
1.8374437246107238,0.014466160120162785
1.9095738328780953,0.01303808415497381
1.9845354578058014,0.011750130577997743
2.0624397525140905,0.010588704904672973
2.143402233514853,0.009541549066095431
2.227542951999554,0.008597565089921787
2.314986671851158,0.007746709136015297
2.405863054644063,0.006979892239575679
2.5003068519063225,0.006288847649764788
2.598458104929248,0.005666075338854237
2.7004623524206774,0.005104819948682999
2.806470846309834,0.004598998034074807
2.916640776023701,0.004143130649151636
3.031135501567576,0.0037322859818023735
3.150124795755327,0.0033620394303190888
3.2737850959485697,0.0030284053821837127
3.4022997656780634,0.0027277857148672513
3.5358593665351745,0.0024569326029435633
3.6746619407366854,0.002212914843487856
3.8189133047818515,0.0019930835736839485
3.968827354637162,0.001795041380682227
4.1246263829013445,0.0016166277970283546
4.286541408420921,0.0014558972211748261
4.4548125188449825,0.001311097428480565
4.629689226627261,0.001180650379527797
4.811430839003257,0.001063137645183564
5.000306842491082,0.0009572834483540172
5.196597302486189,0.0008619370719684134
5.400593278542364,0.0007760605661661655
5.612597255954967,0.0006987178002718348
5.8329235942862,0.0006290643206087816
6.06189899349756,0.0005663371271364303
6.29986297838068,0.000509848178260747
6.547168402004727,0.0004589778116298372
6.804181968927091,0.0004131679380855066
7.071284778942991,0.0003719159123363287
7.348872892180382,0.0003347691905030762
7.637357916378006,0.0003013205563502644
7.937167617217536,0.0002712031224064538
8.248746552614573,0.00024408626740775357
8.572556731909314,0.00021967206524833307
8.909078300934132,0.00019769205625465303
9.258810253973934,0.00017790413875868276
9.622271173675122,0.0001600900261384178
9.999999999999984,0.00014405316356980174
