k [1/Mpc],P(k) [Mpc^3]
0.0001,134.53743738933684
0.00010392556829367125,140.61967208389797
0.00010800523745162529,146.97613200941905
0.00011224505680853065,153.61909258215184
0.00011665131316981963,160.5613563901597
0.00012123054013376525,167.81628721900145
0.00012598952777950273,175.39782927014247
0.00013093533273536104,183.32053326710638
0.00013607528864243335,191.59958079962155
0.00014141701702890234,200.25079648800735
0.00014696843861124463,209.29068798465033
0.00015273778503907136,218.73647423579112
0.00015873361110102093,228.60611430065114
0.00016496480740980205,238.91833562839116
0.0001714406135851971,249.69263618719563
0.00017817063195457305,260.9493340635806
0.00018516484179121546,272.7095898431982
0.000192433614111598,284.9954224517019
0.00019998772705352857,297.8297698344209
0.0002078383818579757,311.2365111223821
0.00021599721947827182,325.240508857787
0.0002244763378413224,339.86762387984834
0.0002332883097864157,355.1446949888519
0.00024244620170823283,371.09963353933045
0.0002519635929317015,387.7614391966462
0.0002618545958474233,405.160238376763
0.0002721338768375308,423.32732752012424
0.0002828166780230032,442.2951302133526
0.0002939188398646886,462.097294849971
0.0003054568246515432,482.7686927470873
0.00031744774091091926,504.34542266654904
0.00032990936877709396,526.8649049997907
0.00034286018635565856,550.3658193481492
0.00035631939712285854,574.888188882498
0.000370306958400514,600.4733786486134
0.00038484361094874304,627.1640214440253
0.0003999509097203664,655.0041695600047
0.00041565125582259895,684.0392310393472
0.00043196792973341727,714.3160141948819
0.0004489251258218605,745.8827490254777
0.0004665479882234472,778.7889131715028
0.000484862648123908,813.0854092935864
0.000503896262506515,848.8244965322045
0.0005236770544204653,886.0597657644782
0.0005442343548300266,924.8462101728862
0.0005655986461065005,965.2399728103737
0.0005878016072274912,1007.2984863195819
0.0006108761607505036,1051.0803940605977
0.0006348565216305217,1096.6453918743425
0.0006597782479539537,1144.054363665815
0.0006856782936641739,1193.3690047430837
0.0007125950633568407,1244.6518840711196
0.0007405684692262436,1297.9663809768454
0.0007696399902471156,1353.3762500132973
0.0007998527336796708,1410.9458685830305
0.000831251498989063,1470.7396313845104
0.0008638828442740447,1532.8218124179232
0.000897795155303332,1597.2566679761662
0.0009330387172620361,1664.1075265058748
0.0009696657893145519,1733.4371530034161
0.001007730682094461,1805.30707270098
0.0010472898382363582,1879.7769741046136
0.0010884019160690055,1956.9050960260122
0.0011311278765939214,2036.7469125801658
0.001175531073878369,2119.3553518520143
0.0012216773489967915,2204.780577832522
0.0012696351276599736,2293.069135865482
0.0013194755216767058,2384.264131130696
0.0013712724343984,2478.40363918765
0.0014251026703029975,2575.5205005474436
0.0014810460488806749,2675.6423776039815
0.0015391855229902056,2778.790370933415
0.001599607301861487,2884.9793983662958
0.0016624009789266115,2994.218889951354
0.0017276596646690358,3106.512550020963
0.0017954801246878305,3221.8560795916983
0.0018659629231817451,3340.2320805783243
0.001939212572065829,3461.6122234140407
0.0020153376859417325,3585.9592150289486
0.002094451143151469,3713.2270053864904
0.002176670253153458,3843.3588728825316
0.002262116930469025,3976.284786783543
0.002350917875457286,4111.921532210338
0.002443204762186487,4250.173618831581
0.0025391144336803463,4390.933447551711
0.002638789104828933,4534.080125626358
0.002742376573264949,4679.477502853311
0.0028500304385181063,4826.973769251428
0.0029619103297725525,4976.402398243304
0.0030781821425650787,5127.582473072788
0.003199018284775064,5280.318015785729
0.0033245979322709396,5434.396787232627
0.003455107294592217,5589.589760179125
0.0035907398910610534,5745.65157729737
0.0037316968377327513,5902.317205833959
0.0038781871456107214,6059.303844698388
0.0040304280305680515,6216.315535383297
0.00418864523543527,6373.0470301982905
0.004353073364731888,6529.176667083161
0.00452395623253805,6684.3291727848855
0.004701547224022131,6838.083936945709
0.004886109671160325,6990.040253590421
0.005077917243205399,7139.919831350918
0.005277254352483535,7287.464001664717
0.005484416576121017,7432.177391497138
0.005699711094326071,7573.28480671801
0.005923457145875801,7710.026351960553
0.006155986501483508,7841.975973555561
0.006397643955748424,7968.835580164289
0.0066487878384172625,8090.151427652347
0.0069097905457156435,8205.185954809873
0.007181039092537346,8313.185387153424
0.007462935686310132,8413.610577486432
0.007755898323389004,8506.057409509049
0.00806036140886134,8590.052740143943
0.008376776400682916,8664.899573021694
0.008705612479099857,8729.870866313542
0.009047357242349292,8784.205334761034
0.00940251742967013,8827.11947428798
0.009771619672696168,8857.861890488424
0.010155211276345676,8875.730404144017
0.010553861030365234,8880.072462730994
0.010968160052731372,8870.181068515763
0.011398722666160517,8845.264097746856
0.011846187309026826,8804.589249929846
0.012311217482038896,8747.431610390837
0.012794502732078732,8673.139186697097
0.013296759674662111,8581.087949325862
0.013818733056536317,8470.587749533237
0.014361196859990781,8341.087679097614
0.014924955450518284,8192.074869312713
0.015510844769528393,8023.155347712362
0.016119733573881575,7834.105802537305
0.01675252472408214,7624.689766553856
0.017410156523040152,7394.94171726056
0.018093604107387147,7145.047877712119
0.01880388089340914,6875.37812079228
0.019542040079740527,6586.684825870278
0.02030917620904734,6279.8127110037685
0.021106426791015535,5956.028080707895
0.021934973989050584,5616.951302740577
0.02279604637318978,5264.446568221198
0.023690920741826323,4900.951099899176
0.02462092401494623,4529.101268535688
0.02558743520168586,4151.96562941181
0.02659188744512693,3773.065031358255
0.027635770147361564,3396.0624375402635
0.028720631177978267,3025.027639665264
0.029848079169243254,2664.022816012724
0.03101978590138095,2317.0764858759662
0.03223748878149028,1988.293322312656
0.0335029934197723,1681.632482200257
0.03481817630688963,1400.473162119348
0.03618498759642746,1147.5133731515032
0.037605453996581675,924.5160346900652
0.03908168177536263,732.0822226236672
0.04061585988376978,570.2578873870696
0.04221026320156896,437.6131130342853
0.04386725591048496,332.23631900192447
0.0455892949998106,252.09501460331646
0.047378933909631396,193.40317576501897
0.049238826317067365,152.99284439255703
0.05117173007114603,128.00916729109997
0.05318051128214196,115.66313711150295
0.05526814857144601,113.80523362911217
0.057437737488265785,122.33903692856303
0.0596924950997073,141.66940577192403
0.0620357647610427,173.08949927969618
0.06447102107323864,217.55701666092065
0.06700187503509585,274.0886586158857
0.06963207939763882,339.58067932904424
0.0723655342286965,407.7947200725565
0.07520629269592405,470.91978738163283
0.07815856707684081,519.9529858579162
0.08122673500479707,546.2659701659873
0.08441534596012978,542.6690529639309
0.0877291280161335,505.82489255377146
0.09117299484984914,438.73621022013805
0.09475205302806537,352.0253991220992
0.09847160957933764,258.1478300046526
0.1023371798632519,171.83542200157802
0.10635449574860109,104.89138827074986
0.11052951411260206,60.18199753725902
0.1148684256737553,35.26664548495549
0.1193776641714435,24.73896185144477
0.1240639159058831,24.68100643338387
0.12893412965257148,34.15090520307864
0.13399552696593373,54.94619448939867
0.1392556128874462,86.25128840618679
0.14472218707411338,120.36917022999177
0.15040335536380234,143.56732417235798
0.15630754179458153,144.77005054052316
0.16244350109588662,122.28711426751521
0.16882033167003618,85.31781604718182
0.17544748908334581,49.631912803523505
0.1823348000868439,26.194474819879947
0.189492477187382,15.85292135806458
0.19693113379074215,15.191356733212162
0.20466179993919872,22.655596155032885
0.21269593866686892,36.58314680872252
0.22104546299710207,49.90865126956705
0.22972275360711503,52.273003090504865
0.23874067718606454,41.32595491021778
0.2481126055137766,25.708358472675343
0.25785243528842716,14.801540432906405
0.26797460873256895,11.406166995348636
0.27849413500806414,13.997935577074815
0.28942661247167484,19.87171385324878
0.3007882518043098,23.213990828592777
0.31259590004822796,19.925509742248362
0.324867065587837,13.4575673648313
0.3376199441111335,9.37768496902551
0.35087344559027084,9.225118981930418
0.36464722232127456,11.264715806059154
0.37896169806447155,12.023506911826631
0.3938380983288488,9.870275401076153
0.4092984818452433,7.342398172264874
0.4253657732750382,6.65567525163886
0.44206379720285277,7.205781033611265
0.45941731346364734,7.055717045852306
0.47745205385661277,5.823482762246046
0.4961947603002895,4.972811820207807
0.5156732244854959,4.913682378787772
0.5359163290848509,4.7249402577806086
0.556954090580013,4.0904955675047106
0.5788177037701272,3.6729848857475167
0.6015395880274836,3.5083086636868073
0.6251534353689703,3.2017075976678773
0.6496942604146115,2.8603075774621183
0.6751984523072497,2.6592522931407556
0.7017038286703824,2.4477424078702024
0.7292496916841444,2.2420181237739243
0.7578768863625915,2.0493401271495397
0.7876278611187046,1.8706085356304412
0.8185467307069019,1.7062322539702808
0.850679341636415,1.5562242408686746
0.8840733401525058,1.4202368860279504
0.9187782428863317,1.2970632572627867
0.9548455102782278,1.1851584594705211
0.9923286228832539,1.083194627148211
1.0312831606721837,0.9900367229446252
1.0717668854455022,0.9047129031765307
1.1138398264826193,0.8264431258510234
1.1575643695533022,0.7546885192555719
1.2030053494233226,0.6889691898527526
1.2502301459914542,0.6288308599688599
1.299308784200415,0.5738449734270306
1.3503140378698726,0.5236073561692358
1.4033215376054824,0.4777220992241103
1.4584098829439835,0.43581142906689674
1.5156607589006013,0.39753051956432117
1.575159057091621,0.36256493700548215
1.6369930016117014,0.330627885418035
1.7012542798525885,0.30145876741040756
1.7680381784572046,0.2748227797106838
1.8374437246107238,0.250505128407014
1.9095738328780953,0.22830862264537544
1.9845354578058014,0.20805230000048835
2.0624397525140905,0.18957012212057334
2.143402233514853,0.17270928111926712
2.227542951999554,0.1573293830374571
2.314986671851158,0.14330201195811948
2.405863054644063,0.13050974172924573
2.5003068519063225,0.11884520804396499
2.598458104929248,0.10821029111156108
2.7004623524206774,0.09851541221075716
2.806470846309834,0.08967868429510338
2.916640776023701,0.08162523130727709
3.031135501567576,0.07428660008721089
3.150124795755327,0.06760021955713957
3.2737850959485697,0.06150888567034841
3.4022997656780634,0.05596031437965661
3.5358593665351745,0.05090674905942007
3.6746619407366854,0.04630457586880244
3.8189133047818515,0.04211397009142027
3.968827354637162,0.03829857878870283
4.1246263829013445,0.034825243451082115
4.286541408420921,0.031663697439199244
4.4548125188449825,0.02878630944552295
4.629689226627261,0.026167858504755403
4.811430839003257,0.0237853271089676
5.000306842491082,0.021617692574407526
5.196597302486189,0.019645758781221427
5.400593278542364,0.01785202597286161
5.612597255954967,0.01622054393501945
5.8329235942862,0.01473677616422969
6.06189899349756,0.013387478783226065
6.29986297838068,0.0121605981244243
6.547168402004727,0.011045151836187225
6.804181968927091,0.01003112953156644
7.071284778942991,0.009109408154763094
7.348872892180382,0.008271674472607137
7.637357916378006,0.007510349788627233
7.937167617217536,0.006818525578747189
8.248746552614573,0.006189911755260343
8.572556731909314,0.005618782348380865
8.909078300934132,0.005099925398879707
9.258810253973934,0.004628597331678285
9.622271173675122,0.0042004816205453615
9.999999999999984,0.0038116503374945065
