k [1/Mpc],P(k) [Mpc^3]
0.0001,4721.79606409162
0.00010392556829367125,4892.046373813655
0.00010800523745162529,5068.357266586714
0.00011224505680853065,5250.935386496676
0.00011665131316981963,5439.99353083037
0.00012123054013376525,5635.750232223644
0.00012598952777950273,5838.430473956097
0.00013093533273536104,6048.265096677628
0.00013607528864243335,6265.490940861473
0.00014141701702890234,6490.351331635773
0.00014696843861124463,6723.095075705283
0.00015273778503907136,6963.977422238742
0.00015873361110102093,7213.259447201774
0.00016496480740980205,7471.207646943951
0.0001714406135851971,7738.094834022148
0.00017817063195457305,8014.198123607909
0.00018516484179121546,8299.800037202967
0.000192433614111598,8595.188223624946
0.00019998772705352857,8900.654023599342
0.0002078383818579757,9216.494007796518
0.00021599721947827182,9543.007030062206
0.0002244763378413224,9880.494786629588
0.0002332883097864157,10229.262476160171
0.00024244620170823283,10589.616062372887
0.0002519635929317015,10961.86422279617
0.0002618545958474233,11346.314868676845
0.0002721338768375308,11743.274216682377
0.0002828166780230032,12153.048687227323
0.0002939188398646886,12575.940322930694
0.0003054568246515432,13012.248990821734
0.00031744774091091926,13462.269610788946
0.00032990936877709396,13926.289028720412
0.00034286018635565856,14404.589038697208
0.00035631939712285854,14897.44121477816
0.000370306958400514,15405.10790952883
0.00038484361094874304,15927.840871110164
0.0003999509097203664,16465.876123781643
0.00041565125582259895,17019.43706907879
0.00043196792973341727,17588.728579412415
0.0004489251258218605,18173.936231258638
0.0004665479882234472,18775.227225886047
0.000484862648123908,19392.744735961758
0.000503896262506515,20026.60963581319
0.0005236770544204653,20676.913334173485
0.0005442343548300266,21343.714008077084
0.0005655986461065005,22027.039809450267
0.0005878016072274912,22726.87918239614
0.0006108761607505036,23443.1835910864
0.0006348565216305217,24175.86039805231
0.0006597782479539537,24924.763229871634
0.0006856782936641739,25689.699780207175
0.0007125950633568407,26470.415900423224
0.0007405684692262436,27266.59819843984
0.0007696399902471156,28077.87171070873
0.0007998527336796708,28903.78166427789
0.000831251498989063,29743.807036875212
0.0008638828442740447,30597.344689925852
0.000897795155303332,31463.70707503324
0.0009330387172620361,32342.13140233128
0.0009696657893145519,33231.76922838287
0.001007730682094461,34131.69121540679
0.0010472898382363582,35040.875714466616
0.0010884019160690055,35958.20156950734
0.0011311278765939214,36882.45889547345
0.001175531073878369,37812.33311791793
0.0012216773489967915,38746.413230466635
0.0012696351276599736,39683.19990490383
0.0013194755216767058,40621.106827562755
0.0013712724343984,41558.457429922484
0.0014251026703029975,42493.449823792755
0.0014810460488806749,43424.168181476445
0.0015391855229902056,44348.66693471892
0.001599607301861487,45265.108674096315
0.0016624009789266115,46171.6309255821
0.0017276596646690358,47066.24099598661
0.0017954801246878305,47946.81280720527
0.0018659629231817451,48811.138101487995
0.001939212572065829,49656.83161011745
0.0020153376859417325,50481.41719877465
0.002094451143151469,51282.478599807364
0.002176670253153458,52057.73327241058
0.002262116930469025,52804.903819393716
0.002350917875457286,53521.732975723964
0.002443204762186487,54205.98365777219
0.0025391144336803463,54855.48323081973
0.002638789104828933,55468.19812819387
0.002742376573264949,56042.1609588244
0.0028500304385181063,56575.532811305406
0.0029619103297725525,57066.59880073857
0.0030781821425650787,57513.714186934056
0.003199018284775064,57915.284723544304
0.0033245979322709396,58269.802313351174
0.003455107294592217,58575.90035106298
0.0035907398910610534,58832.369289824186
0.0037316968377327513,59037.98629389984
0.0038781871456107214,59190.83469389117
0.0040304280305680515,59288.829713250074
0.00418864523543527,59331.36341526608
0.004353073364731888,59320.36335322495
0.00452395623253805,59257.7214070467
0.004701547224022131,59141.09196496255
0.004886109671160325,58965.74370543417
0.005077917243205399,58728.565826104714
0.005277254352483535,58430.63687581585
0.005484416576121017,58073.88770204039
0.005699711094326071,57660.30996579916
0.005923457145875801,57191.954636607785
0.006155986501483508,56670.699126024025
0.006397643955748424,56097.22046955139
0.0066487878384172625,55472.00481205104
0.0069097905457156435,54795.67514190703
0.007181039092537346,54068.97703445183
0.007462935686310132,53292.89705406162
0.007755898323389004,52468.92999499819
0.00806036140886134,51598.88381303704
0.008376776400682916,50684.78017735973
0.008705612479099857,49728.89268441185
0.009047357242349292,48733.60886198874
0.00940251742967013,47701.022209844996
0.009771619672696168,46633.0992151418
0.010155211276345676,45531.85102801579
0.010553861030365234,44399.07786682977
0.010968160052731372,43236.73223886084
0.011398722666160517,42047.531966227805
0.011846187309026826,40834.88702639136
0.012311217482038896,39602.111886502666
0.012794502732078732,38351.72073224862
0.013296759674662111,37086.09587589203
0.013818733056536317,35807.75352783658
0.014361196859990781,34519.31867475856
0.014924955450518284,33223.594970294434
0.015510844769528393,31923.904594842224
0.016119733573881575,30623.79105256051
0.01675252472408214,29326.614550406033
0.017410156523040152,28035.36102479122
0.018093604107387147,26753.011936961157
0.01880388089340914,25483.110162015262
0.019542040079740527,24229.47958404975
0.02030917620904734,22995.76164743494
0.021106426791015535,21785.552022401247
0.021934973989050584,20602.170969608673
0.02279604637318978,19449.173687415107
0.023690920741826323,18330.290567095883
0.02462092401494623,17248.701953522333
0.02558743520168586,16207.325758138355
0.02659188744512693,15208.535924537922
0.027635770147361564,14254.991445987698
0.028720631177978267,13350.137086281866
0.029848079169243254,12496.3472238164
0.03101978590138095,11694.380117448183
0.03223748878149028,10943.934333397054
0.0335029934197723,10243.717888046987
0.03481817630688963,9590.904405295261
0.03618498759642746,8982.630704308625
0.037605453996581675,8417.738340173113
0.03908168177536263,7896.157661984036
0.04061585988376978,7416.69816844758
0.04221026320156896,6975.152826895418
0.04386725591048496,6566.997513059028
0.0455892949998106,6186.38938024639
0.047378933909631396,5825.935372710405
0.049238826317067365,5479.814112048977
0.05117173007114603,5145.790855110968
0.05318051128214196,4823.132931856348
0.05526814857144601,4509.8143622004945
0.057437737488265785,4201.415130821434
0.0596924950997073,3895.0201289560764
0.0620357647610427,3594.7704116597324
0.06447102107323864,3307.804168241643
0.06700187503509585,3038.135358604952
0.06963207939763882,2784.6013385472484
0.0723655342286965,2545.8946402916363
0.07520629269592405,2326.9944746967735
0.07815856707684081,2135.383734951376
0.08122673500479707,1971.4126153527868
0.08441534596012978,1828.2454127334759
0.0877291280161335,1701.359078334655
0.09117299484984914,1589.6395999046833
0.09475205302806537,1488.8915311588432
0.09847160957933764,1390.8344215092397
0.1023371798632519,1293.3858610232862
0.10635449574860109,1198.6390951379135
0.11052951411260206,1105.592376562966
0.1148684256737553,1013.1149079324911
0.1193776641714435,922.3113931413748
0.1240639159058831,840.4940500121552
0.12893412965257148,769.7221300133456
0.13399552696593373,706.047792336375
0.1392556128874462,650.6975153924155
0.14472218707411338,601.6503455187147
0.15040335536380234,555.8491363977724
0.15630754179458153,511.4748011215077
0.16244350109588662,468.62741960523596
0.16882033167003618,428.709836134777
0.17544748908334581,392.3600465228101
0.1823348000868439,358.84408284604945
0.189492477187382,329.01058179795365
0.19693113379074215,301.90140670993156
0.20466179993919872,276.5541359240891
0.21269593866686892,253.12760207201816
0.22104546299710207,231.37320802157038
0.22972275360711503,211.5821276617091
0.23874067718606454,193.4606224337896
0.2481126055137766,176.87300543110166
0.25785243528842716,161.6655725278747
0.26797460873256895,147.64598564082345
0.27849413500806414,134.8411353787272
0.28942661247167484,123.0984945142402
0.3007882518043098,112.36129132740908
0.31259590004822796,102.52835125583745
0.324867065587837,93.52369433193853
0.3376199441111335,85.28514327168195
0.35087344559027084,77.7531097856603
0.36464722232127456,70.86359784056894
0.37896169806447155,64.5648845189241
0.3938380983288488,58.811398394782664
0.4092984818452433,53.55141897887678
0.4253657732750382,48.74857484266731
0.44206379720285277,44.365349827853294
0.45941731346364734,40.36283027672837
0.47745205385661277,36.71499524477095
0.4961947603002895,33.387756150356175
0.5156732244854959,30.35811379192254
0.5359163290848509,27.59726053915985
0.556954090580013,25.083579064457407
0.5788177037701272,22.79539371789809
0.6015395880274836,20.71155510270034
0.6251534353689703,18.813810632761463
0.6496942604146115,17.08566363953602
0.6751984523072497,15.512118295038068
0.7017038286703824,14.07970744775128
0.7292496916841444,12.776297376695487
0.7578768863625915,11.591134613340444
0.7876278611187046,10.514600826058976
0.8185467307069019,9.536631430981313
0.850679341636415,8.648622831893832
0.8840733401525058,7.842063752235137
0.9187782428863317,7.109089186328423
0.9548455102782278,6.443033833656731
0.9923286228832539,5.838177179187911
1.0312831606721837,5.289251182260085
1.0717668854455022,4.7911639047476875
1.1138398264826193,4.339273057592218
1.1575643695533022,3.9293548101935754
1.2030053494233226,3.5575664996713683
1.2502301459914542,3.220414743468371
1.299308784200415,2.9147332223846436
1.3503140378698726,2.6376424698174272
1.4033215376054824,2.386519791747934
1.4584098829439835,2.1589771109659517
1.5156607589006013,1.9528406464719716
1.575159057091621,1.766131160921073
1.6369930016117014,1.5970458805970298
1.7012542798525885,1.443945929850616
1.7680381784572046,1.305342182863103
1.8374437246107238,1.1798818594231237
1.9095738328780953,1.066336270971344
1.9845354578058014,0.9635891531123101
2.0624397525140905,0.8706266808217286
2.143402233514853,0.7865288587982259
2.227542951999554,0.7104610015723178
2.314986671851158,0.6416659419751176
2.405863054644063,0.5794570042362851
2.5003068519063225,0.5232119639163206
2.598458104929248,0.47236671491833493
2.7004623524206774,0.4264096594532785
2.806470846309834,0.38487691114467204
2.916640776023701,0.3473479285041405
3.031135501567576,0.3134415711824563
3.150124795755327,0.2828125355636865
3.2737850959485697,0.2551479452334057
3.4022997656780634,0.23016433953889437
3.5358593665351745,0.20760495933184878
3.6746619407366854,0.18723727304252993
3.8189133047818515,0.1688505213589411
3.968827354637162,0.15225368560762162
4.1246263829013445,0.13727399113540573
4.286541408420921,0.12375520461084115
4.4548125188449825,0.11155606277399253
4.629689226627261,0.10054886724972897
4.811430839003257,0.09061837275473875
5.000306842491082,0.0816604636013811
5.196597302486189,0.07358094704248318
5.400593278542364,0.06629462228217933
5.612597255954967,0.059724437503740645
5.8329235942862,0.05380069683180269
6.06189899349756,0.04846028687018908
6.29986297838068,0.04364617434050821
6.547168402004727,0.03930686279634012
6.804181968927091,0.03539585886935596
7.071284778942991,0.031871189835472324
7.348872892180382,0.028694993542720298
7.637357916378006,0.025833134168942087
7.937167617217536,0.023254786578680745
8.248746552614573,0.02093211362330691
8.572556731909314,0.018839980637375717
8.909078300934132,0.016955695520071715
9.258810253973934,0.015258755051970625
9.622271173675122,0.013730644923296169
9.999999999999984,0.012354668660605504
