k [1/Mpc],P(k) [Mpc^3]
0.0001,888.3522687656465
0.00010392556829367125,917.8994181926444
0.00010800523745162529,948.4285767371725
0.00011224505680853065,979.9722738442397
0.00011665131316981963,1012.5641285306228
0.00012123054013376525,1046.2388910141217
0.00012598952777950273,1081.032458412519
0.00013093533273536104,1116.9818980055431
0.00013607528864243335,1154.1254929410431
0.00014141701702890234,1192.5027461042864
0.00014696843861124463,1232.1543782463655
0.00015273778503907136,1273.1224352681154
0.00015873361110102093,1315.4503904359156
0.00016496480740980205,1359.1831748573727
0.0001714406135851971,1404.3671816733504
0.00017817063195457305,1451.0502886633449
0.00018516484179121546,1499.281927284757
0.000192433614111598,1549.1130630408124
0.00019998772705352857,1600.5962393999594
0.0002078383818579757,1653.7857043841739
0.00021599721947827182,1708.7375105445064
0.0002244763378413224,1765.509538473213
0.0002332883097864157,1824.1614620545865
0.00024244620170823283,1884.7547588146886
0.0002519635929317015,1947.3528584724804
0.0002618545958474233,2012.021181082836
0.0002721338768375308,2078.8272121508194
0.0002828166780230032,2147.840532078929
0.0002939188398646886,2219.1328108014945
0.0003054568246515432,2292.7779545696517
0.00031744774091091926,2368.8521544271566
0.00032990936877709396,2447.4339590166082
0.00034286018635565856,2528.6042664994875
0.00035631939712285854,2612.446109430469
0.000370306958400514,2699.0449687928344
0.00038484361094874304,2788.4889922064144
0.0003999509097203664,2880.8690875833095
0.00041565125582259895,2976.2788440363047
0.00043196792973341727,3074.814169781866
0.0004489251258218605,3176.5736174426884
0.0004665479882234472,3281.6585292379186
0.000484862648123908,3390.1730220147333
0.000503896262506515,3502.2241659501274
0.0005236770544204653,3617.921826063365
0.0005442343548300266,3737.3788093957146
0.0005655986461065005,3860.7108786424815
0.0005878016072274912,3988.0364393530276
0.0006108761607505036,4119.476980381804
0.0006348565216305217,4255.15695372074
0.0006597782479539537,4395.203824458975
0.0006856782936641739,4539.748169693565
0.0007125950633568407,4688.923080811818
0.0007405684692262436,4842.8646892386605
0.0007696399902471156,5001.7121916633305
0.0007998527336796708,5165.607769133364
0.000831251498989063,5334.696747844865
0.0008638828442740447,5509.126739361559
0.000897795155303332,5689.048088454687
0.0009330387172620361,5874.613875718762
0.0009696657893145519,6065.97936412873
0.001007730682094461,6263.302617802991
0.0010472898382363582,6466.743663033924
0.0010884019160690055,6676.46461867445
0.0011311278765939214,6892.629844683958
0.001175531073878369,7115.40478357212
0.0012216773489967915,7344.956817782103
0.0012696351276599736,7581.453884587465
0.0013194755216767058,7825.064000680385
0.0013712724343984,8075.956185242127
0.0014251026703029975,8334.298214273334
0.0014810460488806749,8600.257770538972
0.0015391855229902056,8874.001461587473
0.001599607301861487,9155.693278893901
0.0016624009789266115,9445.496190653474
0.0017276596646690358,9743.569643482702
0.0017954801246878305,10050.070090845586
0.0018659629231817451,10365.150173642007
0.001939212572065829,10688.955154819958
0.0020153376859417325,11021.625739190398
0.002094451143151469,11363.29564970648
0.002176670253153458,11714.091154407764
0.002262116930469025,12074.13120154656
0.002350917875457286,12443.522200839798
0.002443204762186487,12822.360924025414
0.0025391144336803463,13210.73211309434
0.002638789104828933,13608.706335014866
0.002742376573264949,14016.341849733393
0.0028500304385181063,14433.678922207804
0.0029619103297725525,14860.741594406987
0.0030781821425650787,15297.53637634232
0.003199018284775064,15744.048179301773
0.0033245979322709396,16200.243174301064
0.003455107294592217,16666.063674457502
0.0035907398910610534,17141.42818470844
0.0037316968377327513,17626.230539700264
0.0038781871456107214,18120.332112011176
0.0040304280305680515,18623.566928569795
0.00418864523543527,19135.737247104174
0.004353073364731888,19656.61168798712
0.00452395623253805,20185.926298456932
0.004701547224022131,20723.372675230366
0.004886109671160325,21268.604301670675
0.005077917243205399,21821.233871878318
0.005277254352483535,22380.828326509512
0.005484416576121017,22946.91370521746
0.005699711094326071,23518.96195492955
0.005923457145875801,24096.395609988842
0.006155986501483508,24678.588589533367
0.006397643955748424,25264.85701736874
0.0066487878384172625,25854.46637089532
0.0069097905457156435,26446.590838206434
0.007181039092537346,27040.31749070922
0.007462935686310132,27634.70130977326
0.007755898323389004,28228.836713701072
0.00806036140886134,28821.79222784893
0.008376776400682916,29412.391578490435
0.008705612479099857,29999.14781035348
0.009047357242349292,30580.510206819872
0.00940251742967013,31155.028179366327
0.009771619672696168,31721.265878900802
0.010155211276345676,32277.729184118543
0.010553861030365234,32822.85698735662
0.010968160052731372,33355.03128704093
0.011398722666160517,33872.43682309414
0.011846187309026826,34373.11600853692
0.012311217482038896,34855.03782731436
0.012794502732078732,35316.03754699683
0.013296759674662111,35753.900372916774
0.013818733056536317,36166.318218598266
0.014361196859990781,36550.90072351018
0.014924955450518284,36905.227923092556
0.015510844769528393,37226.75214360913
0.016119733573881575,37512.90834469839
0.01675252472408214,37761.06896729559
0.017410156523040152,37968.50876128278
0.018093604107387147,38132.54973578278
0.01880388089340914,38250.4221534092
0.019542040079740527,38319.392642219645
0.02030917620904734,38336.80833932298
0.021106426791015535,38300.019927387555
0.021934973989050584,38206.57189853801
0.02279604637318978,38054.10975781142
0.023690920741826323,37840.46149124489
0.02462092401494623,37563.76213930083
0.02558743520168586,37222.3879521783
0.02659188744512693,36815.11414611745
0.027635770147361564,36341.16708765547
0.028720631177978267,35800.25549829667
0.029848079169243254,35192.653069520544
0.03101978590138095,34519.36940551182
0.03223748878149028,33782.04091826105
0.0335029934197723,32983.13144115937
0.03481817630688963,32126.10173421214
0.03618498759642746,31215.001025325615
0.037605453996581675,30255.154454542695
0.03908168177536263,29252.637476345735
0.04061585988376978,28214.24259453125
0.04221026320156896,27148.334207092175
0.04386725591048496,26063.26979829958
0.0455892949998106,24968.36826467748
0.047378933909631396,23873.415485002766
0.049238826317067365,22787.911715866707
0.05117173007114603,21723.364386653884
0.05318051128214196,20690.340736773127
0.05526814857144601,19697.137263145447
0.057437737488265785,18749.88049888806
0.0596924950997073,17854.07614797534
0.0620357647610427,17019.698006139683
0.06447102107323864,16257.012374279097
0.06700187503509585,15569.643442151746
0.06963207939763882,14953.30236424261
0.0723655342286965,14402.914604789292
0.07520629269592405,13912.015868281953
0.07815856707684081,13473.52061752245
0.08122673500479707,13076.906625924215
0.08441534596012978,12710.965611787618
0.0877291280161335,12363.08990280712
0.09117299484984914,12018.57688906819
0.09475205302806537,11658.911178367927
0.09847160957933764,11265.094368216274
0.1023371798632519,10820.372280912714
0.10635449574860109,10315.359985536403
0.11052951411260206,9749.95518187883
0.1148684256737553,9133.50116807021
0.1193776641714435,8483.46290839349
0.1240639159058831,7821.975771319418
0.12893412965257148,7174.064143140762
0.13399552696593373,6564.648729662059
0.1392556128874462,6018.219014769884
0.14472218707411338,5554.195018705266
0.15040335536380234,5183.2365031687505
0.15630754179458153,4903.930258354144
0.16244350109588662,4701.427272076942
0.16882033167003618,4550.022107886626
0.17544748908334581,4416.963350381082
0.1823348000868439,4268.12282737716
0.189492477187382,4075.893931249837
0.19693113379074215,3826.884049473135
0.20466179993919872,3525.6926865660203
0.21269593866686892,3194.6962145193856
0.22104546299710207,2870.2734992692044
0.22972275360711503,2591.028363200208
0.23874067718606454,2380.288532385486
0.2481126055137766,2237.8515084890946
0.25785243528842716,2144.89262575107
0.26797460873256895,2069.392650463747
0.27849413500806414,1974.752494742947
0.28942661247167484,1840.0597303210097
0.3007882518043098,1672.1960898161387
0.31259590004822796,1499.4496039041971
0.324867065587837,1354.4701420172958
0.3376199441111335,1253.319446335517
0.35087344559027084,1187.8955745560854
0.36464722232127456,1131.1519787001753
0.37896169806447155,1057.4763214197778
0.3938380983288488,963.886928731448
0.4092984818452433,868.2469620927793
0.4253657732750382,792.3974187715174
0.44206379720285277,739.8959575641779
0.45941731346364734,695.6627996932665
0.47745205385661277,643.6806927597707
0.4961947603002895,584.7742593252442
0.5156732244854959,532.2088518511987
0.5359163290848509,492.42182758110494
0.556954090580013,458.03826541942965
0.5788177037701272,420.6931814297684
0.6015395880274836,383.08082544525803
0.6251534353689703,351.6143603767119
0.6496942604146115,324.8579041443342
0.6751984523072497,298.0413092203646
0.7017038286703824,272.12275167407836
0.7292496916841444,249.7610688540057
0.7578768863625915,229.4252015922267
0.7876278611187046,209.74004912089137
0.8185467307069019,191.94253251745212
0.850679341636415,175.90966014562167
0.8840733401525058,160.82009847368138
0.9187782428863317,146.96882603282535
0.9548455102782278,134.31188236702704
0.9923286228832539,122.73583239876164
1.0312831606721837,112.13861464327022
1.0717668854455022,102.42949460194941
1.1138398264826193,93.52765681461169
1.1575643695533022,85.36139638143696
1.2030053494233226,77.87203209643737
1.2502301459914542,71.00936249144058
1.299308784200415,64.72618104693768
1.3503140378698726,58.97809945961962
1.4033215376054824,53.72348023533909
1.4584098829439835,48.92320469221422
1.5156607589006013,44.53966145497707
1.575159057091621,40.53766022285659
1.6369930016117014,36.88490402465019
1.7012542798525885,33.55176032558922
1.7680381784572046,30.5110460801785
1.8374437246107238,27.737869708851388
1.9095738328780953,25.209572452759407
1.9845354578058014,22.905370335934883
2.0624397525140905,20.806149175853545
2.143402233514853,18.89434067525511
2.227542951999554,17.15380662152444
2.314986671851158,15.569717735571343
2.405863054644063,14.128435055648158
2.5003068519063225,12.817457763284043
2.598458104929248,11.625340165628113
2.7004623524206774,10.541606658296294
2.806470846309834,9.556673153043267
2.916640776023701,8.661776026865281
3.031135501567576,7.848905645928422
3.150124795755327,7.110741262533875
3.2737850959485697,6.4405939707357
3.4022997656780634,5.832354459647369
3.5358593665351745,5.2804447975752975
3.6746619407366854,4.779772528106788
3.8189133047818515,4.325690236195052
3.968827354637162,3.9139601400345883
4.1246263829013445,3.5407193517054787
4.286541408420921,3.20244783291059
4.4548125188449825,2.8959389611548128
4.629689226627261,2.6182723710580773
4.811430839003257,2.366789297960604
5.000306842491082,2.1390700180830664
5.196597302486189,1.9329130091900792
5.400593278542364,1.7463158559747765
5.612597255954967,1.577457707586346
5.8329235942862,1.4246829004388177
6.06189899349756,1.2864867262098074
6.29986297838068,1.1615022823284267
6.547168402004727,1.0484881712900047
6.804181968927091,0.9463172625195265
7.071284778942991,0.8539664222010483
7.348872892180382,0.7705071187388021
7.637357916378006,0.6950969163234715
7.937167617217536,0.6269716884853475
8.248746552614573,0.5654385024008481
8.572556731909314,0.509869132301487
8.909078300934132,0.4596940699102454
9.258810253973934,0.414397023766
9.622271173675122,0.3735102802865804
9.999999999999984,0.33661026655000853
