k [1/Mpc],P(k) [Mpc^3]
0.0001,625.1593854525474
0.00010392556829367125,649.6588366671504
0.00010800523745162529,675.1150191987634
0.00011224505680853065,701.5649281009654
0.00011665131316981963,729.0468259634813
0.00012123054013376525,757.6003802501787
0.00012598952777950273,787.2667791868874
0.00013093533273536104,818.088799313504
0.00013607528864243335,850.1108041032749
0.00014141701702890234,883.3786733407867
0.00014696843861124463,917.9399250632138
0.00015273778503907136,953.84382152137
0.00015873361110102093,991.1414252600507
0.00016496480740980205,1029.8856516776539
0.0001714406135851971,1070.1311489298414
0.00017817063195457305,1111.934395195413
0.00018516484179121546,1155.35388079055
0.000192433614111598,1200.4501862037412
0.00019998772705352857,1247.2860310512247
0.0002078383818579757,1295.9261120118572
0.00021599721947827182,1346.4371095274646
0.0002244763378413224,1398.8879380929473
0.0002332883097864157,1453.3496873412926
0.00024244620170823283,1509.8957632073545
0.0002519635929317015,1568.6018612687633
0.0002618545958474233,1629.5458933481148
0.0002721338768375308,1692.8082074623062
0.0002828166780230032,1758.4712869756017
0.0002939188398646886,1826.6199067918753
0.0003054568246515432,1897.3412897808769
0.00031744774091091926,1970.724908364921
0.00032990936877709396,2046.8627451572413
0.00034286018635565856,2125.848980036024
0.00035631939712285854,2207.7799624425415
0.000370306958400514,2292.7544623065082
0.00038484361094874304,2380.8731336505043
0.0003999509097203664,2472.2388849064423
0.00041565125582259895,2566.956718187915
0.00043196792973341727,2665.1334422715886
0.0004489251258218605,2766.8780356319016
0.0004665479882234472,2872.300978550926
0.000484862648123908,2981.514444290111
0.000503896262506515,3094.6322876752324
0.0005236770544204653,3211.769389196524
0.0005442343548300266,3333.0421321121958
0.0005655986461065005,3458.5676174675664
0.0005878016072274912,3588.463509574243
0.0006108761607505036,3722.848282110956
0.0006348565216305217,3861.840083944432
0.0006597782479539537,4005.55724868702
0.0006856782936641739,4154.117629710545
0.0007125950633568407,4307.637896762165
0.0007405684692262436,4466.2339568296275
0.0007696399902471156,4630.01888095756
0.0007998527336796708,4799.1033628548785
0.000831251498989063,4973.5953339487505
0.0008638828442740447,5153.598109585485
0.000897795155303332,5339.211465475508
0.0009330387172620361,5530.528766012909
0.0009696657893145519,5727.636618635948
0.001007730682094461,5930.615518808471
0.0010472898382363582,6139.536661037357
0.0010884019160690055,6354.463322776877
0.0011311278765939214,6575.44841004613
0.001175531073878369,6802.532569352908
0.0012216773489967915,7035.745947653849
0.0012696351276599736,7275.105606551921
0.0013194755216767058,7520.6156953138525
0.0013712724343984,7772.264959063284
0.0014251026703029975,8030.022534806005
0.0014810460488806749,8293.841176259231
0.0015391855229902056,8563.656107602128
0.001599607301861487,8839.384246565014
0.0016624009789266115,9120.923814502765
0.0017276596646690358,9408.15323218597
0.0017954801246878305,9700.930187181815
0.0018659629231817451,9999.08344190833
0.001939212572065829,10302.409621958293
0.0020153376859417325,10610.680116610834
0.002094451143151469,10923.642172034733
0.002176670253153458,11241.017315405154
0.002262116930469025,11562.499796572658
0.002350917875457286,11887.755682563637
0.002443204762186487,12216.422502867183
0.0025391144336803463,12548.105791673903
0.002638789104828933,12882.379563049575
0.002742376573264949,13218.788384641924
0.0028500304385181063,13556.84810462639
0.0029619103297725525,13896.04524013738
0.0030781821425650787,14235.83779470727
0.003199018284775064,14575.655787105476
0.0033245979322709396,14914.901903280694
0.003455107294592217,15252.956145359374
0.0035907398910610534,15589.17416026025
0.0037316968377327513,15922.888737417266
0.0038781871456107214,16253.41268414553
0.0040304280305680515,16580.03948544376
0.00418864523543527,16902.06263652483
0.004353073364731888,17218.770873124453
0.00452395623253805,17529.405993589717
0.004701547224022131,17833.098785371014
0.004886109671160325,18128.956244468853
0.005077917243205399,18416.313628005846
0.005277254352483535,18694.742483331785
0.005484416576121017,18963.693002599557
0.005699711094326071,19221.879573988557
0.005923457145875801,19467.7643677039
0.006155986501483508,19700.134738318586
0.006397643955748424,19918.322710474975
0.0066487878384172625,20121.73296994284
0.0069097905457156435,20309.806529313097
0.007181039092537346,20482.020135873423
0.007462935686310132,20637.799696266906
0.007755898323389004,20776.38584053442
0.00806036140886134,20897.015388260377
0.008376776400682916,20998.933082028692
0.008705612479099857,21081.400229422787
0.009047357242349292,21143.733047430695
0.00940251742967013,21185.341910474755
0.009771619672696168,21205.70575221238
0.010155211276345676,21204.361414118714
0.010553861030365234,21180.906602515188
0.010968160052731372,21135.006099606228
0.011398722666160517,21066.378129698405
0.011846187309026826,20974.809092741274
0.012311217482038896,20860.12713991309
0.012794502732078732,20722.155975872563
0.013296759674662111,20560.799273101737
0.013818733056536317,20376.0684119507
0.014361196859990781,20168.082203936377
0.014924955450518284,19937.05650609103
0.015510844769528393,19683.296373286477
0.016119733573881575,19407.20674902435
0.01675252472408214,19109.28175175577
0.017410156523040152,18790.10180048488
0.018093604107387147,18450.358515125277
0.01880388089340914,18090.899221443487
0.019542040079740527,17712.688101309403
0.02030917620904734,17316.802217458535
0.021106426791015535,16904.448293763195
0.021934973989050584,16476.92034762796
0.02279604637318978,16035.723091754431
0.023690920741826323,15582.49807151507
0.02462092401494623,15118.958651697598
0.02558743520168586,14647.004115692418
0.02659188744512693,14168.542473256171
0.027635770147361564,13685.639272291886
0.028720631177978267,13200.49635664429
0.029848079169243254,12715.203574044508
0.03101978590138095,12231.786153339595
0.03223748878149028,11752.137269462397
0.0335029934197723,11278.38619123876
0.03481817630688963,10813.144422296802
0.03618498759642746,10358.675941253201
0.037605453996581675,9916.219146737061
0.03908168177536263,9486.397703690342
0.04061585988376978,9069.573394972169
0.04221026320156896,8665.620569606483
0.04386725591048496,8274.355783600102
0.0455892949998106,7896.177533993185
0.047378933909631396,7531.94124596116
0.049238826317067365,7182.029981244072
0.05117173007114603,6845.192898758063
0.05318051128214196,6519.855454265368
0.05526814857144601,6204.2804814112815
0.057437737488265785,5896.39697756769
0.0596924950997073,5594.634756647673
0.0620357647610427,5299.169868387717
0.06447102107323864,5010.953133513494
0.06700187503509585,4730.319567093247
0.06963207939763882,4456.310349178352
0.0723655342286965,4188.219713461663
0.07520629269592405,3928.9188144906593
0.07815856707684081,3683.5252266144767
0.08122673500479707,3454.7556108296553
0.08441534596012978,3240.6381053445807
0.0877291280161335,3039.153443204629
0.09117299484984914,2851.673025965359
0.09475205302806537,2679.9725578299262
0.09847160957933764,2521.3806571523855
0.1023371798632519,2371.9122497211097
0.10635449574860109,2230.4582683989192
0.11052951411260206,2096.1483280649873
0.1148684256737553,1965.138422121269
0.1193776641714435,1835.5829000789195
0.1240639159058831,1709.1340388386009
0.12893412965257148,1589.451473925703
0.13399552696593373,1478.1969610474725
0.1392556128874462,1373.4345826083409
0.14472218707411338,1275.9158427190048
0.15040335536380234,1187.2567991684496
0.15630754179458153,1106.7163765613395
0.16244350109588662,1030.4860472786388
0.16882033167003618,958.3946422932895
0.17544748908334581,890.4144811627431
0.1823348000868439,825.4468141613482
0.189492477187382,764.2839283425815
0.19693113379074215,707.6347287866446
0.20466179993919872,655.48333518976
0.21269593866686892,607.145105750249
0.22104546299710207,561.9449049879388
0.22972275360711503,519.8051149695962
0.23874067718606454,480.4952692747143
0.2481126055137766,443.7694352977391
0.25785243528842716,409.85235182515163
0.26797460873256895,378.36152028936095
0.27849413500806414,349.1682107834247
0.28942661247167484,322.0213933393498
0.3007882518043098,296.8738450426394
0.31259590004822796,273.5778423396098
0.324867065587837,252.00659024574503
0.3376199441111335,232.0446388829924
0.35087344559027084,213.5684313030987
0.36464722232127456,196.4820169044128
0.37896169806447155,180.694449454312
0.3938380983288488,166.10443662458346
0.4092984818452433,152.62989344603704
0.4253657732750382,140.19222939744893
0.44206379720285277,128.71778746066772
0.45941731346364734,118.13860613270484
0.47745205385661277,108.39018678586318
0.4961947603002895,99.41299696641522
0.5156732244854959,91.15110016848561
0.5359163290848509,83.55142654369516
0.556954090580013,76.56294249865117
0.5788177037701272,70.14218593285358
0.6015395880274836,64.23991046309456
0.6251534353689703,58.81699165092808
0.6496942604146115,53.83519298922924
0.6751984523072497,49.25806770104186
0.7017038286703824,45.05518217076812
0.7292496916841444,41.19747334262489
0.7578768863625915,37.658571891523195
0.7876278611187046,34.4144816055603
0.8185467307069019,31.442597964378837
0.850679341636415,28.721168432405726
0.8840733401525058,26.229481449690514
0.9187782428863317,23.948050069766555
0.9548455102782278,21.85871089411554
0.9923286228832539,19.945576095759957
1.0312831606721837,18.19501981990332
1.0717668854455022,16.59400767535449
1.1138398264826193,15.130664647969438
1.1575643695533022,13.793473584779612
1.2030053494233226,12.571776964128766
1.2502301459914542,11.45580260743602
1.299308784200415,10.436591039807675
1.3503140378698726,9.505932752538227
1.4033215376054824,8.65634956266949
1.4584098829439835,7.881004350216982
1.5156607589006013,7.173611855308028
1.575159057091621,6.52839615684842
1.6369930016117014,5.940051873431941
1.7012542798525885,5.403702474334204
1.7680381784572046,4.914859242252399
1.8374437246107238,4.469407655024155
1.9095738328780953,4.063580290143833
1.9845354578058014,3.693928446916431
2.0624397525140905,3.3572960548452424
2.143402233514853,3.0507963323124407
2.227542951999554,2.7717891299324595
2.314986671851158,2.517859777923495
2.405863054644063,2.2868003989927677
2.5003068519063225,2.0765927325716653
2.598458104929248,1.885392593865348
2.7004623524206774,1.711515826623817
2.806470846309834,1.5534239787889064
2.916640776023701,1.4097118783423996
3.031135501567576,1.2790964384835048
3.150124795755327,1.1604063602281252
3.2737850959485697,1.0525725504184256
3.4022997656780634,0.9546195012745321
3.5358593665351745,0.8656574637858399
3.6746619407366854,0.7848751140304092
3.8189133047818515,0.7115328203191125
3.968827354637162,0.6449562172859208
4.1246263829013445,0.5845299154198063
4.286541408420921,0.5296934029593845
4.4548125188449825,0.4799365195643757
4.629689226627261,0.4347950022800175
4.811430839003257,0.3938464400718262
5.000306842491082,0.35670710317136245
5.196597302486189,0.3230283646537855
5.400593278542364,0.29249287219384484
5.612597255954967,0.2648117809517512
5.8329235942862,0.23972225976687864
6.06189899349756,0.216985094022602
6.29986297838068,0.19638222172141784
6.547168402004727,0.17771539205656936
6.804181968927091,0.1608045752960765
7.071284778942991,0.14548630597054066
7.348872892180382,0.13161217943992135
7.637357916378006,0.11904764364775706
7.937167617217536,0.10767072384085123
8.248746552614573,0.09737062884046868
8.572556731909314,0.0880467311211696
8.909078300934132,0.07960765393262742
9.258810253973934,0.07197041170380476
9.622271173675122,0.0650595374426374
9.999999999999984,0.058806542217487386
