k [1/Mpc],P(k) [Mpc^3]
0.0001,334.00824501441093
0.00010392556829367125,348.11260954683354
0.00010800523745162529,362.811634925727
0.00011224505680853065,378.1302720892462
0.00011665131316981963,394.09450863430806
0.00012123054013376525,410.73140872016216
0.00012598952777950273,428.069158798103
0.00013093533273536104,446.1371066687917
0.00013607528864243335,464.9657955100433
0.00014141701702890234,484.58702628600673
0.00014696843861124463,505.0338846648303
0.00015273778503907136,526.3407952675926
0.00015873361110102093,548.5435960312641
0.00016496480740980205,571.6795990325
0.0001714406135851971,595.7876453460368
0.00017817063195457305,620.9081251647845
0.00018516484179121546,647.0830244274626
0.000192433614111598,674.3560210060567
0.00019998772705352857,702.772505204853
0.0002078383818579757,732.3796724310805
0.00021599721947827182,763.2265943098392
0.0002244763378413224,795.3642706215401
0.0002332883097864157,828.8457237208108
0.00024244620170823283,863.7260038501095
0.0002519635929317015,900.0622833889366
0.0002618545958474233,937.913931939902
0.0002721338768375308,977.3424849993875
0.0002828166780230032,1018.4118259986212
0.0002939188398646886,1061.1882562725777
0.0003054568246515432,1105.7405740153993
0.00031744774091091926,1152.1401496255696
0.00032990936877709396,1200.4608087474867
0.00034286018635565856,1250.7790486166116
0.00035631939712285854,1303.1741129576121
0.000370306958400514,1357.7280188169552
0.00038484361094874304,1414.5257111547055
0.0003999509097203664,1473.6548511267338
0.00041565125582259895,1535.2060128833095
0.00043196792973341727,1599.2728586602648
0.0004489251258218605,1665.9521144412122
0.0004665479882234472,1735.3437471422556
0.000484862648123908,1807.5506999748977
0.000503896262506515,1882.6789751724025
0.0005236770544204653,1960.8378941539343
0.0005442343548300266,2042.139902033283
0.0005655986461065005,2126.7008261156507
0.0005878016072274912,2214.639668614395
0.0006108761607505036,2306.0784992529493
0.0006348565216305217,2401.142791569354
0.0006597782479539537,2499.9610421684933
0.0006856782936641739,2602.6650101089144
0.0007125950633568407,2709.389563877437
0.0007405684692262436,2820.2722537932764
0.0007696399902471156,2935.4537976372803
0.0007998527336796708,3055.07754140393
0.000831251498989063,3179.2895316047616
0.0008638828442740447,3308.238431642143
0.000897795155303332,3442.0744552389096
0.0009330387172620361,3580.9500969352302
0.0009696657893145519,3725.01914907333
0.001007730682094461,3874.4363062727407
0.0010472898382363582,4029.357670710316
0.0010884019160690055,4189.93911918223
0.0011311278765939214,4356.336934205061
0.001175531073878369,4528.706593172402
0.0012216773489967915,4707.201240557476
0.0012696351276599736,4891.9729917674995
0.0013194755216767058,5083.170756535149
0.0013712724343984,5280.940434861411
0.0014251026703029975,5485.424353686232
0.0014810460488806749,5696.758717307824
0.0015391855229902056,5915.075006725339
0.001599607301861487,6140.498610277027
0.0016624009789266115,6373.14811782999
0.0017276596646690358,6613.134373612094
0.0017954801246878305,6860.555779568502
0.0018659629231817451,7115.500274828781
0.001939212572065829,7378.043781397277
0.0020153376859417325,7648.24830874179
0.002094451143151469,7926.162647899054
0.002176670253153458,8211.819248957894
0.002262116930469025,8505.234184518991
0.002350917875457286,8806.405424636729
0.002443204762186487,9115.309598790318
0.0025391144336803463,9431.903173649982
0.002638789104828933,9756.118617075976
0.002742376573264949,10087.863678206582
0.0028500304385181063,10427.021056051255
0.0029619103297725525,10773.44429817953
0.0030781821425650787,11126.959048651506
0.003199018284775064,11487.360438784515
0.0033245979322709396,11854.411378057293
0.003455107294592217,12227.842722616171
0.0035907398910610534,12607.348421739587
0.0037316968377327513,12992.586844880992
0.0038781871456107214,13383.177861887216
0.0040304280305680515,13778.698963959197
0.00418864523543527,14178.688542918113
0.004353073364731888,14582.638158430187
0.00452395623253805,14989.99464049607
0.004701547224022131,15400.163240853257
0.004886109671160325,15812.505880662953
0.005077917243205399,16226.340282113933
0.005277254352483535,16640.88969689053
0.005484416576121017,17055.28265909915
0.005699711094326071,17468.63375483623
0.005923457145875801,17880.18648004789
0.006155986501483508,18289.201106220367
0.006397643955748424,18694.63237559113
0.0066487878384172625,19094.986739615175
0.0069097905457156435,19488.704606496787
0.007181039092537346,19874.468219369213
0.007462935686310132,20251.06641521806
0.007755898323389004,20617.250355753626
0.00806036140886134,20971.719417741733
0.008376776400682916,21313.137486070445
0.008705612479099857,21639.95613766915
0.009047357242349292,21950.461121172953
0.00940251742967013,22242.8918790587
0.009771619672696168,22515.38286995104
0.010155211276345676,22766.043641160428
0.010553861030365234,22992.89651613105
0.010968160052731372,23193.872564134097
0.011398722666160517,23366.91492706256
0.011846187309026826,23509.8997744602
0.012311217482038896,23620.73101473107
0.012794502732078732,23697.255977261702
0.013296759674662111,23737.16471759213
0.013818733056536317,23738.239204361955
0.014361196859990781,23698.13564536946
0.014924955450518284,23614.547070675206
0.015510844769528393,23485.316602840558
0.016119733573881575,23308.273797884485
0.01675252472408214,23081.53931626588
0.017410156523040152,22803.25765330123
0.018093604107387147,22471.69691412453
0.01880388089340914,22085.57095133184
0.019542040079740527,21643.709790970275
0.02030917620904734,21145.51781214084
0.021106426791015535,20590.838722496203
0.021934973989050584,19979.888553179866
0.02279604637318978,19313.76962222449
0.023690920741826323,18594.049220998484
0.02462092401494623,17823.177190171587
0.02558743520168586,17004.574802173807
0.02659188744512693,16142.371102618934
0.027635770147361564,15241.883321165982
0.028720631177978267,14309.358952344903
0.029848079169243254,13351.989406187047
0.03101978590138095,12377.989603659804
0.03223748878149028,11396.396333675013
0.0335029934197723,10416.798915637244
0.03481817630688963,9449.610138950937
0.03618498759642746,8505.564741747168
0.037605453996581675,7594.780997625987
0.03908168177536263,6727.539430479512
0.04061585988376978,5912.491952708626
0.04221026320156896,5157.948252554685
0.04386725591048496,4472.237424644977
0.0455892949998106,3859.513576004792
0.047378933909631396,3322.638084249554
0.049238826317067365,2861.475766502694
0.05117173007114603,2473.5258576536035
0.05318051128214196,2157.140520758689
0.05526814857144601,1908.3385088299187
0.057437737488265785,1723.0420974065446
0.0596924950997073,1598.180303540661
0.0620357647610427,1528.6251882971299
0.06447102107323864,1507.46818168966
0.06700187503509585,1530.4722565190127
0.06963207939763882,1594.3820456714402
0.0723655342286965,1694.6984663033907
0.07520629269592405,1821.7197441348396
0.07815856707684081,1962.1233927151545
0.08122673500479707,2097.926472277351
0.08441534596012978,2208.018187173654
0.0877291280161335,2270.5525920199234
0.09117299484984914,2267.2510246896054
0.09475205302806537,2186.5226095454236
0.09847160957933764,2026.5855725226309
0.1023371798632519,1796.7292154248173
0.10635449574860109,1517.0508359702667
0.11052951411260206,1220.4232065042577
0.1148684256737553,941.8522787653545
0.1193776641714435,708.5065228193934
0.1240639159058831,534.6115557466226
0.12893412965257148,422.08679222039734
0.13399552696593373,365.71007408496695
0.1392556128874462,358.9824355150853
0.14472218707411338,395.21214581701463
0.15040335536380234,465.9156976354505
0.15630754179458153,555.1390955040935
0.16244350109588662,634.1953251815838
0.16882033167003618,667.7566942451143
0.17544748908334581,633.9094574548241
0.1823348000868439,538.7746228310342
0.189492477187382,412.24444352577194
0.19693113379074215,292.82627391543366
0.20466179993919872,209.27878325144397
0.21269593866686892,170.07538437550338
0.22104546299710207,170.11614519013352
0.22972275360711503,200.37107188148448
0.23874067718606454,243.38479942884314
0.2481126055137766,269.65481142208426
0.25785243528842716,255.4694404342394
0.26797460873256895,204.74499507497475
0.27849413500806414,147.48168883955697
0.28942661247167484,110.09180058397727
0.3007882518043098,100.36500625727496
0.31259590004822796,112.41556930408211
0.324867065587837,129.19415757447797
0.3376199441111335,129.42571310943586
0.35087344559027084,107.65954873030611
0.36464722232127456,81.40568077873195
0.37896169806447155,67.7861172484188
0.3938380983288488,69.02271680973813
0.4092984818452433,74.57731184291015
0.4253657732750382,70.98377095877511
0.44206379720285277,58.32145858301302
0.45941731346364734,48.35665376109783
0.47745205385661277,46.568478176723076
0.4961947603002895,47.29483219283976
0.5156732244854959,43.195847542460164
0.5359163290848509,36.52544237869634
0.556954090580013,33.24917752966306
0.5788177037701272,32.426154855816456
0.6015395880274836,29.762935236330854
0.6251534353689703,26.07924681489616
0.6496942604146115,24.14654075887241
0.6751984523072497,22.678140990794343
0.7017038286703824,20.411164675098686
0.7292496916841444,18.560862680118262
0.7578768863625915,17.27312135979776
0.7876278611187046,15.942294008900449
0.8185467307069019,14.60405522833218
0.850679341636415,13.309401400392185
0.8840733401525058,12.095552900009066
0.9187782428863317,10.987396926269758
0.9548455102782278,9.997904014709246
0.9923286228832539,9.11697137194906
1.0312831606721837,8.326576444603006
1.0717668854455022,7.611990623791319
1.1138398264826193,6.961254931464373
1.1575643695533022,6.364671443609602
1.2030053494233226,5.814978689362364
1.2502301459914542,5.3088735857810265
1.299308784200415,4.843995511283412
1.3503140378698726,4.417913059809282
1.4033215376054824,4.028168947863617
1.4584098829439835,3.672317511380955
1.5156607589006013,3.3478033932200075
1.575159057091621,3.051827165904782
1.6369930016117014,2.781793193908426
1.7012542798525885,2.535358110873211
1.7680381784572046,2.3104043543710198
1.8374437246107238,2.105017431046735
1.9095738328780953,1.917498906328355
1.9845354578058014,1.7463466385452446
2.0624397525140905,1.5901817031136625
2.143402233514853,1.4477350739418875
2.227542951999554,1.317839610899942
2.314986671851158,1.199422101398711
2.405863054644063,1.0914901066390887
2.5003068519063225,0.9931294474919482
2.598458104929248,0.903504213102549
2.7004623524206774,0.8218503390930372
2.806470846309834,0.7474695350327668
2.916640776023701,0.6797238307586972
3.031135501567576,0.6180311110426302
3.150124795755327,0.5618596937315808
3.2737850959485697,0.5107236594059483
3.4022997656780634,0.46417900551730973
3.5358593665351745,0.42182011631383803
3.6746619407366854,0.38327650694112353
3.8189133047818515,0.3482098158707273
3.968827354637162,0.3163111329019331
4.1246263829013445,0.2872985047856483
4.286541408420921,0.2609146323366483
4.4548125188449825,0.2369247592976978
4.629689226627261,0.2151147301063047
4.811430839003257,0.19528921306757566
5.000306842491082,0.177270093844694
5.196597302486189,0.16089498879527703
5.400593278542364,0.14601588175313127
5.612597255954967,0.1324978750563304
5.8329235942862,0.12021801315966214
6.06189899349756,0.10906424900367126
6.29986297838068,0.09893453687904274
6.547168402004727,0.08973595566741636
6.804181968927091,0.08138390512781914
7.071284778942991,0.07380137344283934
7.348872892180382,0.0669182829380075
7.637357916378006,0.06067086394763994
7.937167617217536,0.05500108247539242
8.248746552614573,0.049856132182048464
8.572556731909314,0.045187970775312385
8.909078300934132,0.04095289337220384
9.258810253973934,0.03711113250185343
9.622271173675122,0.03362652440554369
9.999999999999984,0.03046619398478314
