k [1/Mpc],P(k) [Mpc^3]
0.0001,130.31627814014837
0.00010392556829367125,135.8209319870335
0.00010800523745162529,141.5578807621507
0.00011224505680853065,147.53690501865165
0.00011665131316981963,153.76819646299674
0.00012123054013376525,160.26236451360825
0.00012598952777950273,167.03044976917928
0.00013093533273536104,174.08395301860386
0.00013607528864243335,181.43486039041798
0.00014141701702890234,189.09566046094346
0.00014696843861124463,197.079359781959
0.00015273778503907136,205.39950093496324
0.00015873361110102093,214.0701879736423
0.00016496480740980205,223.106097705017
0.0001714406135851971,232.5225058848917
0.00017817063195457305,242.33532002209978
0.00018516484179121546,252.5611068607887
0.000192433614111598,263.2171168133556
0.00019998772705352857,274.3212938156786
0.0002078383818579757,285.8923001940667
0.00021599721947827182,297.94955955132275
0.0002244763378413224,310.51328016274
0.0002332883097864157,323.60449094761515
0.00024244620170823283,337.2450666941457
0.0002519635929317015,351.45775365120863
0.0002618545958474233,366.26621274652763
0.0002721338768375308,381.69502262237563
0.0002828166780230032,397.7697273826637
0.0002939188398646886,414.51688089573395
0.0003054568246515432,431.96406689028015
0.00031744774091091926,450.13995487216033
0.00032990936877709396,469.07429966065547
0.00034286018635565856,488.79798208479707
0.00035631939712285854,509.3430789784763
0.000370306958400514,530.7428877847566
0.00038484361094874304,553.0319830686568
0.0003999509097203664,576.2461807232565
0.00041565125582259895,600.4225389454064
0.00043196792973341727,625.5994960571921
0.0004489251258218605,651.8169181690861
0.0004665479882234472,679.1161482506541
0.000484862648123908,707.5399685182672
0.000503896262506515,737.1325344819363
0.0005236770544204653,767.9395552241327
0.0005442343548300266,800.0083311129531
0.0005655986461065005,833.3878049968656
0.0005878016072274912,868.1285519439375
0.0006108761607505036,904.2826264591571
0.0006348565216305217,941.9037700573294
0.0006597782479539537,981.0474312147356
0.0006856782936641739,1021.7707874422578
0.0007125950633568407,1064.1328109159745
0.0007405684692262436,1108.1941149719032
0.0007696399902471156,1154.017099429067
0.0007998527336796708,1201.6659023554741
0.000831251498989063,1251.2062932065433
0.0008638828442740447,1302.7058676906834
0.000897795155303332,1356.2338195928917
0.0009330387172620361,1411.861035538438
0.0009696657893145519,1469.6601042988432
0.001007730682094461,1529.7050389325257
0.0010472898382363582,1592.0715233992278
0.0010884019160690055,1656.836479017129
0.0011311278765939214,1724.0780115061627
0.001175531073878369,1793.8756118081446
0.0012216773489967915,1866.3095829048257
0.0012696351276599736,1941.4613479838858
0.0013194755216767058,2019.4130018598555
0.0013712724343984,2100.246909075177
0.0014251026703029975,2184.046088730882
0.0014810460488806749,2270.8932257192914
0.0015391855229902056,2360.8709275645597
0.001599607301861487,2454.0617021418498
0.0016624009789266115,2550.5473857246307
0.0017276596646690358,2650.4093155557234
0.0017954801246878305,2753.7268408889026
0.0018659629231817451,2860.5772372179504
0.001939212572065829,2971.036011366496
0.0020153376859417325,3085.1756881306937
0.002094451143151469,3203.066230402782
0.002176670253153458,3324.7738431969647
0.002262116930469025,3450.360253124884
0.002350917875457286,3579.883163546917
0.002443204762186487,3713.394730391559
0.0025391144336803463,3850.9417579753363
0.002638789104828933,3992.564937661228
0.002742376573264949,4138.297627841395
0.0028500304385181063,4288.166238012805
0.0029619103297725525,4442.188462207051
0.0030781821425650787,4600.373088945526
0.003199018284775064,4762.719835782574
0.0033245979322709396,4929.218016134807
0.003455107294592217,5099.8465747088485
0.0035907398910610534,5274.571877666367
0.0037316968377327513,5453.346920758929
0.0038781871456107214,5636.111688540529
0.0040304280305680515,5822.790625527084
0.00418864523543527,6013.293325116103
0.004353073364731888,6207.513042683712
0.00452395623253805,6405.325133006884
0.004701547224022131,6606.587755005708
0.004886109671160325,6811.137545498922
0.005077917243205399,7018.790752829972
0.005277254352483535,7229.34487574047
0.005484416576121017,7442.57856743403
0.005699711094326071,7658.249591971921
0.005923457145875801,7876.076484937547
0.006155986501483508,8095.740238069132
0.006397643955748424,8316.911291406323
0.0066487878384172625,8539.292598965729
0.0069097905457156435,8762.580471084888
0.007181039092537346,8986.35436289187
0.007462935686310132,9210.044343822847
0.007755898323389004,9433.051902549449
0.00806036140886134,9654.848046558776
0.008376776400682916,9874.921046766074
0.008705612479099857,10092.739265340517
0.009047357242349292,10307.752456706856
0.00940251742967013,10519.386910837615
0.009771619672696168,10726.982099735167
0.010155211276345676,10929.812609012994
0.010553861030365234,11127.12242671467
0.010968160052731372,11318.108005557084
0.011398722666160517,11501.942981196109
0.011846187309026826,11677.775586798252
0.012311217482038896,11844.732384386705
0.012794502732078732,12001.92500244382
0.013296759674662111,12148.41666074097
0.013818733056536317,12283.258259785523
0.014361196859990781,12405.478433849752
0.014924955450518284,12514.071978768552
0.015510844769528393,12608.045138449854
0.016119733573881575,12686.375319039213
0.01675252472408214,12748.048482978451
0.017410156523040152,12792.079161415768
0.018093604107387147,12817.490897779253
0.01880388089340914,12823.369093179215
0.019542040079740527,12808.835681304154
0.02030917620904734,12773.071690249868
0.021106426791015535,12715.36263899115
0.021934973989050584,12635.092291399673
0.02279604637318978,12531.777630784301
0.023690920741826323,12405.097959201363
0.02462092401494623,12254.908187481064
0.02558743520168586,12081.250798540274
0.02659188744512693,11884.443280827489
0.027635770147361564,11665.020673157414
0.028720631177978267,11423.801924795509
0.029848079169243254,11161.981380633044
0.03101978590138095,10880.943216536005
0.03223748878149028,10582.535374586365
0.0335029934197723,10268.892649120162
0.03481817630688963,9942.357869473899
0.03618498759642746,9605.834860067409
0.037605453996581675,9262.225826080448
0.03908168177536263,8914.792402534638
0.04061585988376978,8567.053218017305
0.04221026320156896,8222.319075062946
0.04386725591048496,7884.293289862118
0.0455892949998106,7556.401945963994
0.047378933909631396,7241.756377553338
0.049238826317067365,6943.297184165707
0.05117173007114603,6663.46157206826
0.05318051128214196,6404.311582685817
0.05526814857144601,6167.557074116175
0.057437737488265785,5954.124122924037
0.0596924950997073,5763.593783456984
0.0620357647610427,5595.126168732748
0.06447102107323864,5444.799284637332
0.06700187503509585,5307.139179436073
0.06963207939763882,5177.687492057838
0.0723655342286965,5053.001271088429
0.07520629269592405,4928.807936754915
0.07815856707684081,4799.414808405953
0.08122673500479707,4658.558134192502
0.08441534596012978,4499.6033768215775
0.0877291280161335,4317.815154065205
0.09117299484984914,4111.10824802686
0.09475205302806537,3882.1270424883173
0.09847160957933764,3637.047693921511
0.1023371798632519,3384.651959567642
0.10635449574860109,3134.101712690202
0.11052951411260206,2894.753059049223
0.1148684256737553,2675.8623323581414
0.1193776641714435,2485.7852309527493
0.1240639159058831,2330.379604696692
0.12893412965257148,2210.7492123209104
0.13399552696593373,2122.4178292372476
0.1392556128874462,2055.3502089905137
0.14472218707411338,1996.9318593716732
0.15040335536380234,1934.2495348615764
0.15630754179458153,1856.6737735370825
0.16244350109588662,1758.2729354862208
0.16882033167003618,1639.2351610674598
0.17544748908334581,1506.138025807395
0.1823348000868439,1371.3080327124837
0.189492477187382,1249.9494672106437
0.19693113379074215,1153.3060316611766
0.20466179993919872,1083.2206356707243
0.21269593866686892,1033.797041256765
0.22104546299710207,994.7095082661143
0.22972275360711503,952.5085692546813
0.23874067718606454,897.2018718317479
0.2481126055137766,829.2338223846843
0.25785243528842716,756.9642237417646
0.26797460873256895,691.3577390270739
0.27849413500806414,640.079632632337
0.28942661247167484,602.8198972320018
0.3007882518043098,572.1029165626453
0.31259590004822796,538.581551471772
0.324867065587837,499.1764220782517
0.3376199441111335,457.79337235320486
0.35087344559027084,420.9879260574266
0.36464722232127456,391.8821397228674
0.37896169806447155,367.38789390130086
0.3938380983288488,342.73717881365735
0.4092984818452433,316.4442794529951
0.4253657732750382,291.3592543670436
0.44206379720285277,269.8149629920789
0.45941731346364734,251.0003879769004
0.47745205385661277,232.6839537804848
0.4961947603002895,214.66371978721668
0.5156732244854959,198.1813910506722
0.5359163290848509,183.47181682912822
0.556954090580013,169.66551040924438
0.5788177037701272,156.51209178706756
0.6015395880274836,144.43378102643408
0.6251534353689703,133.37721313717302
0.6496942604146115,123.01562786730612
0.6751984523072497,113.39268065127246
0.7017038286703824,104.53931080938644
0.7292496916841444,96.32141783352336
0.7578768863625915,88.70858760635497
0.7876278611187046,81.67806515102642
0.8185467307069019,75.17401847289507
0.850679341636415,69.16133507044579
0.8840733401525058,63.61084689996689
0.9187782428863317,58.48833345931519
0.9548455102782278,53.76189210586859
0.9923286228832539,49.40194420118875
1.0312831606721837,45.38106708206036
1.0717668854455022,41.673960394050276
1.1138398264826193,38.257572901030805
1.1575643695533022,35.11049661287615
1.2030053494233226,32.21274964224405
1.2502301459914542,29.545696925237802
1.299308784200415,27.09197133299781
1.3503140378698726,24.835327685473537
1.4033215376054824,22.76058726740228
1.4584098829439835,20.853673855408275
1.5156607589006013,19.101545093871035
1.575159057091621,17.492121669394997
1.6369930016117014,16.014223086645853
1.7012542798525885,14.657516093039758
1.7680381784572046,13.412443362539733
1.8374437246107238,12.270163050405696
1.9095738328780953,11.222498952538672
1.9845354578058014,10.261893787319497
2.0624397525140905,9.38136418941558
2.143402233514853,8.574459121327354
2.227542951999554,7.835224332557973
2.314986671851158,7.158166639971404
2.405863054644063,6.538220248281169
2.5003068519063225,5.97071506505501
2.598458104929248,5.451344682583928
2.7004623524206774,4.976141326297756
2.806470846309834,4.541452779712295
2.916640776023701,4.143918447914916
3.031135501567576,3.780447088192936
3.150124795755327,3.4481961945468065
3.2737850959485697,3.144552917168118
3.4022997656780634,2.8671161121307556
3.5358593665351745,2.6136798459741857
3.6746619407366854,2.3822181553985793
3.8189133047818515,2.170870918143846
3.968827354637162,1.9779303818083813
4.1246263829013445,1.801829231850698
4.286541408420921,1.6411299529586503
4.4548125188449825,1.494514465569628
4.629689226627261,1.3607745295891671
4.811430839003257,1.2388028575966095
5.000306842491082,1.1275848239709079
5.196597302486189,1.026191088952598
5.400593278542364,0.933770707251864
5.612597255954967,0.8495447076660503
5.8329235942862,0.772800179022438
6.06189899349756,0.7028847856493947
6.29986297838068,0.639201745001577
6.547168402004727,0.5812052962728097
6.804181968927091,0.5283964590988062
7.071284778942991,0.48031912600602245
7.348872892180382,0.4365564627168576
7.637357916378006,0.39672753794806775
7.937167617217536,0.3604843585280592
8.248746552614573,0.3275091403803766
8.572556731909314,0.29751174476010434
8.909078300934132,0.2702273255963197
9.258810253973934,0.24541415062280392
9.622271173675122,0.22285159431130955
9.999999999999984,0.2023383921250611
