k [1/Mpc],P(k) [Mpc^3]
0.0001,42.65758374194657
0.00010392556829367125,44.33171085585554
0.00010800523745162529,46.07150396580209
0.00011224505680853065,47.87953327187682
0.00011665131316981963,49.75847010166107
0.00012123054013376525,51.711091152767
0.00012598952777950273,53.7402815518282
0.00013093533273536104,55.84903835422039
0.00013607528864243335,58.04047524921731
0.00014141701702890234,60.31782526623664
0.00014696843861124463,62.68444323481032
0.00015273778503907136,65.14381386615243
0.00015873361110102093,67.69955980471978
0.00016496480740980205,70.35544619241998
0.0001714406135851971,73.11538396574937
0.00017817063195457305,75.98343417261485
0.00018516484179121546,78.96381482447927
0.000192433614111598,82.06090322753751
0.00019998772705352857,85.27924171604586
0.0002078383818579757,88.62354794950076
0.00021599721947827182,92.09872406546961
0.0002244763378413224,95.70986193293437
0.0002332883097864157,99.46224533508394
0.00024244620170823283,103.36135462278737
0.0002519635929317015,107.41287907388774
0.0002618545958474233,111.62272347627231
0.0002721338768375308,115.99701691660846
0.0002828166780230032,120.54211922289878
0.0002939188398646886,125.26462557348518
0.0003054568246515432,130.17137980969022
0.00031744774091091926,135.26948250100358
0.00032990936877709396,140.5663005857376
0.00034286018635565856,146.0694725687722
0.00035631939712285854,151.78690176089904
0.000370306958400514,157.72678009523295
0.00038484361094874304,163.89760703220597
0.0003999509097203664,170.30820164062843
0.00041565125582259895,176.96770470083305
0.00043196792973341727,183.8855638247605
0.0004489251258218605,191.0715592748187
0.0004665479882234472,198.5358196608122
0.000484862648123908,206.28882830225487
0.000503896262506515,214.34144152330336
0.0005236770544204653,222.70488668407395
0.0005442343548300266,231.39077891678707
0.0005655986461065005,240.41112997826275
0.0005878016072274912,249.7783368087393
0.0006108761607505036,259.5052169844715
0.0006348565216305217,269.6050097296068
0.0006597782479539537,280.09138763603795
0.0006856782936641739,290.97847176022105
0.0007125950633568407,302.28080216277516
0.0007405684692262436,314.0133800916566
0.0007696399902471156,326.19167882730164
0.0007998527336796708,338.83164776108566
0.000831251498989063,351.9497323752753
0.0008638828442740447,365.5628270101883
0.000897795155303332,379.68831306594
0.0009330387172620361,394.3440684760882
0.0009696657893145519,409.5484397808308
0.001007730682094461,425.3202926400719
0.0010472898382363582,441.6789643643493
0.0010884019160690055,458.64428118820246
0.0011311278765939214,476.2365772258144
0.001175531073878369,494.47662307003145
0.0012216773489967915,513.3856926288335
0.0012696351276599736,532.9854744848923
0.0013194755216767058,553.2980443148084
0.0013712724343984,574.3459356707897
0.0014251026703029975,596.151986441353
0.0014810460488806749,618.7394241153394
0.0015391855229902056,642.1317996640471
0.001599607301861487,666.3528783314297
0.0016624009789266115,691.4267559328952
0.0017276596646690358,717.3776779575904
0.0017954801246878305,744.2300764326685
0.0018659629231817451,772.0085076854532
0.001939212572065829,800.7373822212326
0.0020153376859417325,830.4411663344381
0.002094451143151469,861.1441935106835
0.002176670253153458,892.8706180098002
0.002262116930469025,925.6444136079544
0.002350917875457286,959.4889596415605
0.002443204762186487,994.4272425190312
0.0025391144336803463,1030.481651793078
0.002638789104828933,1067.6737887563563
0.002742376573264949,1106.0245854440582
0.0028500304385181063,1145.553828546568
0.0029619103297725525,1186.2802626818102
0.0030781821425650787,1228.221450529385
0.003199018284775064,1271.3934059840367
0.0033245979322709396,1315.8107776864786
0.003455107294592217,1361.4863881789722
0.0035907398910610534,1408.4311823514513
0.0037316968377327513,1456.654099697963
0.0038781871456107214,1506.1613671152697
0.0040304280305680515,1556.9568472988915
0.00418864523543527,1609.0415984528631
0.004353073364731888,1662.4136360085554
0.00452395623253805,1717.0679369043053
0.004701547224022131,1772.99533830566
0.004886109671160325,1830.1829669320227
0.005077917243205399,1888.6139052724307
0.005277254352483535,1948.2666488173093
0.005484416576121017,2009.1154058861775
0.005699711094326071,2071.1288210926828
0.005923457145875801,2134.270239449415
0.006155986501483508,2198.4976364362683
0.006397643955748424,2263.762654168736
0.0066487878384172625,2330.0110781897465
0.0069097905457156435,2397.1790018798133
0.007181039092537346,2465.1929460170863
0.007462935686310132,2533.9746502245375
0.007755898323389004,2603.4475572643473
0.00806036140886134,2673.530829855825
0.008376776400682916,2744.1188300117738
0.008705612479099857,2815.074246542293
0.009047357242349292,2886.250518815611
0.00940251742967013,2957.507173364929
0.009771619672696168,3028.701896904578
0.010155211276345676,3099.683518796151
0.010553861030365234,3170.2909603628123
0.010968160052731372,3240.3539786046354
0.011398722666160517,3309.679238991559
0.011846187309026826,3378.05510115913
0.012311217482038896,3445.25796239406
0.012794502732078732,3511.0459867454133
0.013296759674662111,3575.167014652432
0.013818733056536317,3637.3539947228314
0.014361196859990781,3697.3257484393807
0.014924955450518284,3754.792005747961
0.015510844769528393,3809.443192814166
0.016119733573881575,3860.961322550628
0.01675252472408214,3909.0151755065303
0.017410156523040152,3953.2563554292883
0.018093604107387147,3993.3340760970364
0.01880388089340914,4028.880560653399
0.019542040079740527,4059.524231636367
0.02030917620904734,4084.894419611879
0.021106426791015535,4104.613256960822
0.021934973989050584,4118.316092762789
0.02279604637318978,4125.641931416627
0.023690920741826323,4126.242533290698
0.02462092401494623,4119.7965560689645
0.02558743520168586,4106.003174822384
0.02659188744512693,4084.6002738738257
0.027635770147361564,4055.371478490793
0.028720631177978267,4018.1510557214574
0.029848079169243254,3972.8347652610664
0.03101978590138095,3919.401090148559
0.03223748878149028,3857.9011924914844
0.0335029934197723,3788.4840528584205
0.03481817630688963,3711.418853008167
0.03618498759642746,3627.0509306637177
0.037605453996581675,3535.884220616831
0.03908168177536263,3438.5239359325515
0.04061585988376978,3335.6753855442503
0.04221026320156896,3228.2483083278626
0.04386725591048496,3117.1737198521714
0.0455892949998106,3003.5206961309054
0.047378933909631396,2888.4402304780697
0.049238826317067365,2773.075655927757
0.05117173007114603,2658.842660680287
0.05318051128214196,2547.07395675473
0.05526814857144601,2438.8516561644706
0.057437737488265785,2335.0121191700464
0.0596924950997073,2236.3325177774714
0.0620357647610427,2144.169959189674
0.06447102107323864,2059.9489358939604
0.06700187503509585,1984.2790477970227
0.06963207939763882,1916.76802486305
0.0723655342286965,1856.9114229616655
0.07520629269592405,1804.011192356116
0.07815856707684081,1757.2704892213944
0.08122673500479707,1715.421734888125
0.08441534596012978,1677.076180405256
0.0877291280161335,1640.6261726047596
0.09117299484984914,1604.1464536858298
0.09475205302806537,1565.1548964634658
0.09847160957933764,1521.0466218618208
0.1023371798632519,1469.4616491338636
0.10635449574860109,1408.9928936018612
0.11052951411260206,1339.4774129633392
0.1148684256737553,1262.0554168008596
0.1193776641714435,1179.0240474416453
0.1240639159058831,1093.3880557592297
0.12893412965257148,1008.6290574112548
0.13399552696593373,928.295133174847
0.1392556128874462,855.954995842211
0.14472218707411338,794.533893765401
0.15040335536380234,745.762755820549
0.15630754179458153,709.6632427162682
0.16244350109588662,684.2993218686066
0.16882033167003618,666.0981928535938
0.17544748908334581,650.3646170069962
0.1823348000868439,632.0892145793807
0.189492477187382,607.1174361875492
0.19693113379074215,573.3284553488936
0.20466179993919872,531.2647602911416
0.21269593866686892,484.1773654075698
0.22104546299710207,437.52871219553117
0.22972275360711503,397.2499080014375
0.23874067718606454,367.0536978571375
0.2481126055137766,347.08802194225103
0.25785243528842716,334.5971811708972
0.26797460873256895,324.68930634413357
0.27849413500806414,311.6349193723281
0.28942661247167484,292.0611065596335
0.3007882518043098,266.95457629460486
0.31259590004822796,240.76336338876942
0.324867065587837,218.74408837307953
0.3376199441111335,203.58089926592572
0.35087344559027084,194.0715506096063
0.36464722232127456,185.8715549728706
0.37896169806447155,174.77164963032016
0.3938380983288488,160.22666228382266
0.4092984818452433,145.16446862210123
0.4253657732750382,133.25038411510462
0.44206379720285277,125.14238661055663
0.45941731346364734,118.3425491998558
0.47745205385661277,110.13389118087848
0.4961947603002895,100.63455020445204
0.5156732244854959,92.11902168787933
0.5359163290848509,85.72606325443974
0.556954090580013,80.20209395992805
0.5788177037701272,74.08969042723744
0.6015395880274836,67.85644181820048
0.6251534353689703,62.64344502932438
0.6496942604146115,58.21177322402088
0.6751984523072497,53.71582056135993
0.7017038286703824,49.328620113565215
0.7292496916841444,45.53729389518532
0.7578768863625915,42.07188372218667
0.7876278611187046,38.684818367868246
0.8185467307069019,35.607278270614295
0.850679341636415,32.82204289292782
0.8840733401525058,30.180373077799807
0.9187782428863317,27.74072880295479
0.9548455102782278,25.498547295166254
0.9923286228832539,23.435851437715055
1.0312831606721837,21.536390222604695
1.0717668854455022,19.785686169050333
1.1138398264826193,18.17081896272417
1.1575643695533022,16.680317757904746
1.2030053494233226,15.304976879820712
1.2502301459914542,14.037027308943925
1.299308784200415,12.869091123797752
1.3503140378698726,11.794160324870383
1.4033215376054824,10.805596682543662
1.4584098829439835,9.897098066710168
1.5156607589006013,9.062504784118895
1.575159057091621,8.295992993856451
1.6369930016117014,7.592183868669103
1.7012542798525885,6.946111199356239
1.7680381784572046,6.353190529293126
1.8374437246107238,5.809198908155191
1.9095738328780953,5.3102746629936
1.9845354578058014,4.8528535296785975
2.0624397525140905,4.433634978927686
2.143402233514853,4.0495645843598655
2.227542951999554,3.6978173781225774
2.314986671851158,3.375779330562099
2.405863054644063,3.081028611010962
2.5003068519063225,2.8113306527018804
2.598458104929248,2.5646261344146604
2.7004623524206774,2.339017992159885
2.806470846309834,2.132759324854729
2.916640776023701,1.9442424778432315
3.031135501567576,1.771988696495996
3.150124795755327,1.614637654764596
3.2737850959485697,1.4709383888272272
3.4022997656780634,1.3397409520480021
3.5358593665351745,1.2199886505764321
3.6746619407366854,1.110710490383074
3.8189133047818515,1.0110145886218598
3.968827354637162,0.9200824900001559
4.1246263829013445,0.8371633999516706
4.286541408420921,0.7615688176982252
4.4548125188449825,0.6926675697667543
4.629689226627261,0.629881183808597
4.811430839003257,0.572679675437574
5.000306842491082,0.5205776697684924
5.196597302486189,0.47313078253171825
5.400593278542364,0.42993228033740666
5.612597255954967,0.39060998659692203
5.8329235942862,0.354823349364443
6.06189899349756,0.32226092558262504
6.29986297838068,0.29263803318876724
6.547168402004727,0.2656945206789526
6.804181968927091,0.24119271523140315
7.071284778942991,0.21891553414902398
7.348872892180382,0.19866474406037393
7.637357916378006,0.18025937859920585
7.937167617217536,0.16353427851413357
8.248746552614573,0.14833874750854595
8.572556731909314,0.13453531866737792
8.909078300934132,0.1219986019652198
9.258810253973934,0.11061421494506556
9.622271173675122,0.10027790094900824
9.999999999999984,0.0908946651218496
