k [1/Mpc],P(k) [Mpc^3]
0.0001,15.135481863995139
0.00010392556829367125,15.820596466012002
0.00010800523745162529,16.536710065327394
0.00011224505680853065,17.285223200878246
0.00011665131316981963,18.067599856735484
0.00012123054013376525,18.885370435602244
0.00012598952777950273,19.74013437392354
0.00013093533273536104,20.63356298245508
0.00013607528864243335,21.567402804147424
0.00014141701702890234,22.543478311125632
0.00014696843861124463,23.563694570863817
0.00015273778503907136,24.63004209742355
0.00015873361110102093,25.744601825765127
0.00016496480740980205,26.90954888882002
0.0001714406135851971,28.127155999919403
0.00017817063195457305,29.39979730725791
0.00018516484179121546,30.729953327547513
0.000192433614111598,32.12021423851953
0.00019998772705352857,33.573284580087986
0.0002078383818579757,35.09198987960151
0.00021599721947827182,36.67928300319328
0.0002244763378413224,38.33824911451949
0.0002332883097864157,40.072109514637354
0.00024244620170823283,41.88422656035097
0.0002519635929317015,43.77811183651831
0.0002618545958474233,45.7574321849205
0.0002721338768375308,47.826016788830145
0.0002828166780230032,49.98786346511442
0.0002939188398646886,52.24714434149191
0.0003054568246515432,54.60821531100739
0.00031744774091091926,57.07562352736112
0.00032990936877709396,59.65411575157457
0.00034286018635565856,62.34864501142847
0.00035631939712285854,65.16437227401107
0.000370306958400514,68.10668129255743
0.00038484361094874304,71.18119174906002
0.0003999509097203664,74.39376977890076
0.00041565125582259895,77.75053437772064
0.00043196792973341727,81.2578564220305
0.0004489251258218605,84.92237563790732
0.0004665479882234472,88.75101352945003
0.000484862648123908,92.75098244669925
0.000503896262506515,96.92980024647628
0.0005236770544204653,101.29529612403672
0.0005442343548300266,105.85562507604884
0.0005655986461065005,110.61927910854261
0.0005878016072274912,115.59508930625589
0.0006108761607505036,120.79224966070679
0.0006348565216305217,126.2203254616032
0.0006597782479539537,131.8892668704804
0.0006856782936641739,137.80942441090718
0.0007125950633568407,143.99154361213735
0.0007405684692262436,150.446793625201
0.0007696399902471156,157.18678156979058
0.0007998527336796708,164.2235639246582
0.000831251498989063,171.56966588439101
0.0008638828442740447,179.23806824859594
0.000897795155303332,187.24223579365886
0.0009330387172620361,195.5961321959377
0.0009696657893145519,204.31421661731554
0.001007730682094461,213.4114793266716
0.0010472898382363582,222.9034289099573
0.0010884019160690055,232.80611168208804
0.0011311278765939214,243.1361324239269
0.001175531073878369,253.91062922599804
0.0012216773489967915,265.1473186281235
0.0012696351276599736,276.86446135344596
0.0013194755216767058,289.0808585219718
0.0013712724343984,301.81589920936176
0.0014251026703029975,315.0894908878662
0.0014810460488806749,328.9221141671876
0.0015391855229902056,343.3347983035098
0.001599607301861487,358.3490724641526
0.0016624009789266115,373.9870370690735
0.0017276596646690358,390.2712757507365
0.0017954801246878305,407.22488319524393
0.0018659629231817451,424.8714392437808
0.001939212572065829,443.23486684364593
0.0020153376859417325,462.33954753041087
0.002094451143151469,482.2102223286204
0.002176670253153458,502.871969136962
0.002262116930469025,524.3502048111711
0.002350917875457286,546.6704520986373
0.002443204762186487,569.8584510826404
0.0025391144336803463,593.9400408490235
0.002638789104828933,618.9410442769811
0.002742376573264949,644.8873298509225
0.0028500304385181063,671.8045267277498
0.0029619103297725525,699.7180716953887
0.0030781821425650787,728.6531137258718
0.003199018284775064,758.6342799543694
0.0033245979322709396,789.6857640630236
0.003455107294592217,821.8310291183012
0.0035907398910610534,855.0927488685066
0.0037316968377327513,889.4927009217564
0.0038781871456107214,925.0513007926203
0.0040304280305680515,961.7877723568063
0.00418864523543527,999.7198349607493
0.004353073364731888,1038.8635065560127
0.00452395623253805,1079.2330532627454
0.004701547224022131,1120.8402391817867
0.004886109671160325,1163.694524272698
0.005077917243205399,1207.8027823814073
0.005277254352483535,1253.1688762309695
0.005484416576121017,1299.793764076275
0.005699711094326071,1347.6745858558065
0.005923457145875801,1396.8047273347381
0.006155986501483508,1447.173668501749
0.006397643955748424,1498.766236732509
0.0066487878384172625,1551.562795234191
0.0069097905457156435,1605.5365520564405
0.007181039092537346,1660.6534420954983
0.007462935686310132,1716.8751739048807
0.007755898323389004,1774.1635395540313
0.00806036140886134,1832.4763308640122
0.008376776400682916,1891.7530915906443
0.008705612479099857,1951.9098396147992
0.009047357242349292,2012.854045745185
0.00940251742967013,2074.4951735243026
0.009771619672696168,2136.739176915495
0.010155211276345676,2199.483450714809
0.010553861030365234,2262.615865370422
0.010968160052731372,2326.015060260658
0.011398722666160517,2389.5401593594443
0.011846187309026826,2453.0337223793995
0.012311217482038896,2516.3259455952475
0.012794502732078732,2579.2297498771914
0.013296759674662111,2641.546181031351
0.013818733056536317,2703.060733083529
0.014361196859990781,2763.5435351001042
0.014924955450518284,2822.752762299465
0.015510844769528393,2880.4266433143316
0.016119733573881575,2936.291243630506
0.01675252472408214,2990.056512148021
0.017410156523040152,3041.4128683935596
0.018093604107387147,3090.0421724561015
0.01880388089340914,3135.6062131442013
0.019542040079740527,3177.7565534845126
0.02030917620904734,3216.1380496923452
0.021106426791015535,3250.3823484353816
0.021934973989050584,3280.1238764301565
0.02279604637318978,3304.992377523894
0.023690920741826323,3324.620224119678
0.02462092401494623,3338.654068658407
0.02558743520168586,3346.7501707320316
0.02659188744512693,3348.58969742335
0.027635770147361564,3343.8853470839426
0.028720631177978267,3332.386422351689
0.029848079169243254,3313.889025612334
0.03101978590138095,3288.2552977205
0.03223748878149028,3255.406910224532
0.0335029934197723,3215.348158454339
0.03481817630688963,3168.1874736431846
0.03618498759642746,3114.1026074094993
0.037605453996581675,3053.413781273449
0.03908168177536263,2986.537955320847
0.04061585988376978,2913.9904764171097
0.04221026320156896,2836.479447747318
0.04386725591048496,2754.749268307834
0.0455892949998106,2669.685239365979
0.047378933909631396,2582.267194306384
0.049238826317067365,2493.4913854214487
0.05117173007114603,2404.623867129723
0.05318051128214196,2316.884753037883
0.05526814857144601,2231.2931002852993
0.057437737488265785,2148.6651388182618
0.0596924950997073,2069.780726979563
0.0620357647610427,1995.9769797589247
0.06447102107323864,1928.6842636753436
0.06700187503509585,1868.597614693462
0.06963207939763882,1815.4778752092368
0.0723655342286965,1768.9719794063983
0.07520629269592405,1728.5317244373136
0.07815856707684081,1693.499622024445
0.08122673500479707,1662.7454110374078
0.08441534596012978,1634.9933906027652
0.0877291280161335,1608.7227644225466
0.09117299484984914,1582.0636371386258
0.09475205302806537,1552.550082101411
0.09847160957933764,1517.536625184652
0.1023371798632519,1474.5627979793064
0.10635449574860109,1422.07394895589
0.11052951411260206,1359.7439457975158
0.1148684256737553,1288.5715116077745
0.1193776641714435,1210.7685307353988
0.1240639159058831,1129.3307358739257
0.12893412965257148,1047.81994157228
0.13399552696593373,969.9506059952536
0.1392556128874462,899.5448829474834
0.14472218707411338,839.8325365229759
0.15040335536380234,792.8468758061592
0.15630754179458153,758.838402906716
0.16244350109588662,735.9553399239368
0.16882033167003618,720.5298340229506
0.17544748908334581,707.585588647884
0.1823348000868439,691.6857280935004
0.189492477187382,668.2077399285101
0.19693113379074215,634.673922441399
0.20466179993919872,591.5160426871814
0.21269593866686892,542.2110481175993
0.22104546299710207,492.80919114785326
0.22972275360711503,450.03304812172735
0.23874067718606454,418.23325979420343
0.2481126055137766,397.77451124117476
0.25785243528842716,385.6807504585045
0.26797460873256895,376.4280970024268
0.27849413500806414,363.3862777607701
0.28942661247167484,342.5346384063412
0.3007882518043098,314.90278432857536
0.31259590004822796,285.6524105342882
0.324867065587837,261.03105445949205
0.3376199441111335,244.34375430592726
0.35087344559027084,234.279587716495
0.36464722232127456,225.68041338122944
0.37896169806447155,213.432368139214
0.3938380983288488,196.80333097440976
0.4092984818452433,179.3355333624823
0.4253657732750382,165.57045829120315
0.44206379720285277,156.3965525576882
0.45941731346364734,148.7551546506108
0.47745205385661277,139.23885669701744
0.4961947603002895,127.96610049153432
0.5156732244854959,117.81633382590486
0.5359163290848509,110.27509201706913
0.556954090580013,103.76684609609386
0.5788177037701272,96.41376688060093
0.6015395880274836,88.81385372451301
0.6251534353689703,82.46575258535958
0.6496942604146115,77.07564775856639
0.6751984523072497,71.53472799243461
0.7017038286703824,66.07269842866876
0.7292496916841444,61.34775249114891
0.7578768863625915,57.00746861669731
0.7876278611187046,52.72161709841236
0.8185467307069019,48.80848194530284
0.850679341636415,45.251240745148316
0.8840733401525058,41.850229910352084
0.9187782428863317,38.690066127447515
0.9548455102782278,35.76888521897051
0.9923286228832539,33.065802245938535
1.0312831606721837,30.56184724252196
1.0717668854455022,28.240095848006955
1.1138398264826193,26.08542475697168
1.1575643695533022,24.08441445962455
1.2030053494233226,22.226588630299165
1.2502301459914542,20.503294030908805
1.299308784200415,18.906221089926945
1.3503140378698726,17.42738575838072
1.4033215376054824,16.059141771790966
1.4584098829439835,14.79414303675647
1.5156607589006013,13.625063965958807
1.575159057091621,12.544895235990072
1.6369930016117014,11.547121639285082
1.7012542798525885,10.625689383597102
1.7680381784572046,9.774974331632384
1.8374437246107238,8.989765311041705
1.9095738328780953,8.265277759541142
1.9845354578058014,7.597067986364184
2.0624397525140905,6.980991760680295
2.143402233514853,6.413186674805823
2.227542951999554,5.8900552984656676
2.314986671851158,5.408244583245196
2.405863054644063,4.964624049276727
2.5003068519063225,4.556285448158568
2.598458104929248,4.180530742083488
2.7004623524206774,3.8348579501847495
2.806470846309834,3.516947859419073
2.916640776023701,3.2246521173508444
3.031135501567576,2.9559817598212748
3.150124795755327,2.709095034567594
3.2737850959485697,2.4822870837734925
3.4022997656780634,2.2739804100818626
3.5358593665351745,2.0827159260377424
3.6746619407366854,1.9071439844011884
3.8189133047818515,1.7460166960353232
3.968827354637162,1.5981814917303931
4.1246263829013445,1.4625742581662717
4.286541408420921,1.3382128848987742
4.4548125188449825,1.2241912455726534
4.629689226627261,1.1196735292362237
4.811430839003257,1.0238890708047663
5.000306842491082,0.9361275646273134
5.196597302486189,0.8557345449737851
5.400593278542364,0.7821071837224327
5.612597255954967,0.7146903604553907
5.8329235942862,0.6529728652784471
6.06189899349756,0.5964842139270159
6.29986297838068,0.5447916403066073
6.547168402004727,0.4974971818520655
6.804181968927091,0.45423497895731546
7.071284778942991,0.41466877061749996
7.348872892180382,0.37848956675080647
7.637357916378006,0.34541352690506677
7.937167617217536,0.3151799860976054
8.248746552614573,0.2875496224606282
8.572556731909314,0.2623027639886521
8.909078300934132,0.23923778362855122
9.258810253973934,0.21816959176401596
9.622271173675122,0.1989284383864412
9.999999999999984,0.18135869994934264
