k [1/Mpc],P(k) [Mpc^3]
0.0001,214.85520150639766
0.00010392556829367125,223.93083456621343
0.00010800523745162529,233.38949032649288
0.00011224505680853065,243.2472691919732
0.00011665131316981963,253.52094055057577
0.00012123054013376525,264.2279914059136
0.00012598952777950273,275.3866526157844
0.00013093533273536104,287.01591115090514
0.00013607528864243335,299.13552287527006
0.00014141701702890234,311.76606160540547
0.00014696843861124463,324.92896333832397
0.00015273778503907136,338.64656263821877
0.00015873361110102093,352.9421175750296
0.00016496480740980205,367.8398191238665
0.0001714406135851971,383.3648485125982
0.00017817063195457305,399.5434330386409
0.00018516484179121546,416.40289242265305
0.000192433614111598,433.9716714767429
0.00019998772705352857,452.27935332428484
0.0002078383818579757,471.35671900906635
0.00021599721947827182,491.2357969679598
0.0002244763378413224,511.9498933778226
0.0002332883097864157,533.533665891974
0.00024244620170823283,556.0231756039501
0.0002519635929317015,579.4559430856316
0.0002618545958474233,603.8709845004166
0.0002721338768375308,629.3088046819298
0.0002828166780230032,655.8115110438908
0.0002939188398646886,683.422871663353
0.0003054568246515432,712.1883738451303
0.00031744774091091926,742.1552928504852
0.00032990936877709396,773.3726910975554
0.00034286018635565856,805.8915269401339
0.00035631939712285854,839.7646898903068
0.000370306958400514,875.047025932285
0.00038484361094874304,911.7954726227105
0.0003999509097203664,950.0690541567976
0.00041565125582259895,989.9289867919467
0.00043196792973341727,1031.4387256477369
0.0004489251258218605,1074.663926797795
0.0004665479882234472,1119.6726413851336
0.000484862648123908,1166.5353327144296
0.000503896262506515,1215.3249597373997
0.0005236770544204653,1266.1170250727846
0.0005442343548300266,1318.9893965685612
0.0005655986461065005,1374.0225838530225
0.0005878016072274912,1431.299799566193
0.0006108761607505036,1490.907007420598
0.0006348565216305217,1552.933009226513
0.0006597782479539537,1617.4691955949816
0.0006856782936641739,1684.6097941751245
0.0007125950633568407,1754.451889963754
0.0007405684692262436,1827.0953401231382
0.0007696399902471156,1902.6430099689626
0.0007998527336796708,1981.2005193913346
0.000831251498989063,2062.8763936104365
0.0008638828442740447,2147.782053195386
0.000897795155303332,2236.0314517750935
0.0009330387172620361,2327.7414758774917
0.0009696657893145519,2423.0315563957206
0.001007730682094461,2522.0236784717395
0.0010472898382363582,2624.842497216158
0.0010884019160690055,2731.6145818101213
0.0011311278765939214,2842.4689204286346
0.001175531073878369,2957.5363341065804
0.0012216773489967915,3076.949107970085
0.0012696351276599736,3200.8414306116388
0.0013194755216767058,3329.3481248820513
0.0013712724343984,3462.605133659871
0.0014251026703029975,3600.749032232856
0.0014810460488806749,3743.916036904812
0.0015391855229902056,3892.2427605644016
0.001599607301861487,4045.864848861735
0.0016624009789266115,4204.917038056485
0.0017276596646690358,4369.532911963431
0.0017954801246878305,4539.843349141973
0.0018659629231817451,4715.977195901224
0.001939212572065829,4898.058842839336
0.0020153376859417325,5086.207661200136
0.002094451143151469,5280.538829114478
0.002176670253153458,5481.161408808835
0.002262116930469025,5688.1787353335085
0.002350917875457286,5901.686398004413
0.002443204762186487,6121.7707024562105
0.0025391144336803463,6348.509543602757
0.002638789104828933,6581.9697791113185
0.002742376573264949,6822.2074023371415
0.0028500304385181063,7069.266071705783
0.0029619103297725525,7323.174595379867
0.0030781821425650787,7583.948060200171
0.003199018284775064,7851.585950712649
0.0033245979322709396,8126.07146875957
0.003455107294592217,8407.37025960523
0.0035907398910610534,8695.427261327286
0.0037316968377327513,8990.167641622358
0.0038781871456107214,9291.494240841203
0.0040304280305680515,9599.286372355567
0.00418864523543527,9913.399983227824
0.004353073364731888,10233.664839086156
0.00452395623253805,10559.884777616826
0.004701547224022131,10891.832811991391
0.004886109671160325,11229.247772690678
0.005077917243205399,11571.8388189981
0.005277254352483535,11919.285932831703
0.005484416576121017,12271.238642562013
0.005699711094326071,12627.297911106767
0.005923457145875801,12986.994703719818
0.006155986501483508,13349.824577551637
0.006397643955748424,13715.337471244811
0.0066487878384172625,14083.117833041257
0.0069097905457156435,14452.640353089379
0.007181039092537346,14823.062497675055
0.007462935686310132,15193.434751022281
0.007755898323389004,15562.960141423673
0.00806036140886134,15931.0172790743
0.008376776400682916,16296.919709681646
0.008705612479099857,16659.685014821513
0.009047357242349292,17018.203078728224
0.00940251742967013,17371.456937917683
0.009771619672696168,17718.606814139424
0.010155211276345676,18058.787362136456
0.010553861030365234,18390.898759419484
0.010968160052731372,18713.709211033103
0.011398722666160517,19025.94808455277
0.011846187309026826,19326.299075261726
0.012311217482038896,19613.42579378088
0.012794502732078732,19885.99857719007
0.013296759674662111,20142.697766290567
0.013818733056536317,20382.181208861133
0.014361196859990781,20603.023018570235
0.014924955450518284,20803.793069196505
0.015510844769528393,20983.05334137715
0.016119733573881575,21139.365896194835
0.01675252472408214,21271.327966208286
0.017410156523040152,21377.537468205875
0.018093604107387147,21456.64488953465
0.01880388089340914,21507.367630419998
0.019542040079740527,21528.493294927248
0.02030917620904734,21518.920717482175
0.021106426791015535,21477.66562231765
0.021934973989050584,21403.881856442193
0.02279604637318978,21296.904820161802
0.023690920741826323,21156.29451796557
0.02462092401494623,20981.80803442378
0.02558743520168586,20773.51204972088
0.02659188744512693,20531.75478861474
0.027635770147361564,20257.16031080045
0.028720631177978267,19950.83509512457
0.029848079169243254,19614.127612992354
0.03101978590138095,19248.860876162216
0.03223748878149028,18857.326514315802
0.0335029934197723,18442.011247980943
0.03481817630688963,18006.063053888207
0.03618498759642746,17552.798932571706
0.037605453996581675,17085.85349248533
0.03908168177536263,16609.3693555614
0.04061585988376978,16127.337901948471
0.04221026320156896,15644.019138148446
0.04386725591048496,15163.584926262158
0.0455892949998106,14690.00134192837
0.047378933909631396,14227.330585126112
0.049238826317067365,13779.149367090247
0.05117173007114603,13347.530311092165
0.05318051128214196,12933.434775329071
0.05526814857144601,12538.00540059061
0.057437737488265785,12163.620494406492
0.0596924950997073,11812.485096934393
0.0620357647610427,11480.843763657624
0.06447102107323864,11158.7218831309
0.06700187503509585,10837.863294758168
0.06963207939763882,10515.538913075407
0.0723655342286965,10190.41783089919
0.07520629269592405,9858.981876499385
0.07815856707684081,9516.791406974286
0.08122673500479707,9158.873022750946
0.08441534596012978,8780.646398381614
0.0877291280161335,8381.252704310215
0.09117299484984914,7963.284302689064
0.09475205302806537,7535.544006155942
0.09847160957933764,7108.856101436653
0.1023371798632519,6694.580395078271
0.10635449574860109,6301.940386785559
0.11052951411260206,5938.280919605385
0.1148684256737553,5609.767409072588
0.1193776641714435,5320.554895957023
0.1240639159058831,5070.708744621681
0.12893412965257148,4853.851678773489
0.13399552696593373,4656.821856059567
0.1392556128874462,4464.21150242199
0.14472218707411338,4262.460488990798
0.15040335536380234,4044.035096933082
0.15630754179458153,3809.238073718256
0.16244350109588662,3564.9813898687953
0.16882033167003618,3321.1865729834894
0.17544748908334581,3088.40896015539
0.1823348000868439,2877.856639442996
0.189492477187382,2698.3562529422375
0.19693113379074215,2548.305423637856
0.20466179993919872,2415.575358197356
0.21269593866686892,2288.16978160149
0.22104546299710207,2157.7892464529923
0.22972275360711503,2019.335501819371
0.23874067718606454,1877.4059030009769
0.2481126055137766,1742.6503495882093
0.25785243528842716,1621.8873240328883
0.26797460873256895,1516.9503421659995
0.27849413500806414,1423.4770411050004
0.28942661247167484,1334.8586773999034
0.3007882518043098,1246.0842294434915
0.31259590004822796,1157.6943150047612
0.324867065587837,1074.7302322909688
0.3376199441111335,999.6032525317808
0.35087344559027084,931.8132616699369
0.36464722232127456,868.1893059356541
0.37896169806447155,806.8404481434056
0.3938380983288488,748.3883196451217
0.4092984818452433,694.3680102413995
0.4253657732750382,644.7108075805577
0.44206379720285277,598.310732960299
0.45941731346364734,554.4914228341133
0.47745205385661277,513.5487038993239
0.4961947603002895,475.6572524915612
0.5156732244854959,440.39719247647275
0.5359163290848509,407.44525118409115
0.556954090580013,376.7820710569964
0.5788177037701272,348.3404120956706
0.6015395880274836,321.8955736669017
0.6251534353689703,297.32136471901566
0.6496942604146115,274.5257753983492
0.6751984523072497,253.37436952889192
0.7017038286703824,233.7542223944058
0.7292496916841444,215.573927398744
0.7578768863625915,198.72913132888658
0.7876278611187046,183.12482687567157
0.8185467307069019,168.68227205535322
0.850679341636415,155.3249303706971
0.8840733401525058,142.976314145452
0.9187782428863317,131.56413466764246
0.9548455102782278,121.02187581613144
0.9923286228832539,111.28730377511191
1.0312831606721837,102.30224372764158
1.0717668854455022,94.0123521780358
1.1138398264826193,86.36689811227286
1.1575643695533022,79.318531467127
1.2030053494233226,72.82308087113212
1.2502301459914542,66.83940214153006
1.299308784200415,61.32919636160904
1.3503140378698726,56.25683359639403
1.4033215376054824,51.58918933132209
1.4584098829439835,47.295501732358574
1.5156607589006013,43.34720130652337
1.575159057091621,39.71776100539317
1.6369930016117014,36.382563944867975
1.7012542798525885,33.31877793932237
1.7680381784572046,30.505221199487117
1.8374437246107238,27.92225290293929
1.9095738328780953,25.551693359893118
1.9845354578058014,23.376724555790325
2.0624397525140905,21.381795117368977
2.143402233514853,19.55253029173411
2.227542951999554,17.875645340382803
2.314986671851158,16.33887214329069
2.405863054644063,14.930887594289835
2.5003068519063225,13.641244985734486
2.598458104929248,12.460309860836194
2.7004623524206774,11.379197327846818
2.806470846309834,10.389717316762843
2.916640776023701,9.484326745676228
3.031135501567576,8.65608103425722
3.150124795755327,7.898588815972379
3.2737850959485697,7.205970093404791
3.4022997656780634,6.572817760834805
3.5358593665351745,5.994160377850115
3.6746619407366854,5.4654283248493165
3.8189133047818515,4.982422708881333
3.968827354637162,4.541286456579162
4.1246263829013445,4.1384759989896205
4.286541408420921,3.77073731211436
4.4548125188449825,3.435084934403242
4.629689226627261,3.1287806320764466
4.811430839003257,2.849313611405977
5.000306842491082,2.5943822245639097
5.196597302486189,2.361877060195377
5.400593278542364,2.149865472740695
5.612597255954967,1.9565772468020377
5.8329235942862,1.7803913594004472
6.06189899349756,1.6198237661363561
6.29986297838068,1.4735159537625535
6.547168402004727,1.3402247219245866
6.804181968927091,1.2188128710784107
7.071284778942991,1.1082404098133734
7.348872892180382,1.0075564615672568
7.637357916378006,0.9158918094599431
7.937167617217536,0.8324520369220484
8.248746552614573,0.7565112904563128
8.572556731909314,0.6874065128826359
8.909078300934132,0.6245321389015102
9.258810253973934,0.5673352085597827
9.622271173675122,0.5153107021647554
9.999999999999984,0.4679975935439957
