k [1/Mpc],P(k) [Mpc^3]
0.0001,427.789506759626
0.00010392556829367125,443.2947440150507
0.00010800523745162529,459.3614962627508
0.00011224505680853065,476.010029945111
0.00011665131316981963,493.2613348072303
0.00012123054013376525,511.137155338369
0.00012598952777950273,529.660018127674
0.00013093533273536104,548.85325849851
0.00013607528864243335,568.7410546458373
0.00014141701702890234,589.3484539482163
0.00014696843861124463,610.7013707322656
0.00015273778503907136,632.8265864410968
0.00015873361110102093,655.7518313130275
0.00016496480740980205,679.5058793631433
0.0001714406135851971,704.1185695674217
0.00017817063195457305,729.6207711767471
0.00018516484179121546,756.0443319534135
0.000192433614111598,783.4221982284621
0.00019998772705352857,811.7885174645917
0.0002078383818579757,841.1786869931159
0.00021599721947827182,871.6293371937047
0.0002244763378413224,903.1782780979579
0.0002332883097864157,935.864600161631
0.00024244620170823283,969.7287791607611
0.0002519635929317015,1004.8127460018657
0.0002618545958474233,1041.1598812528046
0.0002721338768375308,1078.8148953495302
0.0002828166780230032,1117.823924540214
0.0002939188398646886,1158.2347033124122
0.0003054568246515432,1200.0966819415535
0.00031744774091091926,1243.4610091559305
0.00032990936877709396,1288.380409610329
0.00034286018635565856,1334.909215909369
0.00035631939712285854,1383.1035536389686
0.000370306958400514,1433.021364795679
0.00038484361094874304,1484.7224868715546
0.0003999509097203664,1538.2686240669454
0.00041565125582259895,1593.7233260205426
0.00043196792973341727,1651.152155096336
0.0004489251258218605,1710.622592915356
0.0004665479882234472,1772.2041515640162
0.000484862648123908,1835.9684717844214
0.000503896262506515,1901.989290527401
0.0005236770544204653,1970.3425743178789
0.0005442343548300266,2041.1063139822652
0.0005655986461065005,2114.3605573553227
0.0005878016072274912,2190.187642324571
0.0006108761607505036,2268.672055335892
0.0006348565216305217,2349.900613779482
0.0006597782479539537,2433.9623922303076
0.0006856782936641739,2520.948637521808
0.0007125950633568407,2610.952980573695
0.0007405684692262436,2704.0710014152883
0.0007696399902471156,2800.40044611691
0.0007998527336796708,2900.041419798021
0.000831251498989063,3003.0962609992944
0.0008638828442740447,3109.6696797531376
0.000897795155303332,3219.868044033577
0.0009330387172620361,3333.7993717101176
0.0009696657893145519,3451.5738571511997
0.001007730682094461,3573.303650674113
0.0010472898382363582,3699.102986067889
0.0010884019160690055,3829.087275831343
0.0011311278765939214,3963.372499581617
0.001175531073878369,4102.076174743372
0.0012216773489967915,4245.316699821768
0.0012696351276599736,4393.213549868561
0.0013194755216767058,4545.886736917108
0.0013712724343984,4703.455470403073
0.0014251026703029975,4866.039283956101
0.0014810460488806749,5033.756511135241
0.0015391855229902056,5206.72416440317
0.001599607301861487,5385.058557190086
0.0016624009789266115,5568.873863788402
0.0017276596646690358,5758.282760670751
0.0017954801246878305,5953.394707658792
0.0018659629231817451,6154.314716307329
0.001939212572065829,6361.144722636165
0.0020153376859417325,6573.981246552631
0.002094451143151469,6792.915949309102
0.002176670253153458,7018.0345926257505
0.002262116930469025,7249.414317849403
0.002350917875457286,7487.12568897141
0.002443204762186487,7731.230818680035
0.0025391144336803463,7981.782969961537
0.002638789104828933,8238.826059009043
0.002742376573264949,8502.3904589114
0.0028500304385181063,8772.495179542386
0.0029619103297725525,9049.146584551787
0.0030781821425650787,9332.336997970342
0.003199018284775064,9622.045136931465
0.0033245979322709396,9918.232081750582
0.003455107294592217,10220.842197241232
0.0035907398910610534,10529.801675885785
0.0037316968377327513,10845.015005783163
0.0038781871456107214,11166.36738346415
0.0040304280305680515,11493.720954469458
0.00418864523543527,11826.91455931022
0.004353073364731888,12165.763272707603
0.00452395623253805,12510.05196945657
0.004701547224022131,12859.539347355716
0.004886109671160325,13213.954706303284
0.005077917243205399,13572.995939445611
0.005277254352483535,13936.331643751819
0.005484416576121017,14303.592618540759
0.005699711094326071,14674.375954271864
0.005923457145875801,15048.244814226557
0.006155986501483508,15424.72449686384
0.006397643955748424,15803.304785183578
0.0066487878384172625,16183.410411403403
0.0069097905457156435,16564.4082180876
0.007181039092537346,16945.646175750604
0.007462935686310132,17326.502440774337
0.007755898323389004,17706.33514677411
0.00806036140886134,18084.324961658913
0.008376776400682916,18459.443908306195
0.008705612479099857,18830.62382803356
0.009047357242349292,19196.870295459
0.00940251742967013,19557.19899381839
0.009771619672696168,19910.60155656118
0.010155211276345676,20256.054006106988
0.010553861030365234,20592.499138116484
0.010968160052731372,20918.722652679524
0.011398722666160517,21233.39830135058
0.011846187309026826,21535.158331639323
0.012311217482038896,21822.56355721645
0.012794502732078732,22094.14850075939
0.013296759674662111,22348.391600478084
0.013818733056536317,22583.719200572377
0.014361196859990781,22798.550858423936
0.014924955450518284,22991.253136309904
0.015510844769528393,23160.195053238604
0.016119733573881575,23303.708839006467
0.01675252472408214,23420.04503716552
0.017410156523040152,23507.498914095286
0.018093604107387147,23564.35747443708
0.01880388089340914,23588.955049919947
0.019542040079740527,23579.703088771403
0.02030917620904734,23535.024955064862
0.021106426791015535,23453.483487933594
0.021934973989050584,23333.755348353046
0.02279604637318978,23174.657939879577
0.023690920741826323,22975.23698879963
0.02462092401494623,22734.750486026427
0.02558743520168586,22452.729145492853
0.02659188744512693,22129.039785488625
0.027635770147361564,21763.916267769422
0.028720631177978267,21357.953121648217
0.029848079169243254,20912.285464245193
0.03101978590138095,20428.484130766345
0.03223748878149028,19908.607864885227
0.0335029934197723,19355.466690329224
0.03481817630688963,18772.185299933783
0.03618498759642746,18162.6572082213
0.037605453996581675,17531.362812362877
0.03908168177536263,16882.985021780572
0.04061585988376978,16223.256100459352
0.04221026320156896,15557.874486351398
0.04386725591048496,14892.804831014917
0.0455892949998106,14234.472037664531
0.047378933909631396,13588.730798544631
0.049238826317067365,12962.273349094308
0.05117173007114603,12361.486358203983
0.05318051128214196,11791.264908324669
0.05526814857144601,11254.802361446082
0.057437737488265785,10754.54529387212
0.0596924950997073,10294.604693962781
0.0620357647610427,9880.13024859819
0.06447102107323864,9512.88721040756
0.06700187503509585,9186.703460916104
0.06963207939763882,8894.922048573357
0.0723655342286965,8632.796862669651
0.07520629269592405,8396.110581144052
0.07815856707684081,8176.910946093489
0.08122673500479707,7965.520316962826
0.08441534596012978,7750.742140116375
0.0877291280161335,7521.181031043634
0.09117299484984914,7265.593495698733
0.09475205302806537,6975.523740195907
0.09847160957933764,6646.777422211979
0.1023371798632519,6280.6894513588395
0.10635449574860109,5883.792745087733
0.11052951411260206,5467.284387190251
0.1148684256737553,5045.106105619845
0.1193776641714435,4632.897313573907
0.1240639159058831,4247.575455605998
0.12893412965257148,3905.5044769396773
0.13399552696593373,3619.1940240179983
0.1392556128874462,3393.823997510702
0.14472218707411338,3225.729224180526
0.15040335536380234,3102.63890937943
0.15630754179458153,3007.0252585636754
0.16244350109588662,2918.466945775542
0.16882033167003618,2816.3133453527553
0.17544748908334581,2684.037770807442
0.1823348000868439,2514.702656835992
0.189492477187382,2313.8136014526885
0.19693113379074215,2098.134686432301
0.20466179993919872,1891.6977395771473
0.21269593866686892,1717.5723876718878
0.22104546299710207,1587.6661180267859
0.22972275360711503,1499.4449193860314
0.23874067718606454,1439.5098599072774
0.2481126055137766,1386.466731316708
0.25785243528842716,1318.1063884616865
0.26797460873256895,1224.9675430749862
0.27849413500806414,1114.3232481878454
0.28942661247167484,1004.2810014107325
0.3007882518043098,913.8609256568996
0.31259590004822796,850.2225395486802
0.324867065587837,806.2444040880939
0.3376199441111335,764.9235439381396
0.35087344559027084,712.8404567996238
0.36464722232127456,650.8409225260395
0.37896169806447155,590.0884415001976
0.3938380983288488,542.1492236314316
0.4092984818452433,506.7995995713798
0.4253657732750382,475.04920841288214
0.44206379720285277,438.88837069741766
0.45941731346364734,400.51388005053275
0.47745205385661277,366.753574478665
0.4961947603002895,339.9354494303494
0.5156732244854959,315.55989329831834
0.5359163290848509,290.07859346796863
0.556954090580013,265.4759435310699
0.5788177037701272,244.4102540265163
0.6015395880274836,225.69833514000823
0.6251534353689703,207.33736992463145
0.6496942604146115,190.0516623987053
0.6751984523072497,174.7664334335138
0.7017038286703824,160.64628909691731
0.7292496916841444,147.2689286307075
0.7578768863625915,135.10657145932745
0.7876278611187046,123.9827928365695
0.8185467307069019,113.606848709131
0.850679341636415,104.11164888994136
0.8840733401525058,95.38576577645583
0.9187782428863317,87.35183481016821
0.9548455102782278,79.96106033963582
0.9923286228832539,73.16728596990897
1.0312831606721837,66.92695593368767
1.0717668854455022,61.199026394891916
1.1138398264826193,55.944121424933826
1.1575643695533022,51.12475917683952
1.2030053494233226,46.70625029292986
1.2502301459914542,42.656544946970065
1.299308784200415,38.9460424803536
1.3503140378698726,35.54744378648644
1.4033215376054824,32.43568329313266
1.4584098829439835,29.587630499196184
1.5156607589006013,26.981905052307066
1.575159057091621,24.59875624792716
1.6369930016117014,22.419949136854992
1.7012542798525885,20.428637590190903
1.7680381784572046,18.60926566835922
1.8374437246107238,16.947506751020136
1.9095738328780953,15.430174567913609
1.9845354578058014,14.045137789314722
2.0624397525140905,12.78124085281021
2.143402233514853,11.628231780314769
2.227542951999554,10.576691097648398
2.314986671851158,9.617966830325127
2.405863054644063,8.744115325304577
2.5003068519063225,7.94784628072408
2.598458104929248,7.222469800137435
2.7004623524206774,6.561848430640302
2.806470846309834,5.960357437977324
2.916640776023701,5.412844255464377
3.031135501567576,4.914590534200947
3.150124795755327,4.461277044345452
3.2737850959485697,4.048951058084447
3.4022997656780634,3.6739966721853565
3.5358593665351745,3.333107383030754
3.6746619407366854,3.023260612755835
3.8189133047818515,2.7416942282569643
3.968827354637162,2.4858846010830233
4.1246263829013445,2.2535264063522478
4.286541408420921,2.042515142013818
4.4548125188449825,1.8509303191681905
4.629689226627261,1.677019877925289
4.811430839003257,1.5191858514285639
5.000306842491082,1.3759709809768224
5.196597302486189,1.2460468304354149
5.400593278542364,1.1282029388940358
5.612597255954967,1.0213366346909094
5.8329235942862,0.9244436943364709
6.06189899349756,0.8366097747483348
6.29986297838068,0.7570025584207878
6.547168402004727,0.6848646123486609
6.804181968927091,0.6195068248247892
7.071284778942991,0.5603023928370092
7.348872892180382,0.5066813192123362
7.637357916378006,0.45812531036254434
7.937167617217536,0.4141632181208359
8.248746552614573,0.3743669307319216
8.572556731909314,0.33834752848112093
8.909078300934132,0.3057517704959418
9.258810253973934,0.2762588667960754
9.622271173675122,0.24957749004686275
9.999999999999984,0.22544321055523944
