k [1/Mpc],P(k) [Mpc^3]
0.0001,25.409511045651755
0.00010392556829367125,26.48309295139996
0.00010800523745162529,27.60201266993022
0.00011224505680853065,28.76818389719974
0.00011665131316981963,29.98359978209268
0.00012123054013376525,31.250335256195072
0.00012598952777950273,32.570552276404484
0.00013093533273536104,33.946504829059414
0.00013607528864243335,35.38054235491245
0.00014141701702890234,36.8751122928236
0.00014696843861124463,38.43276269207876
0.00015273778503907136,40.05614799649121
0.00015873361110102093,41.74803413589587
0.00016496480740980205,43.51130316474092
0.0001714406135851971,45.348957790757645
0.00017817063195457305,47.264126282438944
0.00018516484179121546,49.26006771343459
0.000192433614111598,51.340175366578336
0.00019998772705352857,53.507981192278265
0.0002078383818579757,55.767164058636354
0.00021599721947827182,58.12155708639882
0.0002244763378413224,60.575153463882565
0.0002332883097864157,63.132109589319555
0.00024244620170823283,65.79674773733163
0.0002519635929317015,68.57356803215157
0.0002618545958474233,71.46726050177317
0.0002721338768375308,74.4827122258504
0.0002828166780230032,77.62500959533254
0.0002939188398646886,80.8994378939362
0.0003054568246515432,84.31149638357343
0.00031744774091091926,87.86690681343464
0.00032990936877709396,91.57162154428029
0.00034286018635565856,95.43183488508177
0.00035631939712285854,99.45399238014714
0.000370306958400514,103.64480084262492
0.00038484361094874304,108.01123106332682
0.0003999509097203664,112.56052033905279
0.00041565125582259895,117.30019372209617
0.00043196792973341727,122.23807419293496
0.0004489251258218605,127.38229455834984
0.0004665479882234472,132.74130350078855
0.000484862648123908,138.32386221994904
0.000503896262506515,144.13907053975814
0.0005236770544204653,150.196381724416
0.0005442343548300266,156.50561514765542
0.0005655986461065005,163.0769638500513
0.0005878016072274912,169.92097983331013
0.0006108761607505036,177.04860522860776
0.0006348565216305217,184.47118926055558
0.0006597782479539537,192.20049782176145
0.0006856782936641739,200.2487304555608
0.0007125950633568407,208.62850068365188
0.0007405684692262436,217.35286251278424
0.0007696399902471156,226.4353385236424
0.0007998527336796708,235.88992909268788
0.000831251498989063,245.73112950790056
0.0008638828442740447,255.9738976971696
0.000897795155303332,266.63366889856724
0.0009330387172620361,277.7263956151649
0.0009696657893145519,289.26853285078016
0.001007730682094461,301.2770719812481
0.0010472898382363582,313.7695211602239
0.0010884019160690055,326.76389789072965
0.0011311278765939214,340.27877407517144
0.001175531073878369,354.3332263250156
0.0012216773489967915,368.9468753678108
0.0012696351276599736,384.1398689749789
0.0013194755216767058,399.93282231686334
0.0013712724343984,416.34689771835264
0.0014251026703029975,433.4037239448226
0.0014810460488806749,451.12541358513306
0.0015391855229902056,469.534567373369
0.001599607301861487,488.6541227698106
0.0016624009789266115,508.50747174457416
0.0017276596646690358,529.1183956803609
0.0017954801246878305,550.5110288583971
0.0018659629231817451,572.7098897416826
0.001939212572065829,595.7396598437072
0.0020153376859417325,619.6252792559931
0.002094451143151469,644.3918630706822
0.002176670253153458,670.064547725551
0.002262116930469025,696.6686081395154
0.002350917875457286,724.2291934459513
0.002443204762186487,752.7713494114195
0.0025391144336803463,782.3199796865921
0.002638789104828933,812.8995486843736
0.002742376573264949,844.534235534355
0.0028500304385181063,877.247678144645
0.0029619103297725525,911.062873796879
0.0030781821425650787,946.0021928928397
0.003199018284775064,982.0869366586195
0.0033245979322709396,1019.3374745617085
0.003455107294592217,1057.7730515039298
0.0035907398910610534,1097.4115480090045
0.0037316968377327513,1138.269526789757
0.0038781871456107214,1180.3616690418296
0.0040304280305680515,1223.7008209340668
0.00418864523543527,1268.2978421564078
0.004353073364731888,1314.161119930861
0.00452395623253805,1361.296744746262
0.004701547224022131,1409.707816256149
0.004886109671160325,1459.394316371968
0.005077917243205399,1510.353117633761
0.005277254352483535,1562.5771088301199
0.005484416576121017,1616.0555411895082
0.005699711094326071,1670.7733752854544
0.005923457145875801,1726.7108341031048
0.006155986501483508,1783.843739007926
0.006397643955748424,1842.1425782353401
0.0066487878384172625,1901.5727053453684
0.0069097905457156435,1962.092583056215
0.007181039092537346,2023.651513599961
0.007462935686310132,2086.19276770262
0.007755898323389004,2149.658997850369
0.00806036140886134,2213.9908316371357
0.008376776400682916,2279.1160600562844
0.008705612479099857,2344.931993109338
0.009047357242349292,2411.3222805128953
0.00940251742967013,2478.1706222297325
0.009771619672696168,2545.3621833984535
0.010155211276345676,2612.7746492781866
0.010553861030365234,2680.276951869431
0.010968160052731372,2747.7298634870435
0.011398722666160517,2814.9783169231423
0.011846187309026826,2881.8455145132802
0.012311217482038896,2948.1435467623032
0.012794502732078732,3013.6683656292535
0.013296759674662111,3078.202932404414
0.013818733056536317,3141.5186178794766
0.014361196859990781,3203.3710394366394
0.014924955450518284,3263.5063522523114
0.015510844769528393,3321.656354410076
0.016119733573881575,3377.5401919483684
0.01675252472408214,3430.86778607501
0.017410156523040152,3481.328045905249
0.018093604107387147,3528.6021462396097
0.01880388089340914,3572.3620452036957
0.019542040079740527,3612.269466075542
0.02030917620904734,3647.9868373874656
0.021106426791015535,3679.16857445757
0.021934973989050584,3705.4716915567597
0.02279604637318978,3726.559983271078
0.023690920741826323,3742.101039501241
0.02462092401494623,3751.7806061206957
0.02558743520168586,3755.3049653026596
0.02659188744512693,3752.4062615217995
0.027635770147361564,3742.8519844994557
0.028720631177978267,3726.4556868218438
0.029848079169243254,3703.074511475809
0.03101978590138095,3672.6326181159393
0.03223748878149028,3635.12624233701
0.0335029934197723,3590.612212274765
0.03481817630688963,3539.2655843282505
0.03618498759642746,3481.331682835151
0.037605453996581675,3417.1559171266626
0.03908168177536263,3347.222361055145
0.04061585988376978,3272.061143536768
0.04221026320156896,3192.3740266846876
0.04386725591048496,3108.9466191565007
0.0455892949998106,3022.602699702773
0.047378933909631396,2934.3094756807623
0.049238826317067365,2845.006437280399
0.05117173007114603,2755.7732417926304
0.05318051128214196,2667.783340194746
0.05526814857144601,2582.041862027091
0.057437737488265785,2499.240798251727
0.0596924950997073,2419.9289705353203
0.0620357647610427,2344.925519643527
0.06447102107323864,2275.4515425175096
0.06700187503509585,2212.397246558713
0.06963207939763882,2155.2603555684004
0.0723655342286965,2103.1217525950797
0.07520629269592405,2055.1202502935475
0.07815856707684081,2010.4296591714783
0.08122673500479707,1967.890892221829
0.08441534596012978,1926.068383511324
0.0877291280161335,1883.5693321857045
0.09117299484984914,1838.9517589423203
0.09475205302806537,1790.0375383426747
0.09847160957933764,1734.6668819387833
0.1023371798632519,1671.3839649583406
0.10635449574860109,1599.821464588803
0.11052951411260206,1520.802217766548
0.1148684256737553,1436.4043813878372
0.1193776641714435,1349.467398279347
0.1240639159058831,1263.13943496253
0.12893412965257148,1180.570389856207
0.13399552696593373,1104.7719179374915
0.1392556128874462,1038.3123284220428
0.14472218707411338,982.9468962926194
0.15040335536380234,939.0073588120025
0.15630754179458153,904.9314460876075
0.16244350109588662,877.499648432509
0.16882033167003618,852.3582193486692
0.17544748908334581,824.8955500587745
0.1823348000868439,791.3456742606224
0.189492477187382,749.9402521643486
0.19693113379074215,701.5013445266171
0.20466179993919872,649.081579575445
0.21269593866686892,597.2061536803322
0.22104546299710207,550.968633516882
0.22972275360711503,514.1892378632386
0.23874067718606454,487.3307921751995
0.2481126055137766,467.4916274682923
0.25785243528842716,450.06923857697217
0.26797460873256895,430.1556577198483
0.27849413500806414,404.6382009073947
0.28942661247167484,374.45263682066724
0.3007882518043098,343.629901291583
0.31259590004822796,316.73056311863064
0.324867065587837,296.29800037000246
0.3376199441111335,281.1194593003713
0.35087344559027084,267.49020531761795
0.36464722232127456,251.665913699424
0.37896169806447155,233.07458173138153
0.3938380983288488,214.40640515875936
0.4092984818452433,198.60064198831566
0.4253657732750382,186.33991888109702
0.44206379720285277,175.48990219668843
0.45941731346364734,163.78367458577898
0.47745205385661277,151.29538661259406
0.4961947603002895,139.84010722239168
0.5156732244854959,130.32879149473095
0.5359163290848509,121.77441667544726
0.556954090580013,113.0434751204111
0.5788177037701272,104.4637115895843
0.6015395880274836,96.85553775207255
0.6251534353689703,90.06534945082495
0.6496942604146115,83.46982930020388
0.6751984523072497,77.16477467554718
0.7017038286703824,71.47384731182989
0.7292496916841444,66.21232408350232
0.7578768863625915,61.20242007934247
0.7876278611187046,56.576016742950394
0.8185467307069019,52.31565062113797
0.850679341636415,48.31810506351917
0.8840733401525058,44.61689974274679
0.9187782428863317,41.191692985986435
0.9548455102782278,38.01051268101104
0.9923286228832539,35.05875273504528
1.0312831606721837,32.322382425622585
1.0717668854455022,29.787904759487407
1.1138398264826193,27.44237291863644
1.1575643695533022,25.2730732551396
1.2030053494233226,23.267494983012437
1.2502301459914542,21.41391548840493
1.299308784200415,19.701401733595798
1.3503140378698726,18.11976082202233
1.4033215376054824,16.659508049829604
1.4584098829439835,15.311885787496715
1.5156607589006013,14.068742585663491
1.575159057091621,12.92246246504075
1.6369930016117014,11.865935083640753
1.7012542798525885,10.892526734869216
1.7680381784572046,9.996039677867593
1.8374437246107238,9.17068717236619
1.9095738328780953,8.41108852215309
1.9845354578058014,7.712244518824569
2.0624397525140905,7.069512801887641
2.143402233514853,6.47858507670866
2.227542951999554,5.935466799574402
2.314986671851158,5.4364541136988604
2.405863054644063,4.978113639639261
2.5003068519063225,4.557264329996521
2.598458104929248,4.170960322339045
2.7004623524206774,3.816473155317327
2.806470846309834,3.49127718839046
2.916640776023701,3.193037751110843
3.031135501567576,2.919597730129149
3.150124795755327,2.668964893696412
3.2737850959485697,2.439299964106203
3.4022997656780634,2.2289053448479152
3.5358593665351745,2.0362151198063705
3.6746619407366854,1.859785486436757
3.8189133047818515,1.698285737249396
3.968827354637162,1.5504898476124966
4.1246263829013445,1.415268436234079
4.286541408420921,1.291581591371202
4.4548125188449825,1.1784723630847576
4.629689226627261,1.0750604542079414
4.811430839003257,0.9805363519921606
5.000306842491082,0.8941557967317946
5.196597302486189,0.8152345626188731
5.400593278542364,0.7431440960293494
5.612597255954967,0.6773072300449323
5.8329235942862,0.6171941395718819
6.06189899349756,0.5623185973153216
6.29986297838068,0.5122344789144747
6.547168402004727,0.46653258736106823
6.804181968927091,0.4248377352936494
7.071284778942991,0.386806012879303
7.348872892180382,0.352122264945413
7.637357916378006,0.32049774798125946
7.937167617217536,0.29166796134815837
8.248746552614573,0.26539071771065725
8.572556731909314,0.24144432468393845
8.909078300934132,0.21962590008450703
9.258810253973934,0.19974981471431322
9.622271173675122,0.18164619588511224
9.999999999999984,0.16515966681485328
