k [1/Mpc],P(k) [Mpc^3]
0.0001,367.1219904500803
0.00010392556829367125,383.6684747892901
0.00010800523745162529,400.95452876359917
0.00011224505680853065,419.0124278217737
0.00011665131316981963,437.8757816571286
0.00012123054013376525,457.5795292948323
0.00012598952777950273,478.16002832488147
0.00013093533273536104,499.6550531185345
0.00013607528864243335,522.1038013055659
0.00014141701702890234,545.5470240172191
0.00014696843861124463,570.02702828074
0.00015273778503907136,595.5877554806056
0.00015873361110102093,622.2747725709283
0.00016496480740980205,650.135186044101
0.0001714406135851971,679.2178403550838
0.00017817063195457305,709.5732799003719
0.00018516484179121546,741.2538076291348
0.000192433614111598,774.3135327522008
0.00019998772705352857,808.8081674089943
0.0002078383818579757,844.7952585955198
0.00021599721947827182,882.3341256409325
0.0002244763378413224,921.4858290878489
0.0002332883097864157,962.3132984223342
0.00024244620170823283,1004.8809452886444
0.0002519635929317015,1049.254894701626
0.0002618545958474233,1095.5030239037526
0.0002721338768375308,1143.6948115944267
0.0002828166780230032,1193.9014825100244
0.0002939188398646886,1246.1954089329613
0.0003054568246515432,1300.650212620656
0.00031744774091091926,1357.3409698218156
0.00032990936877709396,1416.3438929225763
0.00034286018635565856,1477.7364922320521
0.00035631939712285854,1541.597030595201
0.000370306958400514,1608.0043321969342
0.00038484361094874304,1677.0380265320616
0.0003999509097203664,1748.7779507016487
0.00041565125582259895,1823.3043081178869
0.00043196792973341727,1900.6972890930451
0.0004489251258218605,1981.0365896101714
0.0004665479882234472,2064.4016260241
0.000484862648123908,2150.8707642846084
0.000503896262506515,2240.521282363118
0.0005236770544204653,2333.429061048403
0.0005442343548300266,2429.6676870726874
0.0005655986461065005,2529.3087052940564
0.0005878016072274912,2632.4203232690706
0.0006108761607505036,2739.067036328144
0.0006348565216305217,2849.309577023298
0.0006597782479539537,2963.2029302418023
0.0006856782936641739,3080.7969808670096
0.0007125950633568407,3202.13481280478
0.0007405684692262436,3327.251345483451
0.0007696399902471156,3456.174186139288
0.0007998527336796708,3588.9207072743848
0.000831251498989063,3725.4985506108624
0.0008638828442740447,3865.9044295879976
0.000897795155303332,4010.121390809432
0.0009330387172620361,4158.120520215455
0.0009696657893145519,4309.859443714987
0.001007730682094461,4465.281770212315
0.0010472898382363582,4624.31612402543
0.0010884019160690055,4786.872883830681
0.0011311278765939214,4952.845579153844
0.001175531073878369,5122.109352923465
0.0012216773489967915,5294.519893052672
0.0012696351276599736,5469.914502646168
0.0013194755216767058,5648.11332558656
0.0013712724343984,5828.91768649176
0.0014251026703029975,6012.104384045248
0.0014810460488806749,6197.421212677197
0.0015391855229902056,6384.596657863365
0.001599607301861487,6573.3748262322
0.0016624009789266115,6763.504158022798
0.0017276596646690358,6954.702188554598
0.0017954801246878305,7146.624512922098
0.0018659629231817451,7338.89761691478
0.001939212572065829,7531.131695444579
0.0020153376859417325,7722.921302811667
0.002094451143151469,7913.845600621201
0.002176670253153458,8103.484725267962
0.002262116930469025,8291.408824889633
0.002350917875457286,8477.17354646933
0.002443204762186487,8660.321039421084
0.0025391144336803463,8840.383797345401
0.002638789104828933,9016.900766619647
0.002742376573264949,9189.411700347935
0.0028500304385181063,9357.448968908338
0.0029619103297725525,9520.535740972953
0.0030781821425650787,9678.194131468998
0.003199018284775064,9829.970539439713
0.0033245979322709396,9975.433494891375
0.003455107294592217,10114.117850384131
0.0035907398910610534,10245.409787660908
0.0037316968377327513,10368.669870500964
0.0038781871456107214,10483.585219116925
0.0040304280305680515,10590.250175315605
0.00418864523543527,10688.647016997968
0.004353073364731888,10777.696294696127
0.00452395623253805,10855.890796338652
0.004701547224022131,10922.312486833345
0.004886109671160325,10977.188070300526
0.005077917243205399,11020.844065963882
0.005277254352483535,11052.850176222293
0.005484416576121017,11072.305068245316
0.005699711094326071,11078.555357469333
0.005923457145875801,11071.666093874315
0.006155986501483508,11051.859894872348
0.006397643955748424,11019.012274494473
0.0066487878384172625,10972.660873044544
0.0069097905457156435,10912.376699156981
0.007181039092537346,10837.753603634388
0.007462935686310132,10748.444569730866
0.007755898323389004,10644.185974363374
0.00806036140886134,10524.805815167821
0.008376776400682916,10390.209623268878
0.008705612479099857,10240.28058239125
0.009047357242349292,10074.948804743197
0.00940251742967013,9894.171362685443
0.009771619672696168,9697.813762505843
0.010155211276345676,9485.848416186307
0.010553861030365234,9258.191960037155
0.010968160052731372,9014.777205748387
0.011398722666160517,8755.737484544892
0.011846187309026826,8481.373097257689
0.012311217482038896,8192.204661466609
0.012794502732078732,7888.696199109071
0.013296759674662111,7571.225906423438
0.013818733056536317,7240.450092326733
0.014361196859990781,6897.013204334381
0.014924955450518284,6541.840689263046
0.015510844769528393,6176.150373192188
0.016119733573881575,5801.312206451283
0.01675252472408214,5419.133625044908
0.017410156523040152,5031.364037974042
0.018093604107387147,4639.999574005291
0.01880388089340914,4247.490487843678
0.019542040079740527,3856.345499948267
0.02030917620904734,3469.6057293380727
0.021106426791015535,3090.3430234615776
0.021934973989050584,2721.707772992251
0.02279604637318978,2367.22786651217
0.023690920741826323,2030.0488041293877
0.02462092401494623,1713.5216705038947
0.02558743520168586,1420.7281243384373
0.02659188744512693,1154.1820970694673
0.027635770147361564,916.2754750101057
0.028720631177978267,708.3602059126928
0.029848079169243254,531.1789621843834
0.03101978590138095,384.81481504972965
0.03223748878149028,268.2335463316483
0.0335029934197723,179.1010178784761
0.03481817630688963,113.30418362126198
0.03618498759642746,66.77706919581853
0.037605453996581675,36.503392328422926
0.03908168177536263,19.542159653254544
0.04061585988376978,11.00909041666355
0.04221026320156896,7.185608997313878
0.04386725591048496,6.194118708036636
0.0455892949998106,7.8527403823370925
0.047378933909631396,13.270831468315304
0.049238826317067365,24.59196365142203
0.05117173007114603,43.83119305635286
0.05318051128214196,73.48473048944449
0.05526814857144601,114.7322400038445
0.057437737488265785,166.23279295065637
0.0596924950997073,223.24806490475717
0.0620357647610427,278.75449097949985
0.06447102107323864,324.68300603317294
0.06700187503509585,352.81631981722944
0.06963207939763882,356.38767796274385
0.0723655342286965,331.5002862232486
0.07520629269592405,281.2966412247035
0.07815856707684081,215.73121022383717
0.08122673500479707,147.68914189075153
0.08441534596012978,87.67228071058943
0.0877291280161335,43.4458349589272
0.09117299484984914,17.46121312289758
0.09475205302806537,5.30031182534946
0.09847160957933764,1.9541795532200787
0.1023371798632519,1.9433991556974324
0.10635449574860109,4.717894336001271
0.11052951411260206,14.517819829538603
0.1148684256737553,32.59583966618114
0.1193776641714435,55.7280317881566
0.1240639159058831,75.04944936922209
0.12893412965257148,81.55216590590909
0.13399552696593373,70.98419633130642
0.1392556128874462,48.52522705133259
0.14472218707411338,26.070667156743735
0.15040335536380234,11.213278390006398
0.15630754179458153,4.674614930236258
0.16244350109588662,3.483544959941447
0.16882033167003618,5.820349369122823
0.17544748908334581,12.017468259627025
0.1823348000868439,19.85013571277474
0.189492477187382,23.592292214293913
0.19693113379074215,20.45018632667157
0.20466179993919872,13.097463561992052
0.21269593866686892,7.009501785776334
0.22104546299710207,4.418459959542758
0.22972275360711503,4.661393066644484
0.23874067718606454,6.779577628712787
0.2481126055137766,8.751019235449156
0.25785243528842716,8.479526363338705
0.26797460873256895,6.2262430255241705
0.27849413500806414,4.215407284645679
0.28942661247167484,3.5886914418032814
0.3007882518043098,4.004003841757911
0.31259590004822796,4.440336130558772
0.324867065587837,4.053645045233087
0.3376199441111335,3.1913697654979485
0.35087344559027084,2.6870933641894608
0.36464722232127456,2.6545131763022454
0.37896169806447155,2.645036296543344
0.3938380983288488,2.357747676228905
0.4092984818452433,2.0243652366075597
0.4253657732750382,1.8625315063062362
0.44206379720285277,1.783349114958879
0.45941731346364734,1.6086436657843461
0.47745205385661277,1.4389619568842185
0.4961947603002895,1.3282352746989994
0.5156732244854959,1.2246107605721372
0.5359163290848509,1.1076858860194247
0.556954090580013,1.0113679563388347
0.5788177037701272,0.9277577307154852
0.6015395880274836,0.8443465497590976
0.6251534353689703,0.7706853007136938
0.6496942604146115,0.7042561864273065
0.6751984523072497,0.641603325782347
0.7017038286703824,0.584752186169953
0.7292496916841444,0.5332886920688252
0.7578768863625915,0.4865510240437982
0.7876278611187046,0.4439766442650699
0.8185467307069019,0.4050865252955644
0.850679341636415,0.3694774021340707
0.8840733401525058,0.3368651495392627
0.9187782428863317,0.3070312191966497
0.9548455102782278,0.27976826229605495
0.9923286228832539,0.2548795608651152
1.0312831606721837,0.23217926567292563
1.0717668854455022,0.2114888224931357
1.1138398264826193,0.1926303764854279
1.1575643695533022,0.17543963410697852
1.2030053494233226,0.15976750550590288
1.2502301459914542,0.14547863417413254
1.299308784200415,0.13245013108259363
1.3503140378698726,0.1205717553928768
1.4033215376054824,0.10974436638383674
1.4584098829439835,0.09987714170215378
1.5156607589006013,0.09088682890988468
1.575159057091621,0.08269714769979004
1.6369930016117014,0.07523814778190942
1.7012542798525885,0.06844532746214865
1.7680381784572046,0.0622596471289254
1.8374437246107238,0.05662727134845098
1.9095738328780953,0.051499111721555905
1.9845354578058014,0.046830410253022245
2.0624397525140905,0.042580423173551714
2.143402233514853,0.03871209497318225
2.227542951999554,0.035191607461073166
2.314986671851158,0.03198808947197384
2.405863054644063,0.029073365290280498
2.5003068519063225,0.02642172216690776
2.598458104929248,0.024009682383462495
2.7004623524206774,0.021815824423559636
2.806470846309834,0.019820618687874846
2.916640776023701,0.018006262888466937
3.031135501567576,0.016356531344726342
3.150124795755327,0.01485663696567931
3.2737850959485697,0.013493104953333468
3.4022997656780634,0.01225365861245892
3.5358593665351745,0.011127114330856966
3.6746619407366854,0.010103285469370534
3.8189133047818515,0.00917289453770922
3.968827354637162,0.008327492082202613
4.1246263829013445,0.007559383922349788
4.286541408420921,0.006861565519840289
4.4548125188449825,0.006227660890847703
4.629689226627261,0.005651866813747469
4.811430839003257,0.005128902063652459
5.000306842491082,0.0046539614767339395
5.196597302486189,0.0042226728971671715
5.400593278542364,0.0038310583322048153
5.612597255954967,0.0034754988089702415
5.8329235942862,0.0031527023187385684
6.06189899349756,0.0028596740972505912
6.29986297838068,0.002593689888849354
6.547168402004727,0.002352272624025781
6.804181968927091,0.0021331702741600855
7.071284778942991,0.0019343355854747205
7.348872892180382,0.001753907614943052
7.637357916378006,0.0015901948735983402
7.937167617217536,0.0014416600647062842
8.248746552614573,0.0013069061804702325
8.572556731909314,0.0011846638061505264
8.909078300934132,0.001073779562491231
9.258810253973934,0.0009732055404834811
9.622271173675122,0.000881989669744927
9.999999999999984,0.0007992671462285609
