k [1/Mpc],P(k) [Mpc^3]
0.0001,1705.9152099580917
0.00010392556829367125,1772.534750735756
0.00010800523745162529,1841.7274447197458
0.00011224505680853065,1913.5893277989517
0.00011665131316981963,1988.2196768203958
0.00012123054013376525,2065.720902384679
0.00012598952777950273,2146.1988415385226
0.00013093533273536104,2229.7624696295256
0.00013607528864243335,2316.5240017761416
0.00014141701702890234,2406.5992320310984
0.00014696843861124463,2500.10738224774
0.00015273778503907136,2597.1713696699862
0.00015873361110102093,2697.9174407080714
0.00016496480740980205,2802.475022866879
0.0001714406135851971,2910.977224565075
0.00017817063195457305,3023.560198679074
0.00018516484179121546,3140.3635729118187
0.000192433614111598,3261.53036707874
0.00019998772705352857,3387.2065504260845
0.0002078383818579757,3517.5415926204323
0.00021599721947827182,3652.6873434891145
0.0002244763378413224,3792.798312420163
0.0002332883097864157,3938.031831224298
0.00024244620170823283,4088.546852105971
0.0002519635929317015,4244.504918265746
0.0002618545958474233,4406.069235721051
0.0002721338768375308,4573.404427809605
0.0002828166780230032,4746.676847264415
0.0002939188398646886,4926.052525805062
0.0003054568246515432,5111.69823863076
0.00031744774091091926,5303.780431231995
0.00032990936877709396,5502.464037377311
0.00034286018635565856,5707.913690763805
0.00035631939712285854,5920.292178684155
0.000370306958400514,6139.7606261566325
0.00038484361094874304,6366.477238882231
0.0003999509097203664,6600.594779781387
0.00041565125582259895,6842.262377337552
0.00043196792973341727,7091.624114996184
0.0004489251258218605,7348.8185931005155
0.0004665479882234472,7613.978108027615
0.000484862648123908,7887.225258850962
0.000503896262506515,8168.674448612154
0.0005236770544204653,8458.430054428602
0.0005442343548300266,8756.585139786845
0.0005655986461065005,9063.22119451206
0.0005878016072274912,9378.402351645798
0.0006108761607505036,9702.177338317098
0.0006348565216305217,10034.577513909002
0.0006597782479539537,10375.61350315011
0.0006856782936641739,10725.276602758726
0.0007125950633568407,11083.528666277582
0.0007405684692262436,11450.304092040826
0.0007696399902471156,11825.510245391164
0.0007998527336796708,12209.02054402383
0.000831251498989063,12600.678597136972
0.0008638828442740447,13000.289428410077
0.000897795155303332,13407.618370154318
0.0009330387172620361,13822.39439032561
0.0009696657893145519,14244.302993264278
0.001007730682094461,14672.98951791343
0.0010472898382363582,15108.056634051703
0.0010884019160690055,15549.061986191837
0.0011311278765939214,15995.518667823273
0.001175531073878369,16446.88445757096
0.0012216773489967915,16902.566617050205
0.0012696351276599736,17361.928572598972
0.0013194755216767058,17824.292718304503
0.0013712724343984,18288.93393187959
0.0014251026703029975,18755.061237301627
0.0014810460488806749,19221.823234383275
0.0015391855229902056,19688.34784224642
0.001599607301861487,20153.803413087575
0.0016624009789266115,20617.336350318077
0.0017276596646690358,21078.01531987503
0.0017954801246878305,21534.830628994598
0.0018659629231817451,21986.72730544799
0.001939212572065829,22432.583486494117
0.0020153376859417325,22871.23347800724
0.002094451143151469,23301.51184519899
0.002176670253153458,23722.274303671813
0.002262116930469025,24132.36363483942
0.002350917875457286,24530.626717658968
0.002443204762186487,24915.9103235672
0.0025391144336803463,25287.063463203805
0.002638789104828933,25642.949895074227
0.002742376573264949,25982.44371355705
0.0028500304385181063,26304.453954176493
0.0029619103297725525,26607.92454600644
0.0030781821425650787,26891.816843561974
0.003199018284775064,27155.09640623037
0.0033245979322709396,27396.7571116195
0.003455107294592217,27615.843323243345
0.0035907398910610534,27811.456803742127
0.0037316968377327513,27982.67642317879
0.0038781871456107214,28128.221887491363
0.0040304280305680515,28246.730735944107
0.00418864523543527,28337.564610336147
0.004353073364731888,28401.258477517164
0.00452395623253805,28438.286726201786
0.004701547224022131,28446.890528893276
0.004886109671160325,28424.14142866234
0.005077917243205399,28367.948603667235
0.005277254352483535,28278.241695408844
0.005484416576121017,28155.360338102684
0.005699711094326071,27999.638273826447
0.005923457145875801,27811.425883856184
0.006155986501483508,27590.983334014567
0.006397643955748424,27337.86803602136
0.0066487878384172625,27051.58244401226
0.0069097905457156435,26731.61609701167
0.007181039092537346,26377.422178791505
0.007462935686310132,25988.66018838869
0.007755898323389004,25565.213137187013
0.00806036140886134,25107.2063760456
0.008376776400682916,24614.839483760377
0.008705612479099857,24088.249604210465
0.009047357242349292,23527.806154703132
0.00940251742967013,22933.661173265526
0.009771619672696168,22306.03329420821
0.010155211276345676,21645.308154246293
0.010553861030365234,20951.558386448534
0.010968160052731372,20225.31729117512
0.011398722666160517,19467.558321891196
0.011846187309026826,18679.74848648313
0.012311217482038896,17863.70365584333
0.012794502732078732,17020.395973518294
0.013296759674662111,16151.387348752738
0.013818733056536317,15258.967838846409
0.014361196859990781,14346.061245637236
0.014924955450518284,13416.324025191281
0.015510844769528393,12471.379061517982
0.016119733573881575,11513.540312065408
0.01675252472408214,10549.217297569783
0.017410156523040152,9589.748835102324
0.018093604107387147,8645.270702325273
0.01880388089340914,7708.758265026485
0.019542040079740527,6769.935282659715
0.02030917620904734,5843.928148749595
0.021106426791015535,4987.579000057079
0.021934973989050584,4236.938306330479
0.02279604637318978,3523.5924436995538
0.023690920741826323,2750.8132456469907
0.02462092401494623,1970.0467267895951
0.02558743520168586,1416.7292581683546
0.02659188744512693,1160.8968127171804
0.027635770147361564,957.4994774252284
0.028720631177978267,464.06045298990233
0.029848079169243254,84.167160540052
0.03101978590138095,11.736092004717364
0.03223748878149028,4.878210841155611
0.0335029934197723,12.132801301791767
0.03481817630688963,65.98148371529565
0.03618498759642746,231.13062231804085
0.037605453996581675,376.7239246781769
0.03908168177536263,433.8551976066596
0.04061585988376978,502.9678904481928
0.04221026320156896,588.0612496801979
0.04386725591048496,635.8534568122827
0.0455892949998106,611.7474760679605
0.047378933909631396,535.0777100863766
0.049238826317067365,431.1767241100345
0.05117173007114603,306.11086624442106
0.05318051128214196,178.91686530693352
0.05526814857144601,75.52160360231561
0.057437737488265785,20.65711909354022
0.0596924950997073,8.31014601462912
0.0620357647610427,18.79329808615521
0.06447102107323864,105.65814081814145
0.06700187503509585,239.83817206453622
0.06963207939763882,283.3284082361383
0.0723655342286965,332.0683748111131
0.07520629269592405,346.51970387897853
0.07815856707684081,279.73935026608143
0.08122673500479707,186.6782397978547
0.08441534596012978,131.14039783566713
0.0877291280161335,18.286790946397396
0.09117299484984914,2.2842765469266832
0.09475205302806537,10.988302129390394
0.09847160957933764,51.49116676704484
0.1023371798632519,75.35942341364506
0.10635449574860109,82.11827159362214
0.11052951411260206,60.99603919513837
0.1148684256737553,18.43395394358412
0.1193776641714435,3.613612281582762
0.1240639159058831,4.88461900727017
0.12893412965257148,39.383287938308364
0.13399552696593373,57.93415486745434
0.1392556128874462,55.608599649862654
0.14472218707411338,35.90360223313072
0.15040335536380234,4.601380611378523
0.15630754179458153,0.43749933525361107
0.16244350109588662,8.584951421263655
0.16882033167003618,12.818562523124646
0.17544748908334581,7.902267712170986
0.1823348000868439,0.7850522010529445
0.189492477187382,1.6294695823669285
0.19693113379074215,9.846408896051868
0.20466179993919872,10.486838642079045
0.21269593866686892,3.866815543265876
0.22104546299710207,0.12994720925581685
0.22972275360711503,1.2228157518803275
0.23874067718606454,1.1157335425220298
0.2481126055137766,0.04062281667161537
0.25785243528842716,1.3519548692661494
0.26797460873256895,2.2080417203049816
0.27849413500806414,0.9424550811758301
0.28942661247167484,0.016633371236494537
0.3007882518043098,0.09849179468063952
0.31259590004822796,0.006695210317912766
0.324867065587837,0.30291810919805723
0.3376199441111335,0.47262336319318154
0.35087344559027084,0.1374859698923483
0.36464722232127456,0.0050055340520711745
0.37896169806447155,0.01866795153359164
0.3938380983288488,0.12435863835393077
0.4092984818452433,0.1308334554284736
0.4253657732750382,0.03942241181243457
0.44206379720285277,0.024408226896506402
0.45941731346364734,0.05560040582958565
0.47745205385661277,0.05844180899436728
0.4961947603002895,0.03139173084794559
0.5156732244854959,0.028662588485813132
0.5359163290848509,0.03640440008840783
0.556954090580013,0.02873598854538899
0.5788177037701272,0.023052750912882555
0.6015395880274836,0.024224131123854065
0.6251534353689703,0.02112613531425799
0.6496942604146115,0.018389483041832237
0.6751984523072497,0.016565144152653154
0.7017038286703824,0.015026743161738984
0.7292496916841444,0.013694597909648923
0.7578768863625915,0.012509101241436282
0.7876278611187046,0.011425440476668164
0.8185467307069019,0.010410512673339072
0.850679341636415,0.009450865341178828
0.8840733401525058,0.008554100201145193
0.9187782428863317,0.007726362472366755
0.9548455102782278,0.006970573313029415
0.9923286228832539,0.006287084285753634
1.0312831606721837,0.005674022728558764
1.0717668854455022,0.005124977961960019
1.1138398264826193,0.004631872841922226
1.1575643695533022,0.004187795661970004
1.2030053494233226,0.0037868586861297274
1.2502301459914542,0.00342403354109623
1.299308784200415,0.003095152771905429
1.3503140378698726,0.0027971057784561613
1.4033215376054824,0.002527175859488075
1.4584098829439835,0.0022828578237042998
1.5156607589006013,0.002061845615161836
1.575159057091621,0.001862019544061221
1.6369930016117014,0.0016814123651428985
1.7012542798525885,0.0015181996251957934
1.7680381784572046,0.0013707247331104947
1.8374437246107238,0.0012374863864991151
1.9095738328780953,0.00111712432230264
1.9845354578058014,0.0010084057412060605
2.0624397525140905,0.0009102092459628097
2.143402233514853,0.000821518569654443
2.227542951999554,0.0007414157359635
2.314986671851158,0.0006690715305188384
2.405863054644063,0.0006037368760468725
2.5003068519063225,0.0005447359137404405
2.598458104929248,0.000491460159945887
2.7004623524206774,0.00044335935814651597
2.806470846309834,0.00039993548963843247
2.916640776023701,0.00036073789062459835
3.031135501567576,0.00032535880805184975
3.150124795755327,0.00029342915187559565
3.2737850959485697,0.0002646149256956734
3.4022997656780634,0.00023861420245300727
3.5358593665351745,0.00021515408730083736
3.6746619407366854,0.00019398795103300792
3.8189133047818515,0.00017489284589210647
3.968827354637162,0.00015766685327876673
4.1246263829013445,0.0001421275198703116
4.286541408420921,0.00012811020651811122
4.4548125188449825,0.00011546634391549266
4.629689226627261,0.00010406186049701778
4.811430839003257,9.377603295115392e-05
5.000306842491082,8.450040054051558e-05
5.196597302486189,7.613691570240587e-05
5.400593278542364,6.859687847297887e-05
5.612597255954967,6.180006751823643e-05
5.8329235942862,5.567393166105164e-05
6.06189899349756,5.015260088886908e-05
6.29986297838068,4.5176406532616824e-05
6.547168402004727,4.069157603401611e-05
6.804181968927091,3.6649655393089776e-05
7.071284778942991,3.3006979801758325e-05
7.348872892180382,2.9724229344706307e-05
7.637357916378006,2.6766106153197975e-05
7.937167617217536,2.4100786226681517e-05
8.248746552614573,2.1699528298971478e-05
8.572556731909314,1.9536379837883535e-05
8.909078300934132,1.7587910081323015e-05
9.258810253973934,1.583292867378914e-05
9.622271173675122,1.4252257347070881e-05
9.999999999999984,1.2828613884087827e-05
