k [1/Mpc],P(k) [Mpc^3]
0.0001,435.59510547797476
0.00010392556829367125,450.0815810442684
0.00010800523745162529,465.0493331511303
0.00011224505680853065,480.5142970879829
0.00011665131316981963,496.4929305417568
0.00012123054013376525,513.0022278445574
0.00012598952777950273,530.0597365364171
0.00013093533273536104,547.6835774470462
0.00013607528864243335,565.8924517448112
0.00014141701702890234,584.7056670588064
0.00014696843861124463,604.1431511591002
0.00015273778503907136,624.2254622865805
0.00015873361110102093,644.973826628803
0.00016496480740980205,666.4101822318289
0.0001714406135851971,688.5571953243095
0.00017817063195457305,711.4382484953574
0.00018516484179121546,735.0774139195873
0.000192433614111598,759.4995247912859
0.00019998772705352857,784.7302120239403
0.0002078383818579757,810.795929156599
0.00021599721947827182,837.7239718270228
0.0002244763378413224,865.5424797005385
0.0002332883097864157,894.2804782678867
0.00024244620170823283,923.9678831946404
0.0002519635929317015,954.6355020923403
0.0002618545958474233,986.3150999775412
0.0002721338768375308,1019.0393873182676
0.0002828166780230032,1052.842063734299
0.0002939188398646886,1087.7578564692215
0.0003054568246515432,1123.8225189890186
0.00031744774091091926,1161.0728899645298
0.00032990936877709396,1199.5468633716953
0.00034286018635565856,1239.283413691528
0.00035631939712285854,1280.3226479626753
0.000370306958400514,1322.7056883322598
0.00038484361094874304,1366.4748053203332
0.0003999509097203664,1411.6735071897162
0.00041565125582259895,1458.3465768633585
0.00043196792973341727,1506.5400558191475
0.0004489251258218605,1556.3009692308974
0.0004665479882234472,1607.677468329155
0.000484862648123908,1660.719021557873
0.000503896262506515,1715.476452343075
0.0005236770544204653,1772.00193763746
0.0005442343548300266,1830.3486815835497
0.0005655986461065005,1890.5709322224598
0.0005878016072274912,1952.7242806207203
0.0006108761607505036,2016.8656847723291
0.0006348565216305217,2083.053486577144
0.0006597782479539537,2151.3470775777537
0.0006856782936641739,2221.8066975859583
0.0007125950633568407,2294.4938569956075
0.0007405684692262436,2369.4712786379037
0.0007696399902471156,2446.8029445485126
0.0007998527336796708,2526.5538888226492
0.000831251498989063,2608.7897785159885
0.0008638828442740447,2693.5773568640575
0.000897795155303332,2780.984217992825
0.0009330387172620361,2871.0788013514834
0.0009696657893145519,2963.9304252929333
0.001007730682094461,3059.6086836324675
0.0010472898382363582,3158.1838398289865
0.0010884019160690055,3259.7263825091823
0.0011311278765939214,3364.3066793158914
0.001175531073878369,3471.9954299856536
0.0012216773489967915,3582.8626887153496
0.0012696351276599736,3696.978221147933
0.0013194755216767058,3814.4113738949263
0.0013712724343984,3935.2302830542635
0.0014251026703029975,4059.5024741845914
0.0014810460488806749,4187.293356589748
0.0015391855229902056,4318.666229235429
0.001599607301861487,4453.682858181421
0.0016624009789266115,4592.402275283566
0.0017276596646690358,4734.881393581961
0.0017954801246878305,4881.173694337406
0.0018659629231817451,5031.3284154639505
0.001939212572065829,5185.391576954
0.0020153376859417325,5343.40431219941
0.002094451143151469,5505.403346622268
0.002176670253153458,5671.4198973066195
0.002262116930469025,5841.477499310186
0.002350917875457286,6015.593957980142
0.002443204762186487,6193.780063784562
0.0025391144336803463,6376.039429962614
0.002638789104828933,6562.367917224369
0.002742376573264949,6752.750257826769
0.0028500304385181063,6947.162188364108
0.0029619103297725525,7145.569740597043
0.0030781821425650787,7347.928449543014
0.003199018284775064,7554.183400169389
0.0033245979322709396,7764.26526431713
0.003455107294592217,7978.091857319841
0.0035907398910610534,8195.5683906507
0.0037316968377327513,8416.586148945571
0.0038781871456107214,8641.023008162561
0.0040304280305680515,8868.740052200224
0.00418864523543527,9099.581880974323
0.004353073364731888,9333.377406168016
0.00452395623253805,9569.937414530454
0.004701547224022131,9809.056086616398
0.004886109671160325,10050.508447659051
0.005077917243205399,10294.049475112342
0.005277254352483535,10539.415577288095
0.005484416576121017,10786.319034621323
0.005699711094326071,11034.451355706751
0.005923457145875801,11283.483572252338
0.006155986501483508,11533.064480317329
0.006397643955748424,11782.82167512264
0.0066487878384172625,12032.341801312756
0.0069097905457156435,12281.17711759825
0.007181039092537346,12528.875942381701
0.007462935686310132,12775.022275614769
0.007755898323389004,13019.192209855417
0.00806036140886134,13260.838172918222
0.008376776400682916,13499.276876546674
0.008705612479099857,13733.810081317339
0.009047357242349292,13963.81201963187
0.00940251742967013,14188.674531767034
0.009771619672696168,14407.787146221184
0.010155211276345676,14620.546611631004
0.010553861030365234,14826.336480207628
0.010968160052731372,15024.449741962288
0.011398722666160517,15214.122172292067
0.011846187309026826,15394.577248963527
0.012311217482038896,15565.019239390253
0.012794502732078732,15724.648901932127
0.013296759674662111,15872.650660652453
0.013818733056536317,16008.197024299036
0.014361196859990781,16130.469817207362
0.014924955450518284,16238.656416677028
0.015510844769528393,16331.962632830197
0.016119733573881575,16409.585415753656
0.01675252472408214,16470.69623694337
0.017410156523040152,16514.49948434329
0.018093604107387147,16540.231915959273
0.01880388089340914,16547.17649392171
0.019542040079740527,16534.664570645815
0.02030917620904734,16502.061653379278
0.021106426791015535,16448.804261201367
0.021934973989050584,16374.410466332338
0.02279604637318978,16278.487649021848
0.023690920741826323,16160.74863711472
0.02462092401494623,16021.041597268673
0.02558743520168586,15859.334112951185
0.02659188744512693,15675.75512482355
0.027635770147361564,15470.617752406226
0.028720631177978267,15244.371205843712
0.029848079169243254,14997.726731697374
0.03101978590138095,14731.56981067386
0.03223748878149028,14446.97769554407
0.0335029934197723,14145.351672205163
0.03481817630688963,13828.19039653678
0.03618498759642746,13497.295306153734
0.037605453996581675,13154.681709922974
0.03908168177536263,12802.422459984105
0.04061585988376978,12442.93932848899
0.04221026320156896,12078.634216965102
0.04386725591048496,11711.945630617403
0.0455892949998106,11345.383185030034
0.047378933909631396,10981.284242051008
0.049238826317067365,10622.064771390413
0.05117173007114603,10270.006582238908
0.05318051128214196,9926.78371101177
0.05526814857144601,9593.122111618792
0.057437737488265785,9269.575463510411
0.0596924950997073,8957.226851936599
0.0620357647610427,8657.461742332398
0.06447102107323864,8370.409773975833
0.06700187503509585,8092.052941371534
0.06963207939763882,7817.954811497769
0.0723655342286965,7546.14705450364
0.07520629269592405,7276.663949882032
0.07815856707684081,7008.3894984310655
0.08122673500479707,6738.1591208581385
0.08441534596012978,6463.176056136617
0.0877291280161335,6181.346136235184
0.09117299484984914,5891.893778100067
0.09475205302806537,5595.8642693024685
0.09847160957933764,5296.774594029822
0.1023371798632519,5000.131385538193
0.10635449574860109,4711.522787855075
0.11052951411260206,4435.689531020795
0.1148684256737553,4176.042853528395
0.1193776641714435,3934.986679177123
0.1240639159058831,3714.395896745804
0.12893412965257148,3515.5180357441072
0.13399552696593373,3337.3450055640724
0.1392556128874462,3174.829838977429
0.14472218707411338,3020.7599092244996
0.15040335536380234,2867.424354942848
0.15630754179458153,2710.228657374188
0.16244350109588662,2548.142211485769
0.16882033167003618,2383.3255836588296
0.17544748908334581,2220.1627367627934
0.1823348000868439,2063.9416685605347
0.189492477187382,1919.235575866584
0.19693113379074215,1789.4288291613373
0.20466179993919872,1675.8828693831565
0.21269593866686892,1575.5810746539623
0.22104546299710207,1481.89019007422
0.22972275360711503,1389.7043112588026
0.23874067718606454,1297.2711142131702
0.2481126055137766,1204.5333701854756
0.25785243528842716,1114.7915655321856
0.26797460873256895,1032.769737196442
0.27849413500806414,959.5072270933434
0.28942661247167484,893.7454896955983
0.3007882518043098,832.8468114688003
0.31259590004822796,773.9756933471782
0.324867065587837,716.7207987233528
0.3376199441111335,662.22485085455
0.35087344559027084,612.3511156723202
0.36464722232127456,567.0737182158007
0.37896169806447155,525.2174124696795
0.3938380983288488,485.67202716460565
0.4092984818452433,448.2265315245247
0.4253657732750382,413.4513399453474
0.44206379720285277,381.5075473189653
0.45941731346364734,351.9766537941022
0.47745205385661277,324.36965868835017
0.4961947603002895,298.676470173627
0.5156732244854959,274.94587869616663
0.5359163290848509,253.01589514902057
0.556954090580013,232.6913754808678
0.5788177037701272,213.87333325289887
0.6015395880274836,196.4971859964354
0.6251534353689703,180.4567760159604
0.6496942604146115,165.64226262778038
0.6751984523072497,151.97688837135416
0.7017038286703824,139.37691609640152
0.7292496916841444,127.76149897853236
0.7578768863625915,117.06325905594562
0.7876278611187046,107.2157350960598
0.8185467307069019,98.15435704395283
0.850679341636415,89.82058362262158
0.8840733401525058,82.16223006871795
0.9187782428863317,75.12832552061202
0.9548455102782278,68.67098192117936
0.9923286228832539,62.74464919729212
1.0312831606721837,57.308237795672724
1.0717668854455022,52.32363506978833
1.1138398264826193,47.755437823652315
1.1575643695533022,43.57078632019535
1.2030053494233226,39.739200426514195
1.2502301459914542,36.23237286765797
1.299308784200415,33.02406982656473
1.3503140378698726,30.09004265529482
1.4033215376054824,27.40789196193712
1.4584098829439835,24.956938739344217
1.5156607589006013,22.718105975215217
1.575159057091621,20.673815724345157
1.6369930016117014,18.807867867967698
1.7012542798525885,17.105335097626465
1.7680381784572046,15.55247092980888
1.8374437246107238,14.136623539682947
1.9095738328780953,12.846147650861742
1.9845354578058014,11.670319872821539
2.0624397525140905,10.599291261058426
2.143402233514853,9.624023870259387
2.227542951999554,8.736227548364807
2.314986671851158,7.92830137220792
2.405863054644063,7.193282676231218
2.5003068519063225,6.524796594116759
2.598458104929248,5.917003624622304
2.7004623524206774,5.364556645270265
2.806470846309834,4.86256155686748
2.916640776023701,4.406540587923333
3.031135501567576,3.9923952592852414
3.150124795755327,3.6163776154890894
3.2737850959485697,3.2750646698324464
3.4022997656780634,2.9653313972314064
3.5358593665351745,2.684325777736824
3.6746619407366854,2.429445858915155
3.8189133047818515,2.198318769805062
3.968827354637162,1.9887811191963478
4.1246263829013445,1.7988610709358477
4.286541408420921,1.6267619691116102
4.4548125188449825,1.470847301823252
4.629689226627261,1.3296267722465558
4.811430839003257,1.201743432723794
5.000306842491082,1.0859625199265464
5.196597302486189,0.9811608660099632
5.400593278542364,0.8863171046550387
5.612597255954967,0.8005027047961664
5.8329235942862,0.7228736901004865
6.06189899349756,0.6526631252556567
6.29986297838068,0.5891744042185643
6.547168402004727,0.5317749771048997
6.804181968927091,0.47989060639592784
7.071284778942991,0.43300012052007925
7.348872892180382,0.3906305933794844
7.637357916378006,0.35235299815435095
7.937167617217536,0.3177782606979519
8.248746552614573,0.2865536227260891
8.572556731909314,0.2583593260488602
8.909078300934132,0.23290557670043735
9.258810253973934,0.20992970775581582
9.622271173675122,0.18919377552770666
9.999999999999984,0.17048233106513802
