k [1/Mpc],P(k) [Mpc^3]
0.0001,1053.5709668360246
0.00010392556829367125,1091.5585801346115
0.00010800523745162529,1130.8984220458676
0.00011224505680853065,1171.6365113429672
0.00011665131316981963,1213.8202906827562
0.00012123054013376525,1257.4986563628051
0.00012598952777950273,1302.7219624207041
0.00013093533273536104,1349.5416574863723
0.00013607528864243335,1398.0104481515216
0.00014141701702890234,1448.1824965598767
0.00014696843861124463,1500.1133646884557
0.00015273778503907136,1553.8601125122595
0.00015873361110102093,1609.4810048968207
0.00016496480740980205,1667.0355411555724
0.0001714406135851971,1726.5845706444356
0.00017817063195457305,1788.1898108149096
0.00018516484179121546,1851.914237278142
0.000192433614111598,1917.8219606406026
0.00019998772705352857,1985.9781194444654
0.0002078383818579757,2056.4490003374376
0.00021599721947827182,2129.3012168584555
0.0002244763378413224,2204.602128932815
0.0002332883097864157,2282.4197729396765
0.00024244620170823283,2362.8224596762234
0.0002519635929317015,2445.879132501226
0.0002618545958474233,2531.658385542656
0.0002721338768375308,2620.228673100715
0.0002828166780230032,2711.658359040997
0.0002939188398646886,2806.014834209437
0.0003054568246515432,2903.365137459417
0.00031744774091091926,3003.775109221907
0.00032990936877709396,3107.309224837588
0.00034286018635565856,3214.0307401375117
0.00035631939712285854,3324.000242588237
0.000370306958400514,3437.2763952026244
0.00038484361094874304,3553.9153608304377
0.0003999509097203664,3673.9702376158834
0.00041565125582259895,3797.491403904638
0.00043196792973341727,3924.5252170664735
0.0004489251258218605,4055.114277878548
0.0004665479882234472,4189.296692794107
0.000484862648123908,4327.104809742112
0.000503896262506515,4468.566055928197
0.0005236770544204653,4613.701600312116
0.0005442343548300266,4762.5262771143425
0.0005655986461065005,4915.047965783353
0.0005878016072274912,5071.265361768978
0.0006108761607505036,5231.169228602437
0.0006348565216305217,5394.739963564811
0.0006597782479539537,5561.947020577263
0.0006856782936641739,5732.749456092586
0.0007125950633568407,5907.092087376344
0.0007405684692262436,6084.907454610309
0.0007696399902471156,6266.112987100449
0.0007998527336796708,6450.6088477612775
0.000831251498989063,6638.280495350639
0.0008638828442740447,6828.993712984561
0.000897795155303332,7022.596553850415
0.0009330387172620361,7218.919121057085
0.0009696657893145519,7417.771041782224
0.001007730682094461,7618.943634455896
0.0010472898382363582,7822.206665038865
0.0010884019160690055,8027.308897770135
0.0011311278765939214,8233.977792283702
0.001175531073878369,8441.914827373723
0.0012216773489967915,8650.799997423394
0.0012696351276599736,8860.293339138323
0.0013194755216767058,9070.03506719275
0.0013712724343984,9279.64418808336
0.0014251026703029975,9488.714036069267
0.0014810460488806749,9696.816805637825
0.0015391855229902056,9903.523435822448
0.001599607301861487,10108.413290797818
0.0016624009789266115,10311.054631648898
0.0017276596646690358,10511.010698793516
0.0017954801246878305,10707.836942743901
0.0018659629231817451,10901.05369082758
0.001939212572065829,11090.117800591424
0.0020153376859417325,11274.470734558532
0.002094451143151469,11453.587292979222
0.002176670253153458,11626.966132341408
0.002262116930469025,11794.102499888533
0.002350917875457286,11954.485628079228
0.002443204762186487,12107.605673314674
0.0025391144336803463,12252.9688048022
0.002638789104828933,12390.099968856577
0.002742376573264949,12518.538403885199
0.0028500304385181063,12637.85710958148
0.0029619103297725525,12747.650512162543
0.0030781821425650787,12847.524583324897
0.003199018284775064,12937.096179863782
0.0033245979322709396,13016.00402352251
0.003455107294592217,13083.923427694745
0.0035907398910610534,13140.560784308473
0.0037316968377327513,13185.567063456709
0.0038781871456107214,13218.442268987728
0.0040304280305680515,13238.730641639982
0.00418864523543527,13246.510410592573
0.004353073364731888,13242.245362748938
0.00452395623253805,13226.08388911401
0.004701547224022131,13197.030393594569
0.004886109671160325,13153.91996993194
0.005077917243205399,13096.324299119118
0.005277254352483535,13024.565087236722
0.005484416576121017,12939.024450044148
0.005699711094326071,12840.050699635925
0.005923457145875801,12728.005080514245
0.006155986501483508,12603.108063731042
0.006397643955748424,12465.35515246028
0.0066487878384172625,12314.766572190041
0.0069097905457156435,12151.348118598657
0.007181039092537346,11975.135157196362
0.007462935686310132,11786.254988647914
0.007755898323389004,11584.95559251551
0.00806036140886134,11371.55434791448
0.008376776400682916,11146.376737451013
0.008705612479099857,10909.777199112492
0.009047357242349292,10662.137819668611
0.00940251742967013,10403.764026402407
0.009771619672696168,10135.014905661412
0.010155211276345676,9856.203328213996
0.010553861030365234,9567.604808371461
0.010968160052731372,9269.631863030794
0.011398722666160517,8962.907680430037
0.011846187309026826,8648.19109435321
0.012311217482038896,8326.157947814365
0.012794502732078732,7997.325772376744
0.013296759674662111,7662.335913317404
0.013818733056536317,7321.859380494365
0.014361196859990781,6976.680233929934
0.014924955450518284,6627.734306159776
0.015510844769528393,6276.0657251342745
0.016119733573881575,5922.862090412756
0.01675252472408214,5569.264452047103
0.017410156523040152,5216.446747825315
0.018093604107387147,4865.763198700025
0.01880388089340914,4518.722550260699
0.019542040079740527,4176.939733834231
0.02030917620904734,3842.062480635921
0.021106426791015535,3515.736207800821
0.021934973989050584,3199.6365796801842
0.02279604637318978,2895.568096682052
0.023690920741826323,2605.210055111769
0.02462092401494623,2330.1344581991216
0.02558743520168586,2071.790529381865
0.02659188744512693,1831.298537820022
0.027635770147361564,1610.0161383200864
0.028720631177978267,1408.8668524508098
0.029848079169243254,1228.2312427430234
0.03101978590138095,1068.2879947652998
0.03223748878149028,928.480091099269
0.0335029934197723,808.0901101067489
0.03481817630688963,706.1164847368557
0.03618498759642746,621.3023100983922
0.037605453996581675,552.8359670298842
0.03908168177536263,499.73416879104605
0.04061585988376978,460.5656815899701
0.04221026320156896,433.8263790983542
0.04386725591048496,418.40011265494934
0.0455892949998106,412.4389885619893
0.047378933909631396,414.2660652133982
0.049238826317067365,422.34825558124356
0.05117173007114603,434.7726314139546
0.05318051128214196,449.41295064137626
0.05526814857144601,463.30469627464225
0.057437737488265785,472.8870160453395
0.0596924950997073,474.8287479505388
0.0620357647610427,466.43032787689907
0.06447102107323864,446.4073211695743
0.06700187503509585,415.16893564578055
0.06963207939763882,373.534179556826
0.0723655342286965,323.3876493828976
0.07520629269592405,269.70603047601116
0.07815856707684081,218.04673814896168
0.08122673500479707,172.9751036319645
0.08441534596012978,136.69474600480913
0.0877291280161335,109.78778493486074
0.09117299484984914,92.48565756509167
0.09475205302806537,84.10935914354837
0.09847160957933764,83.16305501847346
0.1023371798632519,87.31243682158866
0.10635449574860109,95.06256824504355
0.11052951411260206,103.70288703971883
0.1148684256737553,108.7367733602587
0.1193776641714435,106.60589313514814
0.1240639159058831,97.2875157714756
0.12893412965257148,82.93210076520133
0.13399552696593373,66.50080802740234
0.1392556128874462,51.78592062364855
0.14472218707411338,41.79593706140191
0.15040335536380234,36.49232018874114
0.15630754179458153,35.06213146187553
0.16244350109588662,36.15531959346158
0.16882033167003618,37.58883559309035
0.17544748908334581,37.387397789720424
0.1823348000868439,34.321112185519695
0.189492477187382,29.297613852820135
0.19693113379074215,24.366000838060355
0.20466179993919872,20.729522197794346
0.21269593866686892,18.937139810585165
0.22104546299710207,18.303743521545947
0.22972275360711503,17.806145783786707
0.23874067718606454,16.608541162139637
0.2481126055137766,14.72065281327243
0.25785243528842716,12.8551913194258
0.26797460873256895,11.49081308167015
0.27849413500806414,10.659844532855521
0.28942661247167484,9.965607622573097
0.3007882518043098,9.12138623267919
0.31259590004822796,8.17804661511896
0.324867065587837,7.3561158534562034
0.3376199441111335,6.726173306150061
0.35087344559027084,6.169854813441579
0.36464722232127456,5.6088391119187015
0.37896169806447155,5.071630954172673
0.3938380983288488,4.608034601515985
0.4092984818452433,4.199257433464623
0.4253657732750382,3.8143470030203193
0.44206379720285277,3.4596802522800614
0.45941731346364734,3.1422549678938343
0.47745205385661277,2.8549917590698706
0.4961947603002895,2.590493427342693
0.5156732244854959,2.350272577595863
0.5359163290848509,2.133209268982332
0.556954090580013,1.9350573724751465
0.5788177037701272,1.7550116999754144
0.6015395880274836,1.591703655965414
0.6251534353689703,1.4432016693179404
0.6496942604146115,1.3083298177890155
0.6751984523072497,1.185843614293035
0.7017038286703824,1.074590206710329
0.7292496916841444,0.9735944006679866
0.7578768863625915,0.8819404323531714
0.7876278611187046,0.7987805809711521
0.8185467307069019,0.7233423020395986
0.850679341636415,0.6549217468722938
0.8840733401525058,0.5928778253917757
0.9187782428863317,0.5366269758588106
0.9548455102782278,0.485638120622834
0.9923286228832539,0.43942777895872026
1.0312831606721837,0.3975559044936305
1.0717668854455022,0.35962209189487016
1.1138398264826193,0.325261930330242
1.1575643695533022,0.2941432213202369
1.2030053494233226,0.26596396236349623
1.2502301459914542,0.24044994896342686
1.299308784200415,0.21735224586791926
1.3503140378698726,0.1964448965743498
1.4033215376054824,0.17752322489624744
1.4584098829439835,0.16040185705342067
1.5156607589006013,0.14491237041546495
1.575159057091621,0.1309017504164822
1.6369930016117014,0.11823102158866984
1.7012542798525885,0.10677392648258917
1.7680381784572046,0.09641551515986257
1.8374437246107238,0.08705147827222974
1.9095738328780953,0.07858731615050181
1.9845354578058014,0.0709374245474825
2.0624397525140905,0.06402426719441491
2.143402233514853,0.05777772668164452
2.227542951999554,0.05213440999548988
2.314986671851158,0.047036856258657646
2.405863054644063,0.0424329823607283
2.5003068519063225,0.03827559081544114
2.598458104929248,0.03452190692057799
2.7004623524206774,0.031133108963466275
2.806470846309834,0.028074040343154808
2.916640776023701,0.025312901767213538
3.031135501567576,0.022820933546529837
3.150124795755327,0.020572127932936488
3.2737850959485697,0.018542983725300877
3.4022997656780634,0.016712269486401567
3.5358593665351745,0.01506078207066247
3.6746619407366854,0.013571153700640732
3.8189133047818515,0.012227679127117929
3.968827354637162,0.011016157753791212
4.1246263829013445,0.009923746518156838
4.286541408420921,0.008938837118294596
4.4548125188449825,0.008050941507235893
4.629689226627261,0.007250584978217713
4.811430839003257,0.00652920931443582
5.000306842491082,0.005879084779411845
5.196597302486189,0.005293230686168766
5.400593278542364,0.004765344077467968
5.612597255954967,0.004289734631229725
5.8329235942862,0.0038612657016789302
6.06189899349756,0.003475300983346001
6.29986297838068,0.0031276563053483073
6.547168402004727,0.0028145559022305718
6.804181968927091,0.002532592895478985
7.071284778942991,0.002278693594075771
7.348872892180382,0.002050085213125355
7.637357916378006,0.0018442666502977091
7.937167617217536,0.0016589820955326988
8.248746552614573,0.001492197257108936
8.572556731909314,0.001342077806440725
8.909078300934132,0.0012069698931904476
9.258810253973934,0.0010853825033211482
9.622271173675122,0.0009759713427554158
9.999999999999984,0.0008775247270905291
