k [1/Mpc],P(k) [Mpc^3]
0.0001,264.20178669315015
0.00010392556829367125,272.98827827528515
0.00010800523745162529,282.0666788350753
0.00011224505680853065,291.4466536141266
0.00011665131316981963,301.13818470415043
0.00012123054013376525,311.15157968861007
0.00012598952777950273,321.4974816885377
0.00013093533273536104,332.18688154273207
0.00013607528864243335,343.23112208317986
0.00014141701702890234,354.6419139788932
0.00014696843861124463,366.43134403339826
0.00015273778503907136,378.6118814501033
0.00015873361110102093,391.1964005625495
0.00016496480740980205,404.1982074682874
0.0001714406135851971,417.631049929934
0.00017817063195457305,431.5091102046895
0.00018516484179121546,445.8469888045037
0.000192433614111598,460.65974782309024
0.00019998772705352857,475.96293319531526
0.0002078383818579757,491.7725898036696
0.00021599721947827182,508.10527328933165
0.0002244763378413224,524.9780512220763
0.0002332883097864157,542.4085284519506
0.00024244620170823283,560.4148497473308
0.0002519635929317015,579.0157008691682
0.0002618545958474233,598.2303482739101
0.0002721338768375308,618.0786318633066
0.0002828166780230032,638.5809914899748
0.0002939188398646886,659.7584902918769
0.0003054568246515432,681.632813842323
0.00031744774091091926,704.2263059246401
0.00032990936877709396,727.5619503970545
0.00034286018635565856,751.663386477247
0.00035631939712285854,776.5549403138272
0.000370306958400514,802.2615537498184
0.00038484361094874304,828.8088651516342
0.0003999509097203664,856.2232636146256
0.00041565125582259895,884.5319113545935
0.00043196792973341727,913.762733939495
0.0004489251258218605,943.944253579027
0.0004665479882234472,975.1056754708187
0.000484862648123908,1007.2770037428156
0.000503896262506515,1040.4890643611332
0.0005236770544204653,1074.7735042473134
0.0005442343548300266,1110.1625933450193
0.0005655986461065005,1146.6892347544167
0.0005878016072274912,1184.387146161763
0.0006108761607505036,1223.290874336733
0.0006348565216305217,1263.4358054303364
0.0006597782479539537,1304.8579622340808
0.0006856782936641739,1347.593882040759
0.0007125950633568407,1391.6808727901305
0.0007405684692262436,1437.1569778023845
0.0007696399902471156,1484.0610041438235
0.0007998527336796708,1532.4323969871207
0.000831251498989063,1582.310985414877
0.0008638828442740447,1633.7372512457682
0.000897795155303332,1686.7521923896102
0.0009330387172620361,1741.397319470672
0.0009696657893145519,1797.7146761952688
0.001007730682094461,1855.7464733461022
0.0010472898382363582,1915.535327865253
0.0010884019160690055,1977.1239932659703
0.0011311278765939214,2040.5551496810867
0.001175531073878369,2105.8716786684467
0.0012216773489967915,2173.1160702463003
0.0012696351276599736,2242.330639416094
0.0013194755216767058,2313.557447023862
0.0013712724343984,2386.837819702035
0.0014251026703029975,2462.2127137722478
0.0014810460488806749,2539.721801982707
0.0015391855229902056,2619.4034770968356
0.001599607301861487,2701.2952021236238
0.0016624009789266115,2785.4327816935406
0.0017276596646690358,2871.8507353103396
0.0017954801246878305,2960.581500998419
0.0018659629231817451,3051.654943062268
0.001939212572065829,3145.098974038242
0.0020153376859417325,3240.9385425896385
0.002094451143151469,3339.1959238109434
0.002176670253153458,3439.8900518207397
0.002262116930469025,3543.0352013531115
0.002350917875457286,3648.6421718970273
0.002443204762186487,3756.7175082022072
0.0025391144336803463,3867.263401808987
0.002638789104828933,3980.277342111117
0.002742376573264949,4095.750068754325
0.0028500304385181063,4213.666865239145
0.0029619103297725525,4334.007128786956
0.0030781821425650787,4456.743890022552
0.003199018284775064,4581.843841294964
0.0033245979322709396,4709.264932950154
0.003455107294592217,4838.957317468192
0.0035907398910610534,4970.863502701374
0.0037316968377327513,5104.9175494481715
0.0038781871456107214,5241.045385732883
0.0040304280305680515,5379.162754680857
0.00418864523543527,5519.175401376482
0.004353073364731888,5660.979555510074
0.00452395623253805,5804.4604534437685
0.004701547224022131,5949.493259373667
0.004886109671160325,6095.94151920604
0.005077917243205399,6243.656619254377
0.005277254352483535,6392.478683078154
0.005484416576121017,6542.233199939807
0.005699711094326071,6692.7330603437795
0.005923457145875801,6843.778734934872
0.006155986501483508,6995.157207755209
0.006397643955748424,7146.642603888451
0.0066487878384172625,7297.984210638121
0.0069097905457156435,7448.910459184564
0.007181039092537346,7599.147390790515
0.007462935686310132,7748.442688672214
0.007755898323389004,7896.539239969184
0.00806036140886134,8043.104925362562
0.008376776400682916,8187.725309575351
0.008705612479099857,8329.97688898942
0.009047357242349292,8469.480116370518
0.00940251742967013,8605.866124200498
0.009771619672696168,8738.764642796734
0.010155211276345676,8867.80978171186
0.010553861030365234,8992.627646461815
0.010968160052731372,9112.789413811692
0.011398722666160517,9227.831558108912
0.011846187309026826,9337.283094810944
0.012311217482038896,9440.661387707201
0.012794502732078732,9537.481672238431
0.013296759674662111,9627.249276593699
0.013818733056536317,9709.46230195791
0.014361196859990781,9783.624499705502
0.014924955450518284,9849.242989253906
0.015510844769528393,9905.836070092575
0.016119733573881575,9952.916667827873
0.01675252472408214,9989.982254519651
0.017410156523040152,10016.550267062681
0.018093604107387147,10032.157775786733
0.01880388089340914,10036.369875239716
0.019542040079740527,10028.781010160914
0.02030917620904734,10009.006341242684
0.021106426791015535,9976.704100030442
0.021934973989050584,9931.581982550002
0.02279604637318978,9873.401852885178
0.023690920741826323,9801.989532319232
0.02462092401494623,9717.25292927491
0.02558743520168586,9619.172382131354
0.02659188744512693,9507.826097352921
0.027635770147361564,9383.403991528925
0.028720631177978267,9246.178524384659
0.029848079169243254,9096.581088766206
0.03101978590138095,8935.14875587073
0.03223748878149028,8762.534912532044
0.0335029934197723,8579.5894816098
0.03481817630688963,8387.221443843355
0.03618498759642746,8186.523426377655
0.037605453996581675,7978.717775829294
0.03908168177536263,7765.061740573995
0.04061585988376978,7547.024199672699
0.04221026320156896,7326.0619800434315
0.04386725591048496,7103.654109856869
0.0455892949998106,6881.322747908884
0.047378933909631396,6660.485575823143
0.049238826317067365,6442.607953301748
0.05117173007114603,6229.073867578451
0.05318051128214196,6020.898673064593
0.05526814857144601,5818.522683063997
0.057437737488265785,5622.281721139009
0.0596924950997073,5432.832711700819
0.0620357647610427,5251.015982013753
0.06447102107323864,5076.910162274637
0.06700187503509585,4908.078208959632
0.06963207939763882,4741.829289421299
0.0723655342286965,4576.969551256638
0.07520629269592405,4413.519786029086
0.07815856707684081,4250.803106006487
0.08122673500479707,4086.9000968227847
0.08441534596012978,3920.114437167438
0.0877291280161335,3749.1759499228638
0.09117299484984914,3573.6142201877938
0.09475205302806537,3394.0632469223797
0.09847160957933764,3212.656188866024
0.1023371798632519,3032.7329879203244
0.10635449574860109,2857.6830247688445
0.11052951411260206,2690.381697530464
0.1148684256737553,2532.898026938806
0.1193776641714435,2386.690066481725
0.1240639159058831,2252.8949936871313
0.12893412965257148,2132.2694734515344
0.13399552696593373,2024.2020679134387
0.1392556128874462,1925.6316367103339
0.14472218707411338,1832.1835005754106
0.15040335536380234,1739.1807856795576
0.15630754179458153,1643.836775529251
0.16244350109588662,1545.5263765740726
0.16882033167003618,1445.5600385665869
0.17544748908334581,1346.5967693981427
0.1823348000868439,1251.8439018404144
0.189492477187382,1164.0752199743151
0.19693113379074215,1085.343448260031
0.20466179993919872,1016.474342368067
0.21269593866686892,955.6382286406077
0.22104546299710207,898.8118346073965
0.22972275360711503,842.8982727132923
0.23874067718606454,786.8347047298571
0.2481126055137766,730.5864196644783
0.25785243528842716,676.155263684316
0.26797460873256895,626.406510033001
0.27849413500806414,581.9705514479651
0.28942661247167484,542.0840414802618
0.3007882518043098,505.14712599973467
0.31259590004822796,469.43998788740686
0.324867065587837,434.71313887944075
0.3376199441111335,401.65967566691046
0.35087344559027084,371.40972616449955
0.36464722232127456,343.9475964151256
0.37896169806447155,318.56046367779703
0.3938380983288488,294.57497504012025
0.4092984818452433,271.86313386627546
0.4253657732750382,250.77091397612384
0.44206379720285277,231.3960243607207
0.45941731346364734,213.484632029182
0.47745205385661277,196.74014307500676
0.4961947603002895,181.15643649505068
0.5156732244854959,166.7631051908556
0.5359163290848509,153.4618978025179
0.556954090580013,141.13445347985083
0.5788177037701272,129.72073391282066
0.6015395880274836,119.181567854094
0.6251534353689703,109.4525674065754
0.6496942604146115,100.46711082792092
0.6751984523072497,92.1786423649507
0.7017038286703824,84.53637286866275
0.7292496916841444,77.49126626132418
0.7578768863625915,71.0024557433136
0.7876278611187046,65.0296305393881
0.8185467307069019,59.53362693153807
0.850679341636415,54.47893784040242
0.8840733401525058,49.83391160704067
0.9187782428863317,45.56763284112229
0.9548455102782278,41.65105596776724
0.9923286228832539,38.05655347107135
1.0312831606721837,34.759203277177846
1.0717668854455022,31.735888897441797
1.1138398264826193,28.965137208045487
1.1575643695533022,26.42701777098627
1.2030053494233226,24.103043451146217
1.2502301459914542,21.976045018374705
1.299308784200415,20.030110858302375
1.3503140378698726,18.250533422497245
1.4033215376054824,16.623726793006306
1.4584098829439835,15.137148517982224
1.5156607589006013,13.779227804568805
1.575159057091621,12.53930309006448
1.6369930016117014,11.407548505746487
1.7012542798525885,10.374910181369042
1.7680381784572046,9.433050453218534
1.8374437246107238,8.574295601633041
1.9095738328780953,7.791582409443069
1.9845354578058014,7.078406811519904
2.0624397525140905,6.428795121056117
2.143402233514853,5.837265547118558
2.227542951999554,5.298789858309389
2.314986671851158,4.808757861685846
2.405863054644063,4.362946487113978
2.5003068519063225,3.9574891827203813
2.598458104929248,3.5888441119642094
2.7004623524206774,3.2537680811215655
2.806470846309834,2.9492926689801227
2.916640776023701,2.672701969843635
3.031135501567576,2.4215101304478677
3.150124795755327,2.1934439008925977
3.2737850959485697,1.9864271347950118
3.4022997656780634,1.79856440862935
3.5358593665351745,1.6281258848543436
3.6746619407366854,1.4735333995439341
3.8189133047818515,1.333347733708529
3.968827354637162,1.2062567242501905
4.1246263829013445,1.0910643920860938
4.286541408420921,0.9866810103206874
4.4548125188449825,0.8921139843114037
4.629689226627261,0.8064594033422827
4.811430839003257,0.7288942370552873
5.000306842491082,0.658669563634242
5.196597302486189,0.5951041473452416
5.400593278542364,0.5375784982010118
5.612597255954967,0.48552943364176626
5.8329235942862,0.4384450561455538
6.06189899349756,0.3958601959314226
6.29986297838068,0.3573523400764835
6.547168402004727,0.32253782768210537
6.804181968927091,0.29106836608721787
7.071284778942991,0.2626278487546934
7.348872892180382,0.23692943150639612
7.637357916378006,0.21371289642228278
7.937167617217536,0.192742258103462
8.248746552614573,0.17380355783509988
8.572556731909314,0.1567028524713265
8.909078300934132,0.1412643730868676
9.258810253973934,0.1273288041384153
9.622271173675122,0.11475182548434382
9.999999999999984,0.10340276073028574
