k [1/Mpc],P(k) [Mpc^3]
0.0001,4637.16043984392
0.00010392556829367125,4818.251633089304
0.00010800523745162529,5006.337495349584
0.00011224505680853065,5201.678945822319
0.00011665131316981963,5404.545825798632
0.00012123054013376525,5615.216480537405
0.00012598952777950273,5833.978498690627
0.00013093533273536104,6061.128316702125
0.00013607528864243335,6296.9709307141375
0.00014141701702890234,6541.8210969039965
0.00014696843861124463,6796.002960570812
0.00015273778503907136,7059.850593534249
0.00015873361110102093,7333.707478682626
0.00016496480740980205,7617.925100897839
0.0001714406135851971,7912.864894446909
0.00017817063195457305,8218.897378903777
0.00018516484179121546,8536.402431293041
0.000192433614111598,8865.76941791953
0.00019998772705352857,9207.39445754531
0.0002078383818579757,9561.682699203162
0.00021599721947827182,9929.047202744665
0.0002244763378413224,10309.908203212397
0.0002332883097864157,10704.694161963642
0.00024244620170823283,11113.837085639381
0.0002519635929317015,11537.774796557236
0.0002618545958474233,11976.951018025666
0.0002721338768375308,12431.813390693245
0.0002828166780230032,12902.814744516141
0.0002939188398646886,13390.406338549948
0.0003054568246515432,13895.03881246621
0.00031744774091091926,14417.16419892025
0.00032990936877709396,14957.232337657466
0.00034286018635565856,15515.69245210955
0.00035631939712285854,16092.987288283211
0.000370306958400514,16689.55113062327
0.00038484361094874304,17305.812378221184
0.0003999509097203664,17942.18739875906
0.00041565125582259895,18599.08231170197
0.00043196792973341727,19276.889256305203
0.0004489251258218605,19975.981765043336
0.0004665479882234472,20696.71727902468
0.000484862648123908,21439.42976084547
0.000503896262506515,22204.42983524019
0.0005236770544204653,22992.00225834462
0.0005442343548300266,23802.39772721384
0.0005655986461065005,24635.836175626067
0.0005878016072274912,25492.494984328318
0.0006108761607505036,26372.50647547385
0.0006348565216305217,27275.958618722507
0.0006597782479539537,28202.877323857043
0.0006856782936641739,29153.234277909167
0.0007125950633568407,30126.932444730297
0.0007405684692262436,31123.79524886913
0.0007696399902471156,32143.57677461612
0.0007998527336796708,33185.93674716959
0.000831251498989063,34250.44791462655
0.0008638828442740447,35336.587670061126
0.000897795155303332,36443.716002292065
0.0009330387172620361,37571.094417944965
0.0009696657893145519,38717.87547251313
0.001007730682094461,39883.10113151025
0.0010472898382363582,41065.69759852839
0.0010884019160690055,42264.450130258316
0.0011311278765939214,43478.019668417095
0.001175531073878369,44704.933363914686
0.0012216773489967915,45943.57956463602
0.0012696351276599736,47192.221498978775
0.0013194755216767058,48449.01189378462
0.0013712724343984,49711.982545177634
0.0014251026703029975,50978.99999819965
0.0014810460488806749,52247.73318060201
0.0015391855229902056,53515.74104795997
0.001599607301861487,54780.76760679503
0.0016624009789266115,56040.64385937696
0.0017276596646690358,57292.99574515914
0.0017954801246878305,58534.99656627305
0.0018659629231817451,59763.64816693864
0.001939212572065829,60975.89059981451
0.0020153376859417325,62168.61014679283
0.002094451143151469,63338.64388474644
0.002176670253153458,64482.912402454676
0.002262116930469025,65598.33173986724
0.002350917875457286,66681.77907819083
0.002443204762186487,67730.10277285674
0.0025391144336803463,68740.15414005073
0.002638789104828933,69708.91300546251
0.002742376573264949,70633.44171107875
0.0028500304385181063,71510.8212228655
0.0029619103297725525,72338.13782088085
0.0030781821425650787,73112.54554574289
0.003199018284775064,73831.45560729178
0.0033245979322709396,74492.51393470398
0.003455107294592217,75093.18101777638
0.0035907398910610534,75629.88926708013
0.0037316968377327513,76098.97669036844
0.0038781871456107214,76499.26074013991
0.0040304280305680515,76832.5534780862
0.00418864523543527,77099.83012869516
0.004353073364731888,77294.44199885933
0.00452395623253805,77406.85623608319
0.004701547224022131,77431.95063486604
0.004886109671160325,77372.80581446098
0.005077917243205399,77233.14812982288
0.005277254352483535,77011.36158973655
0.005484416576121017,76702.62034789717
0.005699711094326071,76303.93384511015
0.005923457145875801,75817.31754763806
0.006155986501483508,75245.83133037614
0.006397643955748424,74590.13267887803
0.0066487878384172625,73848.60713952483
0.0069097905457156435,73019.91784471499
0.007181039092537346,72102.92818873153
0.007462935686310132,71096.93671823535
0.007755898323389004,70001.82470360091
0.00806036140886134,68818.09355848908
0.008376776400682916,67546.75561548606
0.008705612479099857,66188.67383684825
0.009047357242349292,64745.01114489495
0.00940251742967013,63217.09408755205
0.009771619672696168,61605.65497181051
0.010155211276345676,59912.102242507346
0.010553861030365234,58137.479368994966
0.010968160052731372,56282.92427483266
0.011398722666160517,54350.81074446451
0.011846187309026826,52344.50556239444
0.012311217482038896,50268.66664068881
0.012794502732078732,48127.515489188096
0.013296759674662111,45924.671088642834
0.013818733056536317,43665.360806304154
0.014361196859990781,41354.63432682244
0.014924955450518284,38999.113050159554
0.015510844769528393,36607.01072917376
0.016119733573881575,34187.25900567333
0.01675252472408214,31751.15606871211
0.017410156523040152,29309.4090991673
0.018093604107387147,26873.912636403365
0.01880388089340914,24458.905216278577
0.019542040079740527,22078.632691121897
0.02030917620904734,19750.041066175607
0.021106426791015535,17489.85478535844
0.021934973989050584,15314.84648779195
0.02279604637318978,13243.502495062983
0.023690920741826323,11291.741067952935
0.02462092401494623,9476.23172050051
0.02558743520168586,7811.756315590773
0.02659188744512693,6309.626935448892
0.027635770147361564,4980.203044889569
0.028720631177978267,3827.954626686734
0.029848079169243254,2853.9419207447672
0.03101978590138095,2055.642968890203
0.03223748878149028,1424.6252376312925
0.0335029934197723,945.7519275676957
0.03481817630688963,594.8627381230273
0.03618498759642746,348.5698446435458
0.037605453996581675,189.4468216735522
0.03908168177536263,100.83662310186565
0.04061585988376978,56.47923603216025
0.04221026320156896,36.65157106348633
0.04386725591048496,31.41233184898443
0.0455892949998106,39.59437855640257
0.047378933909631396,66.52763181563678
0.049238826317067365,122.57129575745715
0.05117173007114603,217.20534081993802
0.05318051128214196,362.0561694801846
0.05526814857144601,562.0254190760783
0.057437737488265785,809.615522019267
0.0596924950997073,1081.0392591706075
0.0620357647610427,1342.045606888383
0.06447102107323864,1554.163119036246
0.06700187503509585,1679.1030285806746
0.06963207939763882,1686.3316771019297
0.0723655342286965,1559.5376529794446
0.07520629269592405,1315.7341359151249
0.07815856707684081,1003.2477961270072
0.08122673500479707,682.8659226900108
0.08441534596012978,403.03319427973327
0.0877291280161335,198.57213214894367
0.09117299484984914,79.3480398748392
0.09475205302806537,23.947205942951157
0.09847160957933764,8.778282079078041
0.1023371798632519,8.679580108516308
0.10635449574860109,20.94963954264696
0.11052951411260206,64.09459181716619
0.1148684256737553,143.07830791986765
0.1193776641714435,243.20750147697186
0.1240639159058831,325.64349734143605
0.12893412965257148,351.8212268038373
0.13399552696593373,304.4667331671315
0.1392556128874462,206.93663972042296
0.14472218707411338,110.53850850193962
0.15040335536380234,47.270010473456075
0.15630754179458153,19.59253244895804
0.16244350109588662,14.516362064509476
0.16882033167003618,24.114433542873385
0.17544748908334581,49.50312698069167
0.1823348000868439,81.29704655951215
0.189492477187382,96.06674272942486
0.19693113379074215,82.79265980228725
0.20466179993919872,52.71975742964012
0.21269593866686892,28.052075169341673
0.22104546299710207,17.580871748445023
0.22972275360711503,18.44067639464803
0.23874067718606454,26.66584789869611
0.2481126055137766,34.22181481789717
0.25785243528842716,32.96914100823131
0.26797460873256895,24.06876154520423
0.27849413500806414,16.201635470815084
0.28942661247167484,13.713460900827135
0.3007882518043098,15.212376935866251
0.31259590004822796,16.77297417810619
0.324867065587837,15.224098575264833
0.3376199441111335,11.916662377414962
0.35087344559027084,9.975895796153122
0.36464722232127456,9.798185827385764
0.37896169806447155,9.706978355025441
0.3938380983288488,8.602830961974552
0.4092984818452433,7.343863119717314
0.4253657732750382,6.717860318825351
0.44206379720285277,6.3952179657397785
0.45941731346364734,5.735489280292759
0.47745205385661277,5.1009559158562165
0.4961947603002895,4.68132622507663
0.5156732244854959,4.291247928582917
0.5359163290848509,3.859168989842498
0.556954090580013,3.5033054338697
0.5788177037701272,3.195177827634028
0.6015395880274836,2.891164640979086
0.6251534353689703,2.623740054149719
0.6496942604146115,2.383779271616601
0.6751984523072497,2.159203689314283
0.7017038286703824,1.956547969208236
0.7292496916841444,1.7740777930600058
0.7578768863625915,1.6092751848385067
0.7876278611187046,1.4600027931447697
0.8185467307069019,1.3244421642369275
0.850679341636415,1.2010600491205257
0.8840733401525058,1.088740959919828
0.9187782428863317,0.9866035064992525
0.9548455102782278,0.8938202747642751
0.9923286228832539,0.8096147379248095
1.0312831606721837,0.7332607981068713
1.0717668854455022,0.6640703530147836
1.1138398264826193,0.6013718359499105
1.1575643695533022,0.5445498756365216
1.2030053494233226,0.49304895601729304
1.2502301459914542,0.44636737335865484
1.299308784200415,0.4040519984260933
1.3503140378698726,0.36569758241303374
1.4033215376054824,0.33094085126078276
1.4584098829439835,0.29945108307800694
1.5156607589006013,0.2709270528582002
1.575159057091621,0.24509451444300076
1.6369930016117014,0.22170362540232363
1.7012542798525885,0.2005257474665595
1.7680381784572046,0.1813529531090135
1.8374437246107238,0.16399675357067314
1.9095738328780953,0.14828628768157093
1.9845354578058014,0.13406668033390545
2.0624397525140905,0.12119773551602617
2.143402233514853,0.10955263947726648
2.227542951999554,0.09901635033617896
2.314986671851158,0.08948448658683722
2.405863054644063,0.08086235630434009
2.5003068519063225,0.073064067809167
2.598458104929248,0.06601167912455519
2.7004623524206774,0.05963450702780315
2.806470846309834,0.05386849586234852
2.916640776023701,0.04865560396674278
3.031135501567576,0.04394324561391362
3.150124795755327,0.03968378336244738
3.2737850959485697,0.035834066574855945
3.4022997656780634,0.03235501557854511
3.5358593665351745,0.029211242212223255
3.6746619407366854,0.026370704871757588
3.8189133047818515,0.02380439528422175
3.968827354637162,0.02148605188725666
4.1246263829013445,0.019391903137313433
4.286541408420921,0.017500436618546274
4.4548125188449825,0.015792186508017236
4.629689226627261,0.01424954069868352
4.811430839003257,0.012856566248191821
5.000306842491082,0.011598852045104554
5.196597302486189,0.010463363283498792
5.400593278542364,0.009438310634462904
5.612597255954967,0.008513032373368019
5.8329235942862,0.00767788752721753
6.06189899349756,0.0069241578525683556
6.29986297838068,0.006243959914822587
6.547168402004727,0.005630167951728651
6.804181968927091,0.00507634182021456
7.071284778942991,0.004576661531073102
7.348872892180382,0.004125867969597164
7.637357916378006,0.0037192091390323674
7.937167617217536,0.003352391712432144
8.248746552614573,0.003021537166431766
8.572556731909314,0.0027231419954072567
8.909078300934132,0.0024540417112497047
9.258810253973934,0.0022113781695572185
9.622271173675122,0.001992569978196403
9.999999999999984,0.001795286166966326
