k [1/Mpc],P(k) [Mpc^3]
0.0001,4637.156951378346
0.00010392556829367125,4818.247394974723
0.00010800523745162529,5006.332411598957
0.00011224505680853065,5201.673478560847
0.00011665131316981963,5404.540440061634
0.00012123054013376525,5615.211189123284
0.00012598952777950273,5833.9728774529485
0.00013093533273536104,6061.121733821929
0.00013607528864243335,6296.963543418365
0.00014141701702890234,6541.813516829037
0.00014696843861124463,6795.99557235475
0.00015273778503907136,7059.843572371913
0.00015873361110102093,7333.700168537241
0.00016496480740980205,7617.917205354087
0.0001714406135851971,7912.856458421203
0.00017817063195457305,8218.888457696865
0.00018516484179121546,8536.393724238704
0.000192433614111598,8865.760901434354
0.00019998772705352857,9207.386289469734
0.0002078383818579757,9561.675520636718
0.00021599721947827182,9929.041160047776
0.0002244763378413224,10309.904214394533
0.0002332883097864157,10704.692423558197
0.00024244620170823283,11113.838245904033
0.0002519635929317015,11537.781354472285
0.0002618545958474233,11976.964771527726
0.0002721338768375308,12431.836064713805
0.0002828166780230032,12902.84668167958
0.0002939188398646886,13390.448143816102
0.0003054568246515432,13895.094908155403
0.00031744774091091926,14417.239259721278
0.00032990936877709396,14957.331131241997
0.00034286018635565856,15515.819153568593
0.00035631939712285854,16093.145412212962
0.000370306958400514,16689.747875688732
0.00038484361094874304,17306.054982720503
0.0003999509097203664,17942.482994049016
0.00041565125582259895,18599.43882959856
0.00043196792973341727,19277.315130487717
0.0004489251258218605,19976.49080363118
0.0004665479882234472,20697.324912547832
0.000484862648123908,21440.150432374092
0.000503896262506515,22205.27873337243
0.0005236770544204653,22992.992235412636
0.0005442343548300266,23803.544361190525
0.0005655986461065005,24637.154749424917
0.0005878016072274912,25493.998472627663
0.0006108761607505036,26374.211644461124
0.0006348565216305217,27277.876043972756
0.0006597782479539537,28205.017630170434
0.0006856782936641739,29155.60667360687
0.0007125950633568407,30129.536300790198
0.0007405684692262436,31126.633969223953
0.0007696399902471156,32146.644238999837
0.0007998527336796708,33189.220364349865
0.000831251498989063,34253.93361643127
0.0008638828442740447,35340.24799082412
0.000897795155303332,36447.53026261287
0.0009330387172620361,37575.04281860056
0.0009696657893145519,38721.93098102036
0.001007730682094461,39887.23380587433
0.0010472898382363582,41069.874176310164
0.0010884019160690055,42268.65886927359
0.0011311278765939214,43482.26672530446
0.001175531073878369,44709.2256081717
0.0012216773489967915,45947.93434863273
0.0012696351276599736,47196.66518166108
0.0013194755216767058,48453.56269846176
0.0013712724343984,49716.633763471815
0.0014251026703029975,50983.72010588807
0.0014810460488806749,52252.52654815628
0.0015391855229902056,53520.71298715012
0.001599607301861487,54785.91647722513
0.0016624009789266115,56045.681954275926
0.0017276596646690358,57297.51062374256
0.0017954801246878305,58538.83002727474
0.0018659629231817451,59766.823214342876
0.001939212572065829,60978.317248436266
0.0020153376859417325,62170.03474325555
0.002094451143151469,63338.83076959695
0.002176670253153458,64481.613541790444
0.002262116930469025,65595.2398603245
0.002350917875457286,66676.5203595475
0.002443204762186487,67722.2404454519
0.0025391144336803463,68729.21666351262
0.002638789104828933,69694.30283083001
0.002742376573264949,70614.39943948259
0.0028500304385181063,71486.54590518905
0.0029619103297725525,72307.85523762424
0.0030781821425650787,73075.40678773458
0.003199018284775064,73786.24243340212
0.0033245979322709396,74437.50946614452
0.003455107294592217,75026.59435629376
0.0035907398910610534,75551.04723534343
0.0037316968377327513,76007.90708276743
0.0038781871456107214,76393.27168889012
0.0040304280305680515,76703.61973910384
0.00418864523543527,76938.70006911916
0.004353073364731888,77100.13832268206
0.00452395623253805,77187.01988461154
0.004701547224022131,77191.76132524756
0.004886109671160325,77106.27287641565
0.005077917243205399,76927.24555528135
0.005277254352483535,76655.21666993275
0.005484416576121017,76290.94715862148
0.005699711094326071,75834.75504584459
0.005923457145875801,75287.08017113146
0.006155986501483508,74647.25538508751
0.006397643955748424,73913.36708437465
0.0066487878384172625,73083.76807220819
0.0069097905457156435,72156.46281892684
0.007181039092537346,71129.77840985832
0.007462935686310132,70002.52686469427
0.007755898323389004,68773.91460264577
0.00806036140886134,67443.84237269504
0.008376776400682916,66012.07184526234
0.008705612479099857,64478.83472341503
0.009047357242349292,62844.48029743613
0.00940251742967013,61108.194436986945
0.009771619672696168,59270.28348294082
0.010155211276345676,57331.33353612971
0.010553861030365234,55292.765627321634
0.010968160052731372,53156.904181510145
0.011398722666160517,50924.054561452576
0.011846187309026826,48596.58029574473
0.012311217482038896,46178.768249685585
0.012794502732078732,43676.93114998548
0.013296759674662111,41099.65577407963
0.013818733056536317,38451.48356388112
0.014361196859990781,35740.086840266034
0.014924955450518284,32977.05754304151
0.015510844769528393,30176.759439864112
0.016119733573881575,27358.516269346255
0.01675252472408214,24532.313677774826
0.017410156523040152,21712.90885459311
0.018093604107387147,18929.258102169017
0.01880388089340914,16221.06785300524
0.019542040079740527,13630.895626182186
0.02030917620904734,11153.714846297184
0.021106426791015535,8791.752023550778
0.021934973989050584,6610.634520990489
0.02279604637318978,4716.1382884130135
0.023690920741826323,3172.0518354082883
0.02462092401494623,1870.7751834437877
0.02558743520168586,831.8955268934484
0.02659188744512693,263.49941090189
0.027635770147361564,102.28003330197426
0.028720631177978267,104.12605157473526
0.029848079169243254,333.487109768705
0.03101978590138095,1468.2601606377625
0.03223748878149028,3805.3543578946706
0.0335029934197723,5470.149019622181
0.03481817630688963,6403.5430158164445
0.03618498759642746,8006.4837478053305
0.037605453996581675,10313.066892498657
0.03908168177536263,12607.513511061592
0.04061585988376978,14291.535195921542
0.04221026320156896,15408.980875169618
0.04386725591048496,16147.707511485967
0.0455892949998106,16458.39525737119
0.047378933909631396,16236.710568684968
0.049238826317067365,15334.00876313155
0.05117173007114603,13635.057128661143
0.05318051128214196,11485.487671943107
0.05526814857144601,9619.489075839885
0.057437737488265785,7697.9026525101835
0.0596924950997073,4579.014512631625
0.0620357647610427,2349.943758957605
0.06447102107323864,2450.8418155137892
0.06700187503509585,897.3324691255655
0.06963207939763882,4.421822106739388
0.0723655342286965,0.4023039377225934
0.07520629269592405,62.505844380595946
0.07815856707684081,661.8472446743302
0.08122673500479707,366.8101521863918
0.08441534596012978,393.33714305297303
0.0877291280161335,308.6238922819651
0.09117299484984914,8.032297968929761
0.09475205302806537,1.7306413447891746
0.09847160957933764,138.86929034105933
0.1023371798632519,931.6759491114476
0.10635449574860109,1020.8953201143627
0.11052951411260206,1557.1936927614418
0.1148684256737553,1595.6887698968096
0.1193776641714435,1324.6391035393115
0.1240639159058831,810.7148901396047
0.12893412965257148,399.47853263091554
0.13399552696593373,43.37817650781929
0.1392556128874462,11.100277746632914
0.14472218707411338,39.68044890455716
0.15040335536380234,69.83510595843232
0.15630754179458153,23.556204684203507
0.16244350109588662,3.288256302728599
0.16882033167003618,114.20011670781392
0.17544748908334581,248.12792746030465
0.1823348000868439,351.1815033965265
0.189492477187382,278.41537183794037
0.19693113379074215,108.03470963324902
0.20466179993919872,15.216213500587777
0.21269593866686892,0.6268723799774198
0.22104546299710207,4.168563185298801
0.22972275360711503,1.074127168433066
0.23874067718606454,31.92659244083706
0.2481126055137766,81.02714446722345
0.25785243528842716,85.04307221159027
0.26797460873256895,38.604826174455106
0.27849413500806414,5.403824828524669
0.28942661247167484,0.1588318821454338
0.3007882518043098,2.1866423925413674
0.31259590004822796,16.151154046977876
0.324867065587837,28.816837193376884
0.3376199441111335,18.452295125161466
0.35087344559027084,4.783959598519846
0.36464722232127456,1.7439110018830835
0.37896169806447155,5.003129209081907
0.3938380983288488,10.718860556647035
0.4092984818452433,8.637204993241529
0.4253657732750382,3.4049248160142604
0.44206379720285277,2.5386964952134696
0.45941731346364734,4.410957199975545
0.47745205385661277,4.978571419687325
0.4961947603002895,2.890875486176464
0.5156732244854959,2.241587121200313
0.5359163290848509,2.820941090210967
0.556954090580013,2.634367321027353
0.5788177037701272,1.869748456945235
0.6015395880274836,1.8230882616582478
0.6251534353689703,1.8109966818821173
0.6496942604146115,1.5399290101147571
0.6751984523072497,1.341271331703617
0.7017038286703824,1.1945749562554389
0.7292496916841444,1.0800619604273727
0.7578768863625915,0.9841926465237509
0.7876278611187046,0.8973573423718826
0.8185467307069019,0.8136606552319896
0.850679341636415,0.7334977886200419
0.8840733401525058,0.6585006715193437
0.9187782428863317,0.5897125851291815
0.9548455102782278,0.5276867278050204
0.9923286228832539,0.47259216223954215
1.0312831606721837,0.42404462768282275
1.0717668854455022,0.38107366379474833
1.1138398264826193,0.3428186384543387
1.1575643695533022,0.30857720206694006
1.2030053494233226,0.27777488066750927
1.2502301459914542,0.24994544545885694
1.299308784200415,0.22477788233017176
1.3503140378698726,0.20205674910789803
1.4033215376054824,0.1815783566023606
1.4584098829439835,0.16314930590325832
1.5156607589006013,0.14658728632183593
1.575159057091621,0.13171900762902297
1.6369930016117014,0.11837052718083
1.7012542798525885,0.10638138469515257
1.7680381784572046,0.09560894668750387
1.8374437246107238,0.08592631319849744
1.9095738328780953,0.07722048226256797
1.9845354578058014,0.06939165442507184
2.0624397525140905,0.062352405619487544
2.143402233514853,0.05602412416060688
2.227542951999554,0.05033585845702982
2.314986671851158,0.0452235943181325
2.405863054644063,0.04062958289049665
2.5003068519063225,0.03650148550531839
2.598458104929248,0.03279197918884647
2.7004623524206774,0.029458561308446506
2.806470846309834,0.026463065247604535
2.916640776023701,0.02377121453661603
3.031135501567576,0.021352241661921588
3.150124795755327,0.01917861250165287
3.2737850959485697,0.017225594149042445
3.4022997656780634,0.015470924665204376
3.5358593665351745,0.013894569115208538
3.6746619407366854,0.012478499368053985
3.8189133047818515,0.011206474021824609
3.968827354637162,0.010063840914241836
4.1246263829013445,0.009037434436061675
4.286541408420921,0.00811543220661499
4.4548125188449825,0.007287217332617671
4.629689226627261,0.006543255620743053
4.811430839003257,0.00587500028243732
5.000306842491082,0.005274785025076216
5.196597302486189,0.004735715392081504
5.400593278542364,0.004251590908566234
5.612597255954967,0.003816835827428802
5.8329235942862,0.0034264353796646272
6.06189899349756,0.0030758726117873516
6.29986297838068,0.002761086438691111
6.547168402004727,0.0024784299088766552
6.804181968927091,0.0022246279156362
7.071284778942991,0.0019967392233525977
7.348872892180382,0.0017921233185272962
7.637357916378006,0.0016084108298232754
7.937167617217536,0.001443473225625142
8.248746552614573,0.0012953979725059907
8.572556731909314,0.0011624666955478446
8.909078300934132,0.001043135496886586
9.258810253973934,0.0009360162244032355
9.622271173675122,0.0008398610100935071
9.999999999999984,0.0007535494620286157
