k [1/Mpc],P(k) [Mpc^3]
0.0001,1012.2430124339202
0.00010392556829367125,1054.9541532270566
0.00010800523745162529,1099.4618418668874
0.00011224505680853065,1145.84095226685
0.00011665131316981963,1194.1694608090727
0.00012123054013376525,1244.5285281542915
0.00012598952777950273,1297.0024563311995
0.00013093533273536104,1351.6788693648853
0.00013607528864243335,1408.6489238734353
0.00014141701702890234,1468.0074270282687
0.00014696843861124463,1529.8529959509942
0.00015273778503907136,1594.2881405590817
0.00015873361110102093,1661.4194129222562
0.00016496480740980205,1731.35754536308
0.0001714406135851971,1804.2173632764755
0.00017817063195457305,1880.118121281612
0.00018516484179121546,1959.1836412330836
0.000192433614111598,2041.5424305323327
0.00019998772705352857,2127.32792246723
0.0002078383818579757,2216.6784169565562
0.00021599721947827182,2309.7373695982546
0.0002244763378413224,2406.6534715875737
0.0002332883097864157,2507.5805794751136
0.00024244620170823283,2612.6781679490828
0.0002519635929317015,2722.1111176180298
0.0002618545958474233,2836.0499721693177
0.0002721338768375308,2954.671260370221
0.0002828166780230032,3078.1573687478103
0.0002939188398646886,3206.6969571716295
0.0003054568246515432,3340.4844614815133
0.00031744774091091926,3479.7201041317203
0.00032990936877709396,3624.610588827106
0.00034286018635565856,3775.3687607582583
0.00035631939712285854,3932.2140583706146
0.000370306958400514,4095.37210074945
0.00038484361094874304,4265.074251296636
0.0003999509097203664,4441.558517130909
0.00041565125582259895,4625.068872823573
0.00043196792973341727,4815.855634374821
0.0004489251258218605,5014.175331201832
0.0004665479882234472,5220.2897332843895
0.000484862648123908,5434.46684865498
0.000503896262506515,5656.979931721141
0.0005236770544204653,5888.107477067157
0.0005442343548300266,6128.133516893072
0.0005655986461065005,6377.346061012482
0.0005878016072274912,6636.038037751518
0.0006108761607505036,6904.506350600171
0.0006348565216305217,7183.05117912005
0.0006597782479539537,7471.976413599875
0.0006856782936641739,7771.586682987257
0.0007125950633568407,8082.188366527859
0.0007405684692262436,8404.088807007034
0.0007696399902471156,8737.594264978045
0.0007998527336796708,9083.01099635699
0.000831251498989063,9440.640472813293
0.0008638828442740447,9810.779701835272
0.000897795155303332,10193.720965398714
0.0009330387172620361,10589.746587321104
0.0009696657893145519,10999.131730028079
0.001007730682094461,11422.139175290507
0.0010472898382363582,11859.017485212893
0.0010884019160690055,12310.002231681105
0.0011311278765939214,12775.307970087839
0.001175531073878369,13255.131118406136
0.0012216773489967915,13749.646498712724
0.0012696351276599736,14259.00303943876
0.0013194755216767058,14783.325646111423
0.0013712724343984,15322.707033292007
0.0014251026703029975,15877.208379349719
0.0014810460488806749,16446.85561223226
0.0015391855229902056,17031.63044811357
0.001599607301861487,17631.476604215684
0.0016624009789266115,18246.309165627288
0.0017276596646690358,18876.010980304916
0.0017954801246878305,19520.412412818026
0.0018659629231817451,20179.25838783036
0.001939212572065829,20852.23177654113
0.0020153376859417325,21538.968041157652
0.002094451143151469,22239.055404575935
0.002176670253153458,22952.020847654596
0.002262116930469025,23677.313725082306
0.002350917875457286,24414.311777157138
0.002443204762186487,25162.327157512766
0.0025391144336803463,25920.607138496816
0.002638789104828933,26688.32776534339
0.002742376573264949,27464.584488123186
0.0028500304385181063,28248.393599834435
0.0029619103297725525,29038.695306626694
0.0030781821425650787,29834.352581004663
0.003199018284775064,30634.151447622895
0.0033245979322709396,31436.794772610006
0.003455107294592217,32240.902979495128
0.0035907398910610534,33045.01590290132
0.0037316968377327513,33847.577855487
0.0038781871456107214,34646.95334108554
0.0040304280305680515,35441.453023755705
0.00418864523543527,36229.345284960626
0.004353073364731888,37008.80359748214
0.00452395623253805,37777.68267322146
0.004701547224022131,38533.648588529184
0.004886109671160325,39274.634308271285
0.005077917243205399,39999.25318232094
0.005277254352483535,40706.09335392137
0.005484416576121017,41392.100250744814
0.005699711094326071,42052.988491077114
0.005923457145875801,42684.91830030255
0.006155986501483508,43285.99168080383
0.006397643955748424,43854.728114738806
0.0066487878384172625,44388.481025977635
0.0069097905457156435,44883.324819180314
0.007181039092537346,45335.49865318072
0.007462935686310132,45742.550120315005
0.007755898323389004,46102.54036066847
0.00806036140886134,46412.926691474146
0.008376776400682916,46670.1216201008
0.008705612479099857,46870.512294626984
0.009047357242349292,47010.26540353969
0.00940251742967013,47085.54075521258
0.009771619672696168,47092.725871795985
0.010155211276345676,47028.4775113262
0.010553861030365234,46889.73083459398
0.010968160052731372,46672.95714392655
0.011398722666160517,46374.39857585505
0.011846187309026826,45990.6647033341
0.012311217482038896,45518.384139023205
0.012794502732078732,44954.7298786117
0.013296759674662111,44296.79093044793
0.013818733056536317,43541.5153247324
0.014361196859990781,42686.71754293381
0.014924955450518284,41730.271475358444
0.015510844769528393,40671.02585277781
0.016119733573881575,39508.4572456117
0.01675252472408214,38242.0563427104
0.017410156523040152,36873.10189794372
0.018093604107387147,35403.44793043387
0.01880388089340914,33836.5363328931
0.019542040079740527,32177.451452845853
0.02030917620904734,30430.972116824236
0.021106426791015535,28604.98548983235
0.021934973989050584,26710.179356511286
0.02279604637318978,24760.14466597047
0.023690920741826323,22769.868336343385
0.02462092401494623,20748.332192976122
0.02558743520168586,18708.813219279964
0.02659188744512693,16678.711154456763
0.027635770147361564,14696.787753463053
0.028720631177978267,12791.362334521178
0.029848079169243254,10942.772851086118
0.03101978590138095,9138.285187679376
0.03223748878149028,7440.519552179875
0.0335029934197723,5977.2343943668275
0.03481817630688963,4787.607075242135
0.03618498759642746,3688.5721431631423
0.037605453996581675,2546.3885005519583
0.03908168177536263,1546.602159238732
0.04061585988376978,988.4688264039131
0.04221026320156896,817.5914555805443
0.04386725591048496,634.3260677674638
0.0455892949998106,182.0148609500655
0.047378933909631396,10.703654858323597
0.049238826317067365,0.6798543493705895
0.05117173007114603,0.5334517985688857
0.05318051128214196,4.1488732282554235
0.05526814857144601,7.409631590409256
0.057437737488265785,0.5130911667755943
0.0596924950997073,0.1017867782228352
0.0620357647610427,1.6195616866194458
0.06447102107323864,61.45399663798413
0.06700187503509585,213.51617241337374
0.06963207939763882,293.6227717161969
0.0723655342286965,535.0057290230349
0.07520629269592405,868.180030938432
0.07815856707684081,1140.96370461624
0.08122673500479707,1401.2345222110764
0.08441534596012978,1581.9490255096073
0.0877291280161335,1620.8936154992857
0.09117299484984914,1508.867777946505
0.09475205302806537,1251.4951862831365
0.09847160957933764,949.2142716053421
0.1023371798632519,570.6541542245411
0.10635449574860109,267.37173688056924
0.11052951411260206,156.803934243885
0.1148684256737553,9.52179703185275
0.1193776641714435,0.4264856193211062
0.1240639159058831,2.7316497624952056
0.12893412965257148,0.4755799594878264
0.13399552696593373,2.342802728844876
0.1392556128874462,40.995104518349095
0.14472218707411338,124.82830019351229
0.15040335536380234,256.69308143806865
0.15630754179458153,358.20394451123843
0.16244350109588662,379.77224852157616
0.16882033167003618,301.1479741241353
0.17544748908334581,170.80779678543044
0.1823348000868439,62.44253057426514
0.189492477187382,11.952064392440205
0.19693113379074215,0.7656686150646727
0.20466179993919872,1.2824075409565647
0.21269593866686892,14.175863362219093
0.22104546299710207,54.3057959291065
0.22972275360711503,104.19466024568571
0.23874067718606454,117.20233379750908
0.2481126055137766,80.70962029269838
0.25785243528842716,32.58071520944343
0.26797460873256895,8.312082995410423
0.27849413500806414,4.178155974995398
0.28942661247167484,11.292862576867055
0.3007882518043098,30.309320742733064
0.31259590004822796,43.792543502267826
0.324867065587837,33.87658476550978
0.3376199441111335,15.118115935513718
0.35087344559027084,6.561374240015633
0.36464722232127456,7.930303903512284
0.37896169806447155,15.488283496421747
0.3938380983288488,19.252989595876937
0.4092984818452433,13.116074655606747
0.4253657732750382,6.93812051972973
0.44206379720285277,6.431856297465569
0.45941731346364734,9.345174138896468
0.47745205385661277,9.72479680235835
0.4961947603002895,6.592579560515697
0.5156732244854959,5.042681969252335
0.5359163290848509,5.842316286904024
0.556954090580013,5.96265056153123
0.5788177037701272,4.574347456309423
0.6015395880274836,3.9828076487322055
0.6251534353689703,4.152255140159363
0.6496942604146115,3.6880057718088533
0.6751984523072497,3.120269137959888
0.7017038286703824,3.0320007315191813
0.7292496916841444,2.897987433012394
0.7578768863625915,2.671758210980757
0.7876278611187046,2.4027649434626004
0.8185467307069019,2.1316648343231135
0.850679341636415,1.8866879459669093
0.8840733401525058,1.6837314700248347
0.9187782428863317,1.519192065108823
0.9548455102782278,1.3818773973332827
0.9923286228832539,1.2634047216240318
1.0312831606721837,1.157526138120691
1.0717668854455022,1.0595804966211697
1.1138398264826193,0.9669889521319912
1.1575643695533022,0.8801187151121171
1.2030053494233226,0.7995327594092924
1.2502301459914542,0.7255203669303906
1.299308784200415,0.6581492167932301
1.3503140378698726,0.5972958086131676
1.4033215376054824,0.5424306782620291
1.4584098829439835,0.49283520396090014
1.5156607589006013,0.4478881228618461
1.575159057091621,0.40705712127955707
1.6369930016117014,0.36988506960589934
1.7012542798525885,0.33599635999027727
1.7680381784572046,0.3051181330298677
1.8374437246107238,0.27700859950756923
1.9095738328780953,0.25144116775405356
1.9845354578058014,0.22820414642233294
2.0624397525140905,0.20709995108263898
2.143402233514853,0.1879380155043838
2.227542951999554,0.17053791482871022
2.314986671851158,0.15473616880124189
2.405863054644063,0.14038484215597377
2.5003068519063225,0.1273500123199094
2.598458104929248,0.11551088109575372
2.7004623524206774,0.10475964055066418
2.806470846309834,0.09499838044167469
2.916640776023701,0.08613772609756958
3.031135501567576,0.07809612853260274
3.150124795755327,0.07079919216415606
3.2737850959485697,0.06417868120025293
3.4022997656780634,0.058172127910611424
3.5358593665351745,0.05272281933904861
3.6746619407366854,0.04777928580022479
3.8189133047818515,0.043294813353306774
3.968827354637162,0.03922706391147679
4.1246263829013445,0.03553785356207944
4.286541408420921,0.032192502365578135
4.4548125188449825,0.02915943635275046
4.629689226627261,0.026409917995032946
4.811430839003257,0.02391779642337924
5.000306842491082,0.021659201098494
5.196597302486189,0.01961235570923123
5.400593278542364,0.017757504102856453
5.612597255954967,0.016076729160618794
5.8329235942862,0.01455378154142082
6.06189899349756,0.013173932443786942
6.29986297838068,0.011923861993013906
6.547168402004727,0.01079148936101071
6.804181968927091,0.009765843929570856
7.071284778942991,0.00883696485246314
7.348872892180382,0.007995809404981128
7.637357916378006,0.00723416378958329
7.937167617217536,0.006544567741629431
8.248746552614573,0.005920254972869271
8.572556731909314,0.005355089792247248
8.909078300934132,0.004843508806345309
9.258810253973934,0.004380467864358614
9.622271173675122,0.00396139350899683
9.999999999999984,0.003582139890829801
