k [1/Mpc],P(k) [Mpc^3]
0.0001,134.53744308123058
0.00010392556829367125,140.61969675336366
0.00010800523745162529,146.97617512560976
0.00011224505680853065,153.61914672298735
0.00011665131316981963,160.56141517739474
0.00012123054013376525,167.81634649159236
0.00012598952777950273,175.39788520377257
0.00013093533273536104,183.32057844095203
0.00013607528864243335,191.59960752848156
0.00014141701702890234,200.2508086638633
0.00014696843861124463,209.29070483895512
0.00015273778503907136,218.73651944309614
0.00015873361110102093,228.60619418966206
0.00016496480740980205,238.9184381442353
0.0001714406135851971,249.6927465486501
0.00017817063195457305,260.9494387956456
0.00018516484179121546,272.70968469841927
0.000192433614111598,284.99551611623133
0.00019998772705352857,297.829883942842
0.0002078383818579757,311.23665993390466
0.00021599721947827182,325.24067460999214
0.0002244763378413224,339.8677718504464
0.0002332883097864157,355.1448147771443
0.00024244620170823283,371.0997477275011
0.0002519635929317015,387.7615841873998
0.0002618545958474233,405.1604183833634
0.0002721338768375308,423.32751910060324
0.0002828166780230032,442.2953201162122
0.0002939188398646886,462.0974855205947
0.0003054568246515432,482.7689091335768
0.00031744774091091926,504.34567567205806
0.00032990936877709396,526.8651867479142
0.00034286018635565856,550.3661136013714
0.00035631939712285854,574.888449717245
0.000370306958400514,600.4735625299229
0.00038484361094874304,627.1641100413494
0.0003999509097203664,655.0041680773016
0.00041565125582259895,684.0391607695421
0.00043196792973341727,714.315853184527
0.0004489251258218605,745.8824537718527
0.0004665479882234472,778.7884400896161
0.000484862648123908,813.0846892784574
0.000503896262506515,848.8234684515778
0.0005236770544204653,886.0583545142117
0.0005442343548300266,924.8443382679891
0.0005655986461065005,965.237557052601
0.0005878016072274912,1007.295363923884
0.0006108761607505036,1051.0763845341316
0.0006348565216305217,1096.6403296888013
0.0006597782479539537,1144.0481079243852
0.0006856782936641739,1193.3614535217407
0.0007125950633568407,1244.6428386155865
0.0007405684692262436,1297.9556139317322
0.0007696399902471156,1353.3635443419378
0.0007998527336796708,1410.9309847377483
0.000831251498989063,1470.722426171991
0.0008638828442740447,1532.8020562476677
0.000897795155303332,1597.2341016201008
0.0009330387172620361,1664.081952777416
0.0009696657893145519,1733.4082927385505
0.001007730682094461,1805.274810185896
0.0010472898382363582,1879.7412384120344
0.0010884019160690055,1956.865867076277
0.0011311278765939214,2036.7043736765518
0.001175531073878369,2119.3095848080993
0.0012216773489967915,2204.7317164363003
0.0012696351276599736,2293.0173914486286
0.0013194755216767058,2384.209770380538
0.0013712724343984,2478.3472124766063
0.0014251026703029975,2575.4623616531285
0.0014810460488806749,2675.5827834530705
0.0015391855229902056,2778.7297001900474
0.001599607301861487,2884.9179699926644
0.0016624009789266115,2994.1566016438724
0.0017276596646690358,3106.4490229494177
0.0017954801246878305,3221.7912771205383
0.0018659629231817451,3340.1670055690447
0.001939212572065829,3461.5477066523695
0.0020153376859417325,3585.895523853091
0.002094451143151469,3713.1642301827883
0.002176670253153458,3843.297363773103
0.002262116930469025,3976.226493709851
0.002350917875457286,4111.870507047598
0.002443204762186487,4250.135700318751
0.0025391144336803463,4390.914336229472
0.002638789104828933,4534.0848013097275
0.002742376573264949,4679.511358847133
0.0028500304385181063,4827.043588938271
0.0029619103297725525,4976.5163481205045
0.0030781821425650787,5127.7496369624205
0.003199018284775064,5280.548337815088
0.0033245979322709396,5434.70208189923
0.003455107294592217,5589.985344677372
0.0035907398910610534,5746.157047369908
0.0037316968377327513,5902.956858377237
0.0038781871456107214,6060.105166438853
0.0040304280305680515,6217.307692768602
0.00418864523543527,6374.260780959201
0.004353073364731888,6530.6478118551295
0.00452395623253805,6686.11332448011
0.004701547224022131,6840.249027571736
0.004886109671160325,6992.64001739679
0.005077917243205399,7142.973978986482
0.005277254352483535,7290.992496068774
0.005484416576121017,7436.313140172853
0.005699711094326071,7578.244593958643
0.005923457145875801,7716.035656013661
0.006155986501483508,7849.10700692414
0.006397643955748424,7977.027908076245
0.0066487878384172625,8099.366691949096
0.0069097905457156435,8215.665698009941
0.007181039092537346,8325.46232731938
0.007462935686310132,8428.22563558893
0.007755898323389004,8523.336039054106
0.00806036140886134,8610.16793166215
0.008376776400682916,8688.067574001647
0.008705612479099857,8756.378587002973
0.009047357242349292,8814.44349481678
0.00940251742967013,8861.589644166546
0.009771619672696168,8897.165580991643
0.010155211276345676,8920.510276444313
0.010553861030365234,8930.975216032011
0.010968160052731372,8927.921607048875
0.011398722666160517,8910.634211978591
0.011846187309026826,8878.438855933871
0.012311217482038896,8830.68983476437
0.012794502732078732,8766.77961659964
0.013296759674662111,8686.174571164855
0.013818733056536317,8588.276890182753
0.014361196859990781,8472.569802054028
0.014924955450518284,8338.626533598048
0.015510844769528393,8186.079315968025
0.016119733573881575,8014.739855822354
0.01675252472408214,7824.4453243097905
0.017410156523040152,7615.183253969987
0.018093604107387147,7387.157956216444
0.01880388089340914,7140.686197958306
0.019542040079740527,6876.391973338504
0.02030917620904734,6595.078513732172
0.021106426791015535,6297.780242820311
0.021934973989050584,5985.900586598351
0.02279604637318978,5661.0745017460695
0.023690920741826323,5325.304566051276
0.02462092401494623,4980.911002198041
0.02558743520168586,4630.471535951476
0.02659188744512693,4276.885278387337
0.027635770147361564,3923.3738131464866
0.028720631177978267,3573.305522422029
0.029848079169243254,3230.1302810654533
0.03101978590138095,2897.3409142762926
0.03223748878149028,2578.1829962013776
0.0335029934197723,2276.2986646086124
0.03481817630688963,1994.9884986901566
0.03618498759642746,1736.6186472428344
0.037605453996581675,1503.1927839440614
0.03908168177536263,1295.4895514722605
0.04061585988376978,1114.0956702676926
0.04221026320156896,959.2626368569241
0.04386725591048496,830.0184853006426
0.0455892949998106,725.7704536353773
0.047378933909631396,645.4117644861343
0.049238826317067365,587.1864731619067
0.05117173007114603,549.3006793218325
0.05318051128214196,530.6717133656781
0.05526814857144601,529.0952181741039
0.057437737488265785,542.6833253314564
0.0596924950997073,570.3056948694843
0.0620357647610427,611.0380228377421
0.06447102107323864,662.3357475983324
0.06700187503509585,718.3990529603174
0.06963207939763882,771.9565140404546
0.0723655342286965,814.7694817200687
0.07520629269592405,839.2843692244319
0.07815856707684081,839.4489762026002
0.08122673500479707,811.2896210006458
0.08441534596012978,753.6685532965577
0.0877291280161335,669.3724467581884
0.09117299484984914,566.278838705996
0.09475205302806537,457.28433080831593
0.09847160957933764,354.23265676715044
0.1023371798632519,265.3969833420049
0.10635449574860109,199.46816896105253
0.11052951411260206,157.23476116496698
0.1148684256737553,135.61434786278662
0.1193776641714435,132.01666587926633
0.1240639159058831,143.998698035041
0.12893412965257148,168.87876818885368
0.13399552696593373,201.27744324968586
0.1392556128874462,231.3313161469142
0.14472218707411338,246.0998058300637
0.15040335536380234,236.75580535569537
0.15630754179458153,205.02434877951558
0.16244350109588662,160.58042183957804
0.16882033167003618,116.43905266856447
0.17544748908334581,83.96129687718907
0.1823348000868439,67.18011048747864
0.189492477187382,64.48577452136648
0.19693113379074215,72.81849318246364
0.20466179993919872,86.7376878666034
0.21269593866686892,96.8309498467003
0.22104546299710207,94.68277339019602
0.22972275360711503,79.54495017108536
0.23874067718606454,60.16845806223948
0.2481126055137766,45.687612001207036
0.25785243528842716,39.88450616156837
0.26797460873256895,41.72353237796013
0.27849413500806414,46.305752448015504
0.28942661247167484,47.298346288652
0.3007882518043098,41.71539737064223
0.31259590004822796,33.44582908174616
0.324867065587837,27.806817064072863
0.3376199441111335,26.53361466486875
0.35087344559027084,27.374170388761495
0.36464722232127456,26.60402718519246
0.37896169806447155,23.249737682367787
0.3938380983288488,19.78715740074486
0.4092984818452433,18.218152206735336
0.4253657732750382,17.805011512794
0.44206379720285277,16.686183980105966
0.45941731346364734,14.739365700727397
0.47745205385661277,13.258554518690875
0.4961947603002895,12.50110582903711
0.5156732244854959,11.63363013351835
0.5359163290848509,10.478472864587255
0.556954090580013,9.569819934693168
0.5788177037701272,8.897304912946113
0.6015395880274836,8.137886401338696
0.6251534353689703,7.422773376684802
0.6496942604146115,6.834800489402397
0.6751984523072497,6.266234712946082
0.7017038286703824,5.73093023176969
0.7292496916841444,5.258001181492896
0.7578768863625915,4.820370663090945
0.7876278611187046,4.415759998560645
0.8185467307069019,4.042723908039809
0.850679341636415,3.699683943516937
0.8840733401525058,3.384974577139185
0.9187782428863317,3.096848908891745
0.9548455102782278,2.8331973048889187
0.9923286228832539,2.5918424212489692
1.0312831606721837,2.3708141998318686
1.0717668854455022,2.168331999878062
1.1138398264826193,1.9827846724264986
1.1575643695533022,1.8127219341111898
1.2030053494233226,1.6568849100381158
1.2502301459914542,1.5141372911887738
1.299308784200415,1.3834268446449411
1.3503140378698726,1.263779893207886
1.4033215376054824,1.1542961677012804
1.4584098829439835,1.0541414746321291
1.5156607589006013,0.9625363470646913
1.575159057091621,0.8787623826093587
1.6369930016117014,0.8021606441329835
1.7012542798525885,0.732126806407483
1.7680381784572046,0.6681066942095394
1.8374437246107238,0.6095926835709851
1.9095738328780953,0.5561205804613166
1.9845354578058014,0.5072646116163796
2.0624397525140905,0.46263407620257935
2.143402233514853,0.4218705446205788
2.227542951999554,0.3846452718551827
2.314986671851158,0.35065674691602106
2.405863054644063,0.31962846611486084
2.5003068519063225,0.29130703860394674
2.598458104929248,0.2654603170435056
2.7004623524206774,0.2418756606465255
2.806470846309834,0.22035833487730397
2.916640776023701,0.20073000285186762
3.031135501567576,0.18282737787307465
3.150124795755327,0.16650103223359206
3.2737850959485697,0.1516142488211819
3.4022997656780634,0.13804196225284893
3.5358593665351745,0.12566978698625014
3.6746619407366854,0.11439313774772762
3.8189133047818515,0.10411640049678389
3.968827354637162,0.09475216428705553
4.1246263829013445,0.08622053129271329
4.286541408420921,0.07844848392014878
4.4548125188449825,0.07136930032688846
4.629689226627261,0.06492199215030231
4.811430839003257,0.059050843528644585
5.000306842491082,0.053704984580063335
5.196597302486189,0.04883797657357874
5.400593278542364,0.04440743173720845
5.612597255954967,0.04037466806939786
5.8329235942862,0.036704403646661075
6.06189899349756,0.0333644480048465
6.29986297838068,0.030325428461643468
6.547168402004727,0.027560547591572077
6.804181968927091,0.025045361177217187
7.071284778942991,0.022757571945169548
7.348872892180382,0.020676836535470797
7.637357916378006,0.018784607540377952
7.937167617217536,0.017063980103461572
8.248746552614573,0.015499548294708879
8.572556731909314,0.01407727386670095
8.909078300934132,0.012784366123826732
9.258810253973934,0.011609172153376819
9.622271173675122,0.010541077387838112
9.999999999999984,0.009570414269619135
