k [1/Mpc],P(k) [Mpc^3]
0.0001,998.3735621527001
0.00010392556829367125,1034.5530131745738
0.00010800523745162529,1072.0419411459497
0.00011224505680853065,1110.887509479548
0.00011665131316981963,1151.1384991774135
0.00012123054013376525,1192.8454592687272
0.00012598952777950273,1236.060842428893
0.00013093533273536104,1280.838993226999
0.00013607528864243335,1327.2360953101404
0.00014141701702890234,1375.3102249800008
0.00014696843861124463,1425.1215199332962
0.00015273778503907136,1476.7323064803059
0.00015873361110102093,1530.2071392197054
0.00016496480740980205,1585.6127508862785
0.0001714406135851971,1643.0180406680033
0.00017817063195457305,1702.4943115146973
0.00018516484179121546,1764.1155022925116
0.000192433614111598,1827.958231153598
0.00019998772705352857,1894.101694265684
0.0002078383818579757,1962.6275167636677
0.00021599721947827182,2033.6200784191763
0.0002244763378413224,2107.1666941500557
0.0002332883097864157,2183.3577135050614
0.00024244620170823283,2262.286540732413
0.0002519635929317015,2344.0495203241635
0.0002618545958474233,2428.7461759360967
0.0002721338768375308,2516.479336460688
0.0002828166780230032,2607.3552018175446
0.0002939188398646886,2701.4834764661423
0.0003054568246515432,2798.977144664198
0.00031744774091091926,2899.95268880347
0.00032990936877709396,3004.530339124461
0.00034286018635565856,3112.8341027124297
0.00035631939712285854,3224.991936348039
0.000370306958400514,3341.13545711713
0.00038484361094874304,3461.400009918623
0.0003999509097203664,3585.9250622034433
0.00041565125582259895,3714.854053408903
0.00043196792973341727,3848.33467457211
0.0004489251258218605,3986.518658654956
0.0004665479882234472,4129.561571892084
0.000484862648123908,4277.623380607342
0.000503896262506515,4430.868164299102
0.0005236770544204653,4589.464350106328
0.0005442343548300266,4753.58470326952
0.0005655986461065005,4923.405781631999
0.0005878016072274912,5099.108608445005
0.0006108761607505036,5280.8783028955195
0.0006348565216305217,5468.904087624059
0.0006597782479539537,5663.379518204683
0.0006856782936641739,5864.501348542438
0.0007125950633568407,6072.4703400080725
0.0007405684692262436,6287.491232204378
0.0007696399902471156,6509.772423572272
0.0007998527336796708,6739.526298234514
0.000831251498989063,6976.967590377525
0.0008638828442740447,7222.313906036159
0.000897795155303332,7475.785884086218
0.0009330387172620361,7737.605931262914
0.0009696657893145519,8007.9991879742265
0.001007730682094461,8287.191569653776
0.0010472898382363582,8575.409450810726
0.0010884019160690055,8872.880440027602
0.0011311278765939214,9179.830437537932
0.001175531073878369,9496.485181253931
0.0012216773489967915,9823.068548448364
0.0012696351276599736,10159.800590693507
0.0013194755216767058,10506.89940730554
0.0013712724343984,10864.576729588109
0.0014251026703029975,11233.038916525938
0.0014810460488806749,11612.486436810957
0.0015391855229902056,12003.109433722322
0.001599607301861487,12405.090846548646
0.0016624009789266115,12818.603980485348
0.0017276596646690358,13243.81157086255
0.0017954801246878305,13680.864832779433
0.0018659629231817451,14129.894523513149
0.001939212572065829,14591.015510599087
0.0020153376859417325,15064.32529263051
0.002094451143151469,15549.900854362386
0.002176670253153458,16047.800343687468
0.002262116930469025,16558.056041399585
0.002350917875457286,17080.675371391524
0.002443204762186487,17615.640076417265
0.0025391144336803463,18162.90034614553
0.002638789104828933,18722.377779241546
0.002742376573264949,19293.958156246492
0.0028500304385181063,19877.4898092567
0.0029619103297725525,20472.785848090658
0.0030781821425650787,21079.616920750897
0.003199018284775064,21697.713764363238
0.0033245979322709396,22326.760724583193
0.003455107294592217,22966.38999024399
0.0035907398910610534,23616.187537547747
0.0037316968377327513,24275.68526145163
0.0038781871456107214,24944.36254956277
0.0040304280305680515,25621.644099297
0.00418864523543527,26306.891138925417
0.004353073364731888,26999.40808364277
0.00452395623253805,27698.428075379616
0.004701547224022131,28403.11259761696
0.004886109671160325,29112.56229984101
0.005077917243205399,29825.81430280296
0.005277254352483535,30541.842999517547
0.005484416576121017,31259.500897228743
0.005699711094326071,31977.48495811521
0.005923457145875801,32694.440571309384
0.006155986501483508,33409.1841950454
0.006397643955748424,34120.605706146765
0.0066487878384172625,34827.27713113453
0.0069097905457156435,35527.0043165913
0.007181039092537346,36217.40573483003
0.007462935686310132,36896.52135624606
0.007755898323389004,37562.78060815321
0.00806036140886134,38214.45392932711
0.008376776400682916,38849.12461483425
0.008705612479099857,39464.13201833364
0.009047357242349292,40057.0065375568
0.00940251742967013,40625.60648113559
0.009771619672696168,41167.74881228555
0.010155211276345676,41680.75052441079
0.010553861030365234,42161.67079657167
0.010968160052731372,42607.48944982798
0.011398722666160517,43015.02275956611
0.011846187309026826,43381.078258393594
0.012311217482038896,43702.38132508857
0.012794502732078732,43975.619971503795
0.013296759674662111,44197.50017827717
0.013818733056536317,44364.526861492726
0.014361196859990781,44473.26748331156
0.014924955450518284,44520.22078518761
0.015510844769528393,44501.757241672174
0.016119733573881575,44414.44832669587
0.01675252472408214,44254.75511536639
0.017410156523040152,44019.324023484936
0.018093604107387147,43705.04306124824
0.01880388089340914,43308.816463622294
0.019542040079740527,42828.06135742486
0.02030917620904734,42260.3877050095
0.021106426791015535,41603.79619740282
0.021934973989050584,40857.01769143468
0.02279604637318978,40019.14934325905
0.023690920741826323,39090.208546247624
0.02462092401494623,38071.03527012967
0.02558743520168586,36963.26823653493
0.02659188744512693,35769.80703016749
0.027635770147361564,34494.62051193743
0.028720631177978267,33142.93711662839
0.029848079169243254,31721.418880107965
0.03101978590138095,30238.15695309051
0.03223748878149028,28702.468357271286
0.0335029934197723,27125.390847595423
0.03481817630688963,25519.15850209879
0.03618498759642746,23896.84372004931
0.037605453996581675,22273.431918751783
0.03908168177536263,20663.58957955823
0.04061585988376978,19082.905916753974
0.04221026320156896,17547.533332018273
0.04386725591048496,16071.472236271298
0.0455892949998106,14670.172073220581
0.047378933909631396,13356.412089199235
0.049238826317067365,12140.49357845596
0.05117173007114603,11032.58350750132
0.05318051128214196,10038.131872831176
0.05526814857144601,9162.051689413072
0.057437737488265785,8407.635478100206
0.0596924950997073,7774.257537253913
0.0620357647610427,7258.695534494397
0.06447102107323864,6856.190433843544
0.06700187503509585,6555.103974426603
0.06963207939763882,6343.9329646193955
0.0723655342286965,6212.042885280479
0.07520629269592405,6149.395905913266
0.07815856707684081,6140.106525714284
0.08122673500479707,6164.452131871976
0.08441534596012978,6195.476014621451
0.0877291280161335,6202.699727898178
0.09117299484984914,6154.008701384207
0.09475205302806537,6022.221974194588
0.09847160957933764,5789.95037685036
0.1023371798632519,5452.930173408217
0.10635449574860109,5017.41757604563
0.11052951411260206,4503.1870893926325
0.1148684256737553,3943.330278286751
0.1193776641714435,3378.5811655237685
0.1240639159058831,2854.4145206648486
0.12893412965257148,2408.6779682721967
0.13399552696593373,2064.890540798607
0.1392556128874462,1830.4298106224232
0.14472218707411338,1700.1203934621267
0.15040335536380234,1660.9791248752504
0.15630754179458153,1692.5336089294376
0.16244350109588662,1764.0231065653022
0.16882033167003618,1833.9261780572044
0.17544748908334581,1855.9960508801944
0.1823348000868439,1792.4610817332461
0.189492477187382,1632.0127745659959
0.19693113379074215,1401.643449140729
0.20466179993919872,1154.3624962742622
0.21269593866686892,941.4302566373308
0.22104546299710207,795.976775497428
0.22972275360711503,729.0710192604203
0.23874067718606454,728.5724094143587
0.2481126055137766,763.3473083789547
0.25785243528842716,790.8137474590645
0.26797460873256895,769.3374726141025
0.27849413500806414,686.116594040461
0.28942661247167484,569.8235010436025
0.3007882518043098,466.69899000212666
0.31259590004822796,408.2034686832515
0.324867065587837,395.30732841707015
0.3376199441111335,405.80053233779546
0.35087344559027084,403.96114988686395
0.36464722232127456,367.993185963385
0.37896169806447155,310.81777814049
0.3938380983288488,263.90727258090845
0.4092984818452433,243.93241747337086
0.4253657732750382,241.4715316395141
0.44206379720285277,233.45967472951247
0.45941731346364734,208.35673539021656
0.47745205385661277,179.3757336037039
0.4961947603002895,162.6076284195425
0.5156732244854959,156.28016390499417
0.5359163290848509,146.8558551102983
0.556954090580013,130.35240105952656
0.5788177037701272,116.24637453207156
0.6015395880274836,108.71326446345394
0.6251534353689703,101.31045312574597
0.6496942604146115,90.9594018169161
0.6751984523072497,82.3584349951084
0.7017038286703824,76.42922916787688
0.7292496916841444,69.80686756765222
0.7578768863625915,63.14240828542685
0.7876278611187046,57.92315471996895
0.8185467307069019,53.09208680472931
0.850679341636415,48.53006840622972
0.8840733401525058,44.263379613825116
0.9187782428863317,40.30940467625254
0.9548455102782278,36.67515290756741
0.9923286228832539,33.35929050593122
1.0312831606721837,30.353075753937123
1.0717668854455022,27.63096204613946
1.1138398264826193,25.16047344566605
1.1575643695533022,22.913416034040942
1.2030053494233226,20.86545347465289
1.2502301459914542,18.995533584186898
1.299308784200415,17.286057161632915
1.3503140378698726,15.724091374371639
1.4033215376054824,14.298255770839589
1.4584098829439835,12.997839648382339
1.5156607589006013,11.812793736214054
1.575159057091621,10.733711893913423
1.6369930016117014,9.75158947294722
1.7012542798525885,8.857803043964696
1.7680381784572046,8.044470767402448
1.8374437246107238,7.304416022460941
1.9095738328780953,6.631103435578673
1.9845354578058014,6.018586779439073
2.0624397525140905,5.461501506608141
2.143402233514853,4.954971965268093
2.227542951999554,4.494535272679339
2.314986671851158,4.076107853360131
2.405863054644063,3.695954853114968
2.5003068519063225,3.3506582348899427
2.598458104929248,3.0370851856915566
2.7004623524206774,2.7523760426811084
2.806470846309834,2.493923383517004
2.916640776023701,2.259350327426427
3.031135501567576,2.046490698187645
3.150124795755327,1.8533720971233356
3.2737850959485697,1.6781987754683596
3.4022997656780634,1.5193345775062732
3.5358593665351745,1.3752890787896181
3.6746619407366854,1.244704975438423
3.8189133047818515,1.1263463850622097
3.968827354637162,1.0190875340187766
4.1246263829013445,0.9219039501292153
4.286541408420921,0.8338639919958127
4.4548125188449825,0.754120616589213
4.629689226627261,0.6819038576085811
4.811430839003257,0.6165140797616593
5.000306842491082,0.5573158050756112
5.196597302486189,0.503731660961941
5.400593278542364,0.4552371401292164
5.612597255954967,0.4113558653202567
5.8329235942862,0.3716552572540334
6.06189899349756,0.33574243304673657
6.29986297838068,0.3032607050271542
6.547168402004727,0.2738864720739867
6.804181968927091,0.2473262078618017
7.071284778942991,0.22331371230764402
7.348872892180382,0.20160761868062596
7.637357916378006,0.18198914801960997
7.937167617217536,0.16425998902504302
8.248746552614573,0.1482403990004154
8.572556731909314,0.13376749417863754
8.909078300934132,0.12069369414553154
9.258810253973934,0.1088852837632633
9.622271173675122,0.09822112044945654
9.999999999999984,0.08859151381228272
