k [1/Mpc],P(k) [Mpc^3]
0.0001,627.5709234767185
0.00010392556829367125,652.0789166775168
0.00010800523745162529,677.5335283827931
0.00011224505680853065,703.9700665550804
0.00011665131316981963,731.4250328297143
0.00012123054013376525,759.9361193485927
0.00012598952777950273,789.5422836194571
0.00013093533273536104,820.2836100134083
0.00013607528864243335,852.2013936728732
0.00014141701702890234,885.3382296435791
0.00014696843861124463,919.7379477872873
0.00015273778503907136,955.4457343121096
0.00015873361110102093,992.5080191633683
0.00016496480740980205,1030.9724960808433
0.0001714406135851971,1070.888195013895
0.00017817063195457305,1112.3051923713763
0.00018516484179121546,1155.2748556755826
0.000192433614111598,1199.8497591049443
0.00019998772705352857,1246.0835968059166
0.0002078383818579757,1294.0313372291
0.00021599721947827182,1343.7487930035004
0.0002244763378413224,1395.29283438621
0.0002332883097864157,1448.7213259395976
0.00024244620170823283,1504.0928220701774
0.0002519635929317015,1561.4668657627753
0.0002618545958474233,1620.9034571825887
0.0002721338768375308,1682.4631329948916
0.0002828166780230032,1746.2069956176986
0.0002939188398646886,1812.196096290732
0.0003054568246515432,1880.4918524732757
0.00031744774091091926,1951.155523885552
0.00032990936877709396,2024.2480464163289
0.00034286018635565856,2099.830198096022
0.00035631939712285854,2177.961714927127
0.000370306958400514,2258.7016682696008
0.00038484361094874304,2342.108033616683
0.0003999509097203664,2428.237210168076
0.00041565125582259895,2517.144340229859
0.00043196792973341727,2608.8825112379513
0.0004489251258218605,2703.5028214140925
0.0004665479882234472,2801.0538645420734
0.000484862648123908,2901.580735341211
0.000503896262506515,3005.1256022687285
0.0005236770544204653,3111.7267790336928
0.0005442343548300266,3221.418555432723
0.0005655986461065005,3334.2307812991085
0.0005878016072274912,3450.187101705684
0.0006108761607505036,3569.305805262512
0.0006348565216305217,3691.5981378742376
0.0006597782479539537,3817.0676172661865
0.0006856782936641739,3945.7104361967845
0.0007125950633568407,4077.512330907195
0.0007405684692262436,4212.449906494242
0.0007696399902471156,4350.488985543126
0.0007998527336796708,4491.582709490101
0.000831251498989063,4635.673187761547
0.0008638828442740447,4782.687884667684
0.000897795155303332,4932.54053472296
0.0009330387172620361,5085.131270190454
0.0009696657893145519,5240.344737096044
0.001007730682094461,5398.051171683147
0.0010472898382363582,5558.104563788159
0.0010884019160690055,5720.34249278386
0.0011311278765939214,5884.585751053265
0.001175531073878369,6050.635034706161
0.0012216773489967915,6218.273368255437
0.0012696351276599736,6387.267214248029
0.0013194755216767058,6557.366439637021
0.0013712724343984,6728.302709292817
0.0014251026703029975,6899.78472197042
0.0014810460488806749,7071.5016558552015
0.0015391855229902056,7243.135425032021
0.001599607301861487,7414.368452429911
0.0016624009789266115,7584.87100651417
0.0017276596646690358,7754.30562652256
0.0017954801246878305,7922.325429229331
0.0018659629231817451,8088.553454687349
0.001939212572065829,8252.555180384194
0.0020153376859417325,8413.877333269656
0.002094451143151469,8572.093822916055
0.002176670253153458,8726.801224633204
0.002262116930469025,8877.586729264192
0.002350917875457286,9024.01580097319
0.002443204762186487,9165.646279183984
0.0025391144336803463,9302.045995155337
0.002638789104828933,9432.797214014612
0.002742376573264949,9557.486916880009
0.0028500304385181063,9675.71389309667
0.0029619103297725525,9787.086350381933
0.0030781821425650787,9891.214785827671
0.003199018284775064,9987.70897193053
0.0033245979322709396,10076.190835152292
0.003455107294592217,10156.307098237425
0.0035907398910610534,10227.726793403677
0.0037316968377327513,10290.077326130384
0.0038781871456107214,10342.850255158155
0.0040304280305680515,10385.553782616533
0.00418864523543527,10418.0806755599
0.004353073364731888,10440.649985016173
0.00452395623253805,10453.280895238837
0.004701547224022131,10455.06604890634
0.004886109671160325,10444.906983186362
0.005077917243205399,10422.228975653266
0.005277254352483535,10387.085628383018
0.005484416576121017,10339.596325378552
0.005699711094326071,10279.839004513013
0.005923457145875801,10207.902743729706
0.006155986501483508,10123.773326101229
0.006397643955748424,10027.221584900928
0.0066487878384172625,9918.045418371863
0.0069097905457156435,9796.00972869126
0.007181039092537346,9660.900447728533
0.007462935686310132,9512.579599095712
0.007755898323389004,9350.97001341431
0.00806036140886134,9176.085768369872
0.008376776400682916,8987.933677977175
0.008705612479099857,8786.544464147348
0.009047357242349292,8572.017294754562
0.00940251742967013,8344.329630624396
0.009771619672696168,8103.564736276212
0.010155211276345676,7849.783144713203
0.010553861030365234,7583.002447921786
0.010968160052731372,7303.461901451604
0.011398722666160517,7011.466901265409
0.011846187309026826,6707.556515010497
0.012311217482038896,6392.3819044628735
0.012794502732078732,6066.558789912725
0.013296759674662111,5731.007346038832
0.013818733056536317,5386.06759926296
0.014361196859990781,5032.176091463029
0.014924955450518284,4670.949200124832
0.015510844769528393,4305.620566916106
0.016119733573881575,3939.5941730836894
0.01675252472408214,3571.6183756084397
0.017410156523040152,3198.4620202982824
0.018093604107387147,2823.4627129836977
0.01880388089340914,2463.7252253859388
0.019542040079740527,2133.288033645999
0.02030917620904734,1815.9649477678793
0.021106426791015535,1478.658392143917
0.021934973989050584,1129.6444111507956
0.02279604637318978,850.4561806884692
0.023690920741826323,682.4555855958732
0.02462092401494623,550.6520333749504
0.02558743520168586,318.09487427869345
0.02659188744512693,95.98964888696652
0.027635770147361564,22.606178351980656
0.028720631177978267,10.003061101344244
0.029848079169243254,14.417340563490392
0.03101978590138095,40.550373394618376
0.03223748878149028,110.19837394483653
0.0335029934197723,215.5499512797665
0.03481817630688963,338.3240076198313
0.03618498759642746,475.82286795542524
0.037605453996581675,620.2171161145444
0.03908168177536263,756.8840762554839
0.04061585988376978,871.9718686885818
0.04221026320156896,953.6667349663314
0.04386725591048496,995.1007202225968
0.0455892949998106,992.2155957703915
0.047378933909631396,945.3215590045241
0.049238826317067365,855.5082436143755
0.05117173007114603,724.0284248290349
0.05318051128214196,567.0281446528279
0.05526814857144601,415.2777600822139
0.057437737488265785,278.7123240438289
0.0596924950997073,143.65970272475627
0.0620357647610427,49.48089188314626
0.06447102107323864,13.216471863109474
0.06700187503509585,5.0617301523881855
0.06963207939763882,9.892849830015686
0.0723655342286965,46.211323251302815
0.07520629269592405,77.60560336140118
0.07815856707684081,74.8103190796787
0.08122673500479707,68.84758776439446
0.08441534596012978,45.315515939810524
0.0877291280161335,10.47342554603888
0.09117299484984914,4.198583636938941
0.09475205302806537,8.122350492129952
0.09847160957933764,33.492678353576785
0.1023371798632519,82.57062032106072
0.10635449574860109,106.25749462194115
0.11052951411260206,114.77537702803436
0.1148684256737553,95.0103965969331
0.1193776641714435,47.57796073745944
0.1240639159058831,30.954838110402882
0.12893412965257148,0.3195174226850982
0.13399552696593373,0.3714463360661713
0.1392556128874462,15.834476972151519
0.14472218707411338,9.96056633202385
0.15040335536380234,7.612227329860398
0.15630754179458153,0.12221898261016777
0.16244350109588662,3.7934305636393244
0.16882033167003618,16.062912371930636
0.17544748908334581,24.08646357434672
0.1823348000868439,20.299716804569904
0.189492477187382,7.875858508936386
0.19693113379074215,0.0042766001096000445
0.20466179993919872,0.4514275594137296
0.21269593866686892,1.1166494889272909
0.22104546299710207,0.1096525216097353
0.22972275360711503,1.1001820514044163
0.23874067718606454,4.687934865165187
0.2481126055137766,5.173390463017842
0.25785243528842716,2.0750672707125415
0.26797460873256895,0.14416730259596358
0.27849413500806414,0.027801236276672577
0.28942661247167484,0.014228864225638078
0.3007882518043098,0.7024205106810887
0.31259590004822796,1.5481696706202395
0.324867065587837,0.9698719239750995
0.3376199441111335,0.18448869976095794
0.35087344559027084,0.037723064648917747
0.36464722232127456,0.1867296611924218
0.37896169806447155,0.5120669291462587
0.3938380983288488,0.42164811864803875
0.4092984818452433,0.14704508554073245
0.4253657732750382,0.09252512081583504
0.44206379720285277,0.20248694899252453
0.45941731346364734,0.22705310874647042
0.47745205385661277,0.13167689063170035
0.4961947603002895,0.09668864510718095
0.5156732244854959,0.12521049900007875
0.5359163290848509,0.12011636013280581
0.556954090580013,0.085288643966924
0.5788177037701272,0.08121178668004136
0.6015395880274836,0.08292683680519322
0.6251534353689703,0.06839177215811605
0.6496942604146115,0.05874576327485555
0.6751984523072497,0.05208206812956178
0.7017038286703824,0.047201752989889996
0.7292496916841444,0.04339728512532109
0.7578768863625915,0.040167778470215174
0.7876278611187046,0.03714327330540055
0.8185467307069019,0.03407094071816717
0.850679341636415,0.030964381559041618
0.8840733401525058,0.027947530165399026
0.9187782428863317,0.02511178468502452
0.9548455102782278,0.022517243855148555
0.9923286228832539,0.02019792574795755
1.0312831606721837,0.018157909163322355
1.0717668854455022,0.01635788974531055
1.1138398264826193,0.014757814867432398
1.1575643695533022,0.013325427698531428
1.2030053494233226,0.012034707758504262
1.2502301459914542,0.010864728438574198
1.299308784200415,0.009801601911923034
1.3503140378698726,0.008837439513344201
1.4033215376054824,0.007964860956944063
1.4584098829439835,0.007176677528170727
1.5156607589006013,0.006465964187478754
1.575159057091621,0.005826044901991127
1.6369930016117014,0.005249983414822595
1.7012542798525885,0.004731152270452182
1.7680381784572046,0.004263651630225191
1.8374437246107238,0.0038422285380395353
1.9095738328780953,0.0034622009416434385
1.9845354578058014,0.0031194238107640515
2.0624397525140905,0.002810291651048341
2.143402233514853,0.0025315637974117153
2.227542951999554,0.002280302208376818
2.314986671851158,0.0020538445157881257
2.405863054644063,0.0018497790606086402
2.5003068519063225,0.0016659122874759511
2.598458104929248,0.0015002493193681486
2.7004623524206774,0.0013509913048789692
2.806470846309834,0.0012165171953059633
2.916640776023701,0.0010953661276219015
3.031135501567576,0.000986221910900735
3.150124795755327,0.0008879014393230269
3.2737850959485697,0.0007993390674741592
3.4022997656780634,0.0007195730515214233
3.5358593665351745,0.0006477355262212356
3.6746619407366854,0.0005830434560441236
3.8189133047818515,0.0005247898057556126
3.968827354637162,0.0004723349938874629
4.1246263829013445,0.0004251025609528272
4.286541408420921,0.00038257341379908385
4.4548125188449825,0.0003442800969540768
4.629689226627261,0.00030980165653968217
4.811430839003257,0.00027875966694402584
5.000306842491082,0.00025081394943886754
5.196597302486189,0.00022565775272843257
5.400593278542364,0.00020301443850804008
5.612597255954967,0.00018263456007539048
5.8329235942862,0.00016429316575691875
6.06189899349756,0.00014778700515113993
6.29986297838068,0.0001329327924937703
6.547168402004727,0.00011956554336055676
6.804181968927091,0.00010753674700549797
7.071284778942991,9.671271876509289e-05
7.348872892180382,8.697318696374028e-05
7.637357916378006,7.821007623441402e-05
7.937167617217536,7.032605576079582e-05
8.248746552614573,6.323342884677787e-05
8.572556731909314,5.685318731541935e-05
8.909078300934132,5.1114155939176216e-05
9.258810253973934,4.5952154065344754e-05
9.622271173675122,4.130931352622075e-05
9.999999999999984,3.7133557698469184e-05
