k [1/Mpc],P(k) [Mpc^3]
0.0001,132.6940209300071
0.00010392556829367125,137.900304863401
0.00010800523745162529,143.31064215403867
0.00011224505680853065,148.93299467895716
0.00011665131316981963,154.7756316488465
0.00012123054013376525,160.84715159702404
0.00012598952777950273,167.15649375584533
0.00013093533273536104,173.7129390326551
0.00013607528864243335,180.52610664802057
0.00014141701702890234,187.60598170960427
0.00014696843861124463,194.96294284438244
0.00015273778503907136,202.6077794431568
0.00015873361110102093,210.55169377564135
0.00016496480740980205,218.80629497391703
0.0001714406135851971,227.38362773065577
0.00017817063195457305,236.29619908003917
0.00018516484179121546,245.5569977225753
0.000192433614111598,255.17950625272826
0.00019998772705352857,265.1776995260859
0.0002078383818579757,275.5660701905298
0.00021599721947827182,286.35965620758793
0.0002244763378413224,297.5740575525988
0.0002332883097864157,309.2254592443405
0.00024244620170823283,321.33063560892134
0.0002519635929317015,333.9069726063891
0.0002618545958474233,346.9724937136151
0.0002721338768375308,360.54585391916584
0.0002828166780230032,374.64638497667187
0.0002939188398646886,389.29411379926574
0.0003054568246515432,404.5097815649716
0.00031744774091091926,420.31487539883244
0.00032990936877709396,436.73161808538913
0.00034286018635565856,453.78301282497796
0.00035631939712285854,471.4928489627657
0.000370306958400514,489.88569350701727
0.00038484361094874304,508.9869609674532
0.0003999509097203664,528.8228978284072
0.00041565125582259895,549.4206222815304
0.00043196792973341727,570.8081557327192
0.0004489251258218605,593.0144063785483
0.0004665479882234472,616.069233277709
0.000484862648123908,640.0033877743591
0.000503896262506515,664.8485345329328
0.0005236770544204653,690.6373305896293
0.0005442343548300266,717.4033794725623
0.0005655986461065005,745.1813053160053
0.0005878016072274912,774.0066994509422
0.0006108761607505036,803.9160926387858
0.0006348565216305217,834.9470673137024
0.0006597782479539537,867.1381848707985
0.0006856782936641739,900.5290508347813
0.0007125950633568407,935.1602728811681
0.0007405684692262436,971.0733551097743
0.0007696399902471156,1008.3108490117785
0.0007998527336796708,1046.916233446314
0.000831251498989063,1086.9339522677838
0.0008638828442740447,1128.4094015327148
0.000897795155303332,1171.3886854775747
0.0009330387172620361,1215.9188245380774
0.0009696657893145519,1262.0475802685173
0.001007730682094461,1309.8234096480264
0.0010472898382363582,1359.2955331289038
0.0010884019160690055,1410.5135042548288
0.0011311278765939214,1463.527443857101
0.001175531073878369,1518.3877635113138
0.0012216773489967915,1575.144882225462
0.0012696351276599736,1633.8495288981414
0.0013194755216767058,1694.5521768307565
0.0013712724343984,1757.3031918650593
0.0014251026703029975,1822.1525511351329
0.0014810460488806749,1889.1491306449982
0.0015391855229902056,1958.3412827891852
0.001599607301861487,2029.7764184104703
0.0016624009789266115,2103.5009265952267
0.0017276596646690358,2179.559925633069
0.0017954801246878305,2257.9961437111465
0.0018659629231817451,2338.8505339346016
0.001939212572065829,2422.161515183693
0.0020153376859417325,2507.9645754239855
0.002094451143151469,2596.292581979485
0.002176670253153458,2687.1746409445036
0.002262116930469025,2780.636410419501
0.002350917875457286,2876.699508256127
0.002443204762186487,2975.3807262890095
0.0025391144336803463,3076.6924489038893
0.002638789104828933,3180.6414920096076
0.002742376573264949,3287.2291282793685
0.0028500304385181063,3396.450660293306
0.0029619103297725525,3508.2941758964894
0.0030781821425650787,3622.7411493653485
0.003199018284775064,3739.765480227316
0.0033245979322709396,3859.333193837442
0.003455107294592217,3981.402114847795
0.0035907398910610534,4105.919954427722
0.0037316968377327513,4232.825192062617
0.0038781871456107214,4362.045838700302
0.0040304280305680515,4493.498672145006
0.00418864523543527,4627.089914285014
0.004353073364731888,4762.713441110191
0.00452395623253805,4900.251364971153
0.004701547224022131,5039.572542959822
0.004886109671160325,5180.530695038559
0.005077917243205399,5322.966770516778
0.005277254352483535,5466.7093250078315
0.005484416576121017,5611.574270374334
0.005699711094326071,5757.357382128668
0.005923457145875801,5903.821064683898
0.006155986501483508,6050.710845321034
0.006397643955748424,6197.7925850889515
0.0066487878384172625,6344.8513327498495
0.0069097905457156435,6491.633091145936
0.007181039092537346,6637.739826534281
0.007462935686310132,6782.71789525268
0.007755898323389004,6926.1709214474
0.00806036140886134,7067.791335278845
0.008376776400682916,7207.25290335177
0.008705612479099857,7344.099021147389
0.009047357242349292,7477.807093128698
0.00940251742967013,7607.8849324188495
0.009771619672696168,7733.920959940738
0.010155211276345676,7855.501240770944
0.010553861030365234,7972.109892866271
0.010968160052731372,8083.162320395546
0.011398722666160517,8188.058767259781
0.011846187309026826,8286.172871014567
0.012311217482038896,8376.87300693259
0.012794502732078732,8459.52256452822
0.013296759674662111,8533.484838383802
0.013818733056536317,8598.121792622764
0.014361196859990781,8652.749057985
0.014924955450518284,8696.685111138018
0.015510844769528393,8729.244837111719
0.016119733573881575,8749.73382952029
0.01675252472408214,8757.489363282175
0.017410156523040152,8751.8392999412
0.018093604107387147,8732.145060559726
0.01880388089340914,8697.812095284191
0.019542040079740527,8648.271022927935
0.02030917620904734,8583.035407450732
0.021106426791015535,8501.67355553047
0.021934973989050584,8403.837635948472
0.02279604637318978,8289.298970563412
0.023690920741826323,8157.93614663566
0.02462092401494623,8009.773427277546
0.02558743520168586,7845.004831186198
0.02659188744512693,7663.998765842453
0.027635770147361564,7467.30871606713
0.028720631177978267,7255.742933430042
0.029848079169243254,7030.290486386669
0.03101978590138095,6792.204193818977
0.03223748878149028,6543.030178380963
0.0335029934197723,6284.439035205189
0.03481817630688963,6018.486393838238
0.03618498759642746,5747.348445732399
0.037605453996581675,5473.3449930227525
0.03908168177536263,5199.159893626436
0.04061585988376978,4927.294573328429
0.04221026320156896,4660.489602411965
0.04386725591048496,4401.436188132608
0.0455892949998106,4152.54415776398
0.047378933909631396,3916.4718814405387
0.049238826317067365,3695.3928741755863
0.05117173007114603,3490.9734485562226
0.05318051128214196,3304.4650852994605
0.05526814857144601,3136.814783568886
0.057437737488265785,2989.249410612013
0.0596924950997073,2862.839858479179
0.0620357647610427,2756.6132487874834
0.06447102107323864,2667.4991073440365
0.06700187503509585,2592.711976807318
0.06963207939763882,2529.726610776805
0.0723655342286965,2475.9640653222773
0.07520629269592405,2427.984466676909
0.07815856707684081,2381.8187013727043
0.08122673500479707,2332.2689178427804
0.08441534596012978,2273.8738065101547
0.0877291280161335,2201.2220896527965
0.09117299484984914,2110.5983396196443
0.09475205302806537,2000.668980466332
0.09847160957933764,1873.3875563976358
0.1023371798632519,1732.7346935358453
0.10635449574860109,1584.3283227302563
0.11052951411260206,1435.1230566421486
0.1148684256737553,1292.482368735759
0.1193776641714435,1164.0421150904551
0.1240639159058831,1056.115319894895
0.12893412965257148,972.7986467265165
0.13399552696593373,914.3778720992142
0.1392556128874462,877.8240876974154
0.14472218707411338,857.2916818569711
0.15040335536380234,844.974009592743
0.15630754179458153,831.9285882286927
0.16244350109588662,809.4601409916252
0.16882033167003618,771.1952544941871
0.17544748908334581,715.2778389699799
0.1823348000868439,645.7629239836375
0.189492477187382,572.1949489007462
0.19693113379074215,505.9723474276232
0.20466179993919872,455.1092190642459
0.21269593866686892,422.13782864325003
0.22104546299710207,404.92169810641826
0.22972275360711503,396.5942412918967
0.23874067718606454,386.9782591947364
0.2481126055137766,368.0316106024838
0.25785243528842716,337.91347734245454
0.26797460873256895,301.3803298517828
0.27849413500806414,267.308006808103
0.28942661247167484,242.66626425694628
0.3007882518043098,228.5936674067808
0.31259590004822796,220.14421338508467
0.324867065587837,210.0724299023353
0.3376199441111335,194.3790076193049
0.35087344559027084,174.86114258113486
0.36464722232127456,157.3595118064754
0.37896169806447155,145.31185106671853
0.3938380983288488,137.34394576740524
0.4092984818452433,129.07340230084807
0.4253657732750382,118.42502686738283
0.44206379720285277,107.27481012966184
0.45941731346364734,98.42345102371024
0.47745205385661277,91.80487538098951
0.4961947603002895,85.27248272457929
0.5156732244854959,78.01825415779243
0.5359163290848509,71.30879031162782
0.556954090580013,65.88593469714614
0.5788177037701272,60.89823263590228
0.6015395880274836,55.82041715865668
0.6251534353689703,51.179428799655234
0.6496942604146115,47.15352256951756
0.6751984523072497,43.33191863301267
0.7017038286703824,39.715264014160184
0.7292496916841444,36.48017600776269
0.7578768863625915,33.48873983481068
0.7876278611187046,30.697107884854663
0.8185467307069019,28.154065874098904
0.850679341636415,25.81202114265348
0.8840733401525058,23.654219075574407
0.9187782428863317,21.668078646364116
0.9548455102782278,19.841607333457425
0.9923286228832539,18.163411831906124
1.0312831606721837,16.622661345031037
1.0717668854455022,15.208710901079833
1.1138398264826193,13.911413900590757
1.1575643695533022,12.721412330025169
1.2030053494233226,11.630081157522179
1.2502301459914542,10.629471937286574
1.299308784200415,9.712279943305402
1.3503140378698726,8.871834475856717
1.4033215376054824,8.101982572660338
1.4584098829439835,7.397035681814055
1.5156607589006013,6.751737616428659
1.575159057091621,6.161234185883828
1.6369930016117014,5.621036661649102
1.7012542798525885,5.126996366715615
1.7680381784572046,4.675292428804128
1.8374437246107238,4.262407994291002
1.9095738328780953,3.885107234983556
1.9845354578058014,3.5404141993485836
2.0624397525140905,3.2255943926197292
2.143402233514853,2.938134830107811
2.227542951999554,2.6757260047784155
2.314986671851158,2.4362462100264386
2.405863054644063,2.217746996959101
2.5003068519063225,2.018439216856726
2.598458104929248,1.8366799384049115
2.7004623524206774,1.6709622846461452
2.806470846309834,1.5199048429029203
2.916640776023701,1.382241613894529
3.031135501567576,1.256812726567322
3.150124795755327,1.1425558540303298
3.2737850959485697,1.0384983054828087
3.4022997656780634,0.9437497401353779
3.5358593665351745,0.8574954342906314
3.6746619407366854,0.7789900744722631
3.8189133047818515,0.7075520141736111
3.968827354637162,0.6425578952529428
4.1246263829013445,0.5834379413823333
4.286541408420921,0.5296715536574773
4.4548125188449825,0.48078318952449717
4.629689226627261,0.43633857425786693
4.811430839003257,0.39594117375613513
5.000306842491082,0.3592289664930518
5.196597302486189,0.3258716212713593
5.400593278542364,0.29556780671655497
5.612597255954967,0.2680427079125226
5.8329235942862,0.24304574951207386
6.06189899349756,0.2203485101553323
6.29986297838068,0.19974280885803367
6.547168402004727,0.18103895127576972
6.804181968927091,0.1640641252770941
7.071284778942991,0.14866093201354133
7.348872892180382,0.1346860355223866
7.637357916378006,0.12200891368766131
7.937167617217536,0.11051076140020989
8.248746552614573,0.10008346891319161
8.572556731909314,0.09062867774352128
8.909078300934132,0.08205691783121442
9.258810253973934,0.0742868066261309
9.622271173675122,0.06724432643074404
9.999999999999984,0.06086219290231
