k [1/Mpc],P(k) [Mpc^3]
0.0001,427.7894361813015
0.00010392556829367125,443.2946609480563
0.00010800523745162529,459.3613765604994
0.00011224505680853065,476.00985926247444
0.00011665131316981963,493.261113285644
0.00012123054013376525,511.1368909147069
0.00012598952777950273,529.6597223865537
0.00013093533273536104,548.8529430530111
0.00013607528864243335,568.740719206908
0.00014141701702890234,589.348079494703
0.00014696843861124463,610.7009234481148
0.00015273778503907136,632.826059182668
0.00015873361110102093,655.7512523430299
0.00016496480740980205,679.5052673865092
0.0001714406135851971,704.1178935185527
0.00017817063195457305,729.6199547716715
0.00018516484179121546,756.0433454647929
0.000192433614111598,783.4210812292692
0.00019998772705352857,811.7873155674113
0.0002078383818579757,841.1773960014627
0.00021599721947827182,871.6278915306422
0.0002244763378413224,903.1766238864793
0.0002332883097864157,935.8627335791438
0.00024244620170823283,969.7267210259723
0.0002519635929317015,1004.8104948915932
0.0002618545958474233,1041.157369730755
0.0002721338768375308,1078.8120491167936
0.0002828166780230032,1117.8207541990312
0.0002939188398646886,1158.2312580910673
0.0003054568246515432,1200.092942196027
0.00031744774091091926,1243.45683686675
0.00032990936877709396,1288.3756049480526
0.00034286018635565856,1334.9036566500108
0.00035631939712285854,1383.0971702392183
0.000370306958400514,1433.0141390027984
0.00038484361094874304,1484.7144238426563
0.0003999509097203664,1538.2595955776983
0.00041565125582259895,1593.7131315138906
0.00043196792973341727,1651.140518731693
0.0004489251258218605,1710.609292367553
0.0004665479882234472,1772.189095708955
0.000484862648123908,1835.9515033734847
0.000503896262506515,1901.9701727328988
0.0005236770544204653,1970.320935453705
0.0005442343548300266,2041.0817308105547
0.0005655986461065005,2114.332774891645
0.0005878016072274912,2190.156289112603
0.0006108761607505036,2268.636585133604
0.0006348565216305217,2349.86032521097
0.0006597782479539537,2433.916489695118
0.0006856782936641739,2520.8964755292777
0.0007125950633568407,2610.8936913799002
0.0007405684692262436,2704.003452139348
0.0007696399902471156,2800.323434603477
0.0007998527336796708,2899.953557371065
0.000831251498989063,3002.9961010305665
0.0008638828442740447,3109.5553907112535
0.000897795155303332,3219.7374477685994
0.0009330387172620361,3333.650473026213
0.0009696657893145519,3451.4042605114873
0.001007730682094461,3573.1103921095632
0.0010472898382363582,3698.8822681991737
0.0010884019160690055,3828.8345345245457
0.0011311278765939214,3963.083541323491
0.001175531073878369,4101.746354275063
0.0012216773489967915,4244.940684014919
0.0012696351276599736,4392.785228093929
0.0013194755216767058,4545.398311921711
0.0013712724343984,4702.898706295572
0.0014251026703029975,4865.404812104419
0.0014810460488806749,5033.034030809032
0.0015391855229902056,5205.903404697599
0.001599607301861487,5384.127692975438
0.0016624009789266115,5567.82005184791
0.0017276596646690358,5757.091442115016
0.0017954801246878305,5952.049135262986
0.0018659629231817451,6152.797858462854
0.001939212572065829,6359.437845887564
0.0020153376859417325,6572.064908932467
0.002094451143151469,6790.770115527572
0.002176670253153458,7015.63715163261
0.002262116930469025,7246.743870206316
0.002350917875457286,7484.160162933595
0.002443204762186487,7727.947204859754
0.0025391144336803463,7978.158122864503
0.002638789104828933,8234.835134570956
0.002742376573264949,8498.010515768765
0.0028500304385181063,8767.70469858796
0.0029619103297725525,9043.924394819627
0.0030781821425650787,9326.663874800255
0.003199018284775064,9615.90154389259
0.0033245979322709396,9911.600504508293
0.003455107294592217,10213.707825201012
0.0035907398910610534,10522.15197799554
0.0037316968377327513,10836.843969954976
0.0038781871456107214,11157.673107891012
0.0040304280305680515,11484.506852567953
0.00418864523543527,11817.191352844886
0.004353073364731888,12155.5475532937
0.00452395623253805,12499.373152576232
0.004701547224022131,12848.4395344142
0.004886109671160325,13202.490413835398
0.005077917243205399,13561.24281631193
0.005277254352483535,13924.380377778256
0.005484416576121017,14291.556885391637
0.005699711094326071,14662.399477807498
0.005923457145875801,15036.509279066757
0.006155986501483508,15413.45572789373
0.006397643955748424,15792.747835956756
0.0066487878384172625,16173.84577433823
0.0069097905457156435,16556.21426102273
0.007181039092537346,16939.38428378194
0.007462935686310132,17322.868088971038
0.007755898323389004,17705.956641202487
0.00806036140886134,18087.741088404266
0.008376776400682916,18467.327197694198
0.008705612479099857,18844.050238945336
0.009047357242349292,19217.287777357335
0.00940251742967013,19586.2421328504
0.009771619672696168,19949.89553056325
0.010155211276345676,20307.217511748648
0.010553861030365234,20657.36947016065
0.010968160052731372,20999.58494833407
0.011398722666160517,21333.000636164546
0.011846187309026826,21656.577721416255
0.012311217482038896,21969.24245059508
0.012794502732078732,22269.891510687685
0.013296759674662111,22557.402473433413
0.013818733056536317,22830.66713831906
0.014361196859990781,23088.632279169615
0.014924955450518284,23330.260721133964
0.015510844769528393,23554.48130877258
0.016119733573881575,23760.19771408314
0.01675252472408214,23946.330643191064
0.017410156523040152,24111.80894651042
0.018093604107387147,24255.591883724883
0.01880388089340914,24376.689531137716
0.019542040079740527,24474.17279030482
0.02030917620904734,24547.167060523778
0.021106426791015535,24594.831451181803
0.021934973989050584,24616.38375808831
0.02279604637318978,24611.137308200887
0.023690920741826323,24578.524578458597
0.02462092401494623,24518.07709532315
0.02558743520168586,24429.450046077785
0.02659188744512693,24312.41882464011
0.027635770147361564,24166.892635227243
0.028720631177978267,23992.97198679303
0.029848079169243254,23790.887864137763
0.03101978590138095,23561.065803844045
0.03223748878149028,23304.121461271607
0.0335029934197723,23020.808383745607
0.03481817630688963,22712.13675738927
0.03618498759642746,22379.25176736508
0.037605453996581675,22023.47151060193
0.03908168177536263,21646.320111076493
0.04061585988376978,21249.388174685264
0.04221026320156896,20834.408926842654
0.04386725591048496,20403.17989801095
0.0455892949998106,19957.55046917684
0.047378933909631396,19499.4777740158
0.049238826317067365,19030.871870068226
0.05117173007114603,18553.29947870245
0.05318051128214196,18068.08481852042
0.05526814857144601,17576.733227536515
0.057437737488265785,17081.414351497955
0.0596924950997073,16584.27084816388
0.0620357647610427,16085.866500863503
0.06447102107323864,15585.23486436234
0.06700187503509585,15081.708097512568
0.06963207939763882,14575.700189650981
0.0723655342286965,14068.024252488845
0.07520629269592405,13560.327682121764
0.07815856707684081,13055.469646693335
0.08122673500479707,12555.871970915476
0.08441534596012978,12061.247932393388
0.0877291280161335,11570.145522904673
0.09117299484984914,11082.578680223067
0.09475205302806537,10601.53228556416
0.09847160957933764,10130.119330044674
0.1023371798632519,9671.804775107543
0.10635449574860109,9229.889623034254
0.11052951411260206,8804.513628019755
0.1148684256737553,8392.66237049224
0.1193776641714435,7992.450455998746
0.1240639159058831,7603.573774704062
0.12893412965257148,7226.81359297322
0.13399552696593373,6863.705051728319
0.1392556128874462,6512.642478008997
0.14472218707411338,6170.537940265884
0.15040335536380234,5836.114547185032
0.15630754179458153,5510.593173851493
0.16244350109588662,5197.444773596686
0.16882033167003618,4899.384399266992
0.17544748908334581,4617.278233352404
0.1823348000868439,4349.8214696939895
0.189492477187382,4094.416119892202
0.19693113379074215,3850.7441632121663
0.20466179993919872,3618.7746598314952
0.21269593866686892,3397.569782379485
0.22104546299710207,3185.3756591514716
0.22972275360711503,2983.6885832039807
0.23874067718606454,2793.4792127974692
0.2481126055137766,2613.380959206785
0.25785243528842716,2443.2016585194324
0.26797460873256895,2283.148691059997
0.27849413500806414,2131.470756905513
0.28942661247167484,1988.1981592461732
0.3007882518043098,1853.3717039901908
0.31259590004822796,1726.4816761379193
0.324867065587837,1607.3191044785767
0.3376199441111335,1495.354906620544
0.35087344559027084,1390.238560826846
0.36464722232127456,1291.6914950636492
0.37896169806447155,1199.3067455574212
0.3938380983288488,1112.8917080280648
0.4092984818452433,1032.0002368968267
0.4253657732750382,956.441299801314
0.44206379720285277,885.8310596769846
0.45941731346364734,819.9895116968021
0.47745205385661277,758.5598872726391
0.4961947603002895,701.3550111634073
0.5156732244854959,648.1102534402388
0.5359163290848509,598.5719225243722
0.556954090580013,552.5612190557101
0.5788177037701272,509.83584621427684
0.6015395880274836,470.17748504338425
0.6251534353689703,433.40627197636405
0.6496942604146115,399.3275021044062
0.6751984523072497,367.75098339797785
0.7017038286703824,338.5045685257109
0.7292496916841444,311.43238438514874
0.7578768863625915,286.38758211400597
0.7876278611187046,263.2383057455998
0.8185467307069019,241.85053213574125
0.850679341636415,222.11027951576958
0.8840733401525058,203.90204179657908
0.9187782428863317,187.11538500041638
0.9548455102782278,171.64379362879052
0.9923286228832539,157.38895988525937
1.0312831606721837,144.25988256563815
1.0717668854455022,132.1714432044422
1.1138398264826193,121.04806220748256
1.1575643695533022,110.82314617003468
1.2030053494233226,101.4270607814729
1.2502301459914542,92.79729560821609
1.299308784200415,84.8719668439131
1.3503140378698726,77.59583612171998
1.4033215376054824,70.91983856964946
1.4584098829439835,64.79705691507243
1.5156607589006013,59.18394967559052
1.575159057091621,54.040160624158126
1.6369930016117014,49.32831046724339
1.7012542798525885,45.01378526875697
1.7680381784572046,41.06453114757938
1.8374437246107238,37.450922829703565
1.9095738328780953,34.14560258245496
1.9845354578058014,31.12332036763243
2.0624397525140905,28.360782581006358
2.143402233514853,25.836493425260443
2.227542951999554,23.53063534833731
2.314986671851158,21.424964191515276
2.405863054644063,19.502692210544662
2.5003068519063225,17.74837856511888
2.598458104929248,16.14782927599325
2.7004623524206774,14.688005871124195
2.806470846309834,13.356930343761782
2.916640776023701,12.143602222958524
3.031135501567576,11.037923144289197
3.150124795755327,10.03062680320566
3.2737850959485697,9.113213995646147
3.4022997656780634,8.277892300143167
3.5358593665351745,7.517520138969527
3.6746619407366854,6.825555024198327
3.8189133047818515,6.196005652382788
3.968827354637162,5.623385264753902
4.1246263829013445,5.10266493653027
4.286541408420921,4.6292456081912094
4.4548125188449825,4.19892514403602
4.629689226627261,3.807865130623743
4.811430839003257,3.452560475790994
5.000306842491082,3.129814551902859
5.196597302486189,2.836712272900668
5.400593278542364,2.5705920915491056
5.612597255954967,2.3290245684045003
5.8329235942862,2.1097928776970285
6.06189899349756,1.9108741967435965
6.29986297838068,1.730421020175772
6.547168402004727,1.5667493393052803
6.804181968927091,1.4183256297925915
7.071284778942991,1.2837537172655558
7.348872892180382,1.161762778462058
7.637357916378006,1.0511971010334697
7.937167617217536,0.9510058982399098
8.248746552614573,0.8602329299006897
8.572556731909314,0.7780081578278278
8.909078300934132,0.7035401874929847
9.258810253973934,0.6361091770387087
9.622271173675122,0.5750597802103112
9.999999999999984,0.519796344037567
