k [1/Mpc],P(k) [Mpc^3]
0.0001,550.6866671198055
0.00010392556829367125,573.9408561236834
0.00010800523745162529,598.1754413392713
0.00011224505680853065,623.4316140384193
0.00011665131316981963,649.7522566577278
0.00012123054013376525,677.1819478028913
0.00012598952777950273,705.7670970257067
0.00013093533273536104,735.5560682790752
0.00013607528864243335,766.5992614477809
0.00014141701702890234,798.9491499184501
0.00014696843861124463,832.6602997416434
0.00015273778503907136,867.7895013549789
0.00015873361110102093,904.3958518783701
0.00016496480740980205,942.5408345511647
0.0001714406135851971,982.2884369253235
0.00017817063195457305,1023.7052067211227
0.00018516484179121546,1066.8603765844803
0.000192433614111598,1111.8259569366116
0.00019998772705352857,1158.6768089097095
0.0002078383818579757,1207.4907976573502
0.00021599721947827182,1258.3488407116024
0.0002244763378413224,1311.335045097695
0.0002332883097864157,1366.5368092665947
0.00024244620170823283,1424.0448160748933
0.0002519635929317015,1483.9532824777175
0.0002618545958474233,1546.3600481107605
0.0002721338768375308,1611.366704554294
0.0002828166780230032,1679.0787305938397
0.0002939188398646886,1749.6054206324134
0.0003054568246515432,1823.0601718496323
0.00031744774091091926,1899.5604829913632
0.00032990936877709396,1979.227996106437
0.00034286018635565856,2062.1888383147248
0.00035631939712285854,2148.5736351298506
0.000370306958400514,2238.517729568614
0.00038484361094874304,2332.161119605994
0.0003999509097203664,2429.6483038880724
0.00041565125582259895,2531.1287898500755
0.00043196792973341727,2636.7569656636606
0.0004489251258218605,2746.692319889569
0.0004665479882234472,2861.099521223087
0.000484862648123908,2980.1480578462806
0.000503896262506515,3104.012812429469
0.0005236770544204653,3232.8738474129786
0.0005442343548300266,3366.916492115369
0.0005655986461065005,3506.33164057948
0.0005878016072274912,3651.3153133223977
0.0006108761607505036,3802.0691179815876
0.0006348565216305217,3958.7997124796057
0.0006597782479539537,4121.718497593237
0.0006856782936641739,4291.042405812451
0.0007125950633568407,4466.993553536184
0.0007405684692262436,4649.799463074781
0.0007696399902471156,4839.692183624574
0.0007998527336796708,5036.9071260570645
0.000831251498989063,5241.6844423847
0.0008638828442740447,5454.268462815224
0.000897795155303332,5674.90774939604
0.0009330387172620361,5903.854137875166
0.0009696657893145519,6141.3601693885485
0.001007730682094461,6387.681069600298
0.0010472898382363582,6643.073488436344
0.0010884019160690055,6907.795099706169
0.0011311278765939214,7182.104251355371
0.001175531073878369,7466.255667536341
0.0012216773489967915,7760.502712975301
0.0012696351276599736,8065.0960772335775
0.0013194755216767058,8380.282282728018
0.0013712724343984,8706.30408207881
0.0014251026703029975,9043.394936086575
0.0014810460488806749,9391.7806084519
0.0015391855229902056,9751.678823894155
0.001599607301861487,10123.296838744513
0.0016624009789266115,10506.831706615574
0.0017276596646690358,10902.464154277586
0.0017954801246878305,11310.358714347416
0.0018659629231817451,11730.662723069494
0.001939212572065829,12163.499959407498
0.0020153376859417325,12608.973800169182
0.002094451143151469,13067.163493328791
0.002176670253153458,13538.1223809587
0.002262116930469025,14021.87767208275
0.002350917875457286,14518.425692544679
0.002443204762186487,15027.73218002422
0.0025391144336803463,15549.727844560395
0.002638789104828933,16084.305001075107
0.002742376573264949,16631.31855867082
0.0028500304385181063,17190.580728508594
0.0029619103297725525,17761.860948346348
0.0030781821425650787,18344.883169276076
0.003199018284775064,18939.321754573375
0.0033245979322709396,19544.802097108295
0.003455107294592217,20160.892760275005
0.0035907398910610534,20787.105729791936
0.0037316968377327513,21422.895183068576
0.0038781871456107214,22067.649942164753
0.0040304280305680515,22720.698209833474
0.00418864523543527,23381.30295514715
0.004353073364731888,24048.661020823274
0.00452395623253805,24721.908004995646
0.004701547224022131,25400.12419326866
0.004886109671160325,26082.327180094293
0.005077917243205399,26767.39932676442
0.005277254352483535,27454.062473881935
0.005484416576121017,28141.005479374053
0.005699711094326071,28827.16902395193
0.005923457145875801,29511.577139605
0.006155986501483508,30192.792467184514
0.006397643955748424,30868.523094123782
0.0066487878384172625,31536.344923391378
0.0069097905457156435,32194.523421948386
0.007181039092537346,32841.746878721584
0.007462935686310132,33476.409038184625
0.007755898323389004,34096.09436994905
0.00806036140886134,34698.2114486716
0.008376776400682916,35280.61204766843
0.008705612479099857,35841.5567699587
0.009047357242349292,36379.173660420354
0.00940251742967013,36890.969529383925
0.009771619672696168,37374.27361813482
0.010155211276345676,37826.33085656749
0.010553861030365234,38244.29892626306
0.010968160052731372,38625.34839152836
0.011398722666160517,38966.6810209426
0.011846187309026826,39265.55620825048
0.012311217482038896,39519.213271136505
0.012794502732078732,39724.81252018879
0.013296759674662111,39879.591808494995
0.013818733056536317,39980.61477089366
0.014361196859990781,40024.94410589444
0.014924955450518284,40009.80155891482
0.015510844769528393,39932.50970567626
0.016119733573881575,39790.650473281654
0.01675252472408214,39581.86481820901
0.017410156523040152,39303.95261712462
0.018093604107387147,38955.09190252319
0.01880388089340914,38533.72501121823
0.019542040079740527,38038.7781406837
0.02030917620904734,37469.63097036526
0.021106426791015535,36826.139732084965
0.021934973989050584,36108.83308679835
0.02279604637318978,35318.961790764726
0.023690920741826323,34458.50749281104
0.02462092401494623,33530.3589393037
0.02558743520168586,32538.407602997522
0.02659188744512693,31487.301388993317
0.027635770147361564,30383.054332477226
0.028720631177978267,29232.520227630608
0.029848079169243254,28043.433174407008
0.03101978590138095,26825.08331752832
0.03223748878149028,25586.84347554494
0.0335029934197723,24339.599026625394
0.03481817630688963,23094.824360787745
0.03618498759642746,21863.508774127902
0.037605453996581675,20657.961986399325
0.03908168177536263,19489.126631017232
0.04061585988376978,18368.466272305774
0.04221026320156896,17307.80652693295
0.04386725591048496,16316.402572309682
0.0455892949998106,15402.407375489396
0.047378933909631396,14571.995389064401
0.049238826317067365,13828.16348696792
0.05117173007114603,13170.822025951935
0.05318051128214196,12599.225262488852
0.05526814857144601,12112.022870055234
0.057437737488265785,11707.855724071074
0.0596924950997073,11379.32606095553
0.0620357647610427,11107.8306508745
0.06447102107323864,10876.06709580412
0.06700187503509585,10670.290852377999
0.06963207939763882,10476.093952747413
0.0723655342286965,10268.473890840174
0.07520629269592405,10020.96402463861
0.07815856707684081,9710.976136004314
0.08122673500479707,9322.670070588852
0.08441534596012978,8850.776951888687
0.0877291280161335,8301.088383531744
0.09117299484984914,7689.792354735941
0.09475205302806537,7042.646134897224
0.09847160957933764,6386.933517212003
0.1023371798632519,5752.005077786018
0.10635449574860109,5175.248547672087
0.11052951411260206,4687.26839193328
0.1148684256737553,4306.136215758891
0.1193776641714435,4036.762809881031
0.1240639159058831,3865.1388048624744
0.12893412965257148,3766.7557226336703
0.13399552696593373,3709.2095094178817
0.1392556128874462,3654.4203313582725
0.14472218707411338,3563.882089676775
0.15040335536380234,3409.9839873596907
0.15630754179458153,3182.3075963365477
0.16244350109588662,2891.1683587874163
0.16882033167003618,2572.653918226405
0.17544748908334581,2278.393367355613
0.1823348000868439,2045.2568137600706
0.189492477187382,1884.892498446882
0.19693113379074215,1793.5213993137843
0.20466179993919872,1746.970502961085
0.21269593866686892,1703.177878948108
0.22104546299710207,1627.8795005682407
0.22972275360711503,1509.3396842059367
0.23874067718606454,1360.343691036688
0.2481126055137766,1213.5683836372857
0.25785243528842716,1098.4742654583986
0.26797460873256895,1025.2198756423481
0.27849413500806414,979.1416787607778
0.28942661247167484,933.4302355227949
0.3007882518043098,870.8349173407134
0.31259590004822796,792.3344448908135
0.324867065587837,716.8021800689671
0.3376199441111335,658.8117846511685
0.35087344559027084,617.7191869524723
0.36464722232127456,579.8159525356588
0.37896169806447155,536.0030851205537
0.3938380983288488,489.40321547971746
0.4092984818452433,448.8927667961833
0.4253657732750382,416.6034328137692
0.44206379720285277,386.9332083118819
0.45941731346364734,356.18286413703976
0.47745205385661277,326.74530066258404
0.4961947603002895,301.3133476891596
0.5156732244854959,278.4252456574242
0.5359163290848509,256.2414216733427
0.556954090580013,235.46364368403405
0.5788177037701272,216.85526781272637
0.6015395880274836,199.6288702174793
0.6251534353689703,183.45630533784075
0.6496942604146115,168.6615468520058
0.6751984523072497,155.0643734838989
0.7017038286703824,142.43077749381334
0.7292496916841444,130.82022865320687
0.7578768863625915,120.12655668625557
0.7876278611187046,110.25253000238773
0.8185467307069019,101.1651884712743
0.850679341636415,92.8056601081972
0.8840733401525058,85.11625015623008
0.9187782428863317,78.0438993215962
0.9548455102782278,71.53979772382158
0.9923286228832539,65.55908155442144
1.0312831606721837,60.061215577123484
1.0717668854455022,55.00926691553491
1.1138398264826193,50.36891598736729
1.1575643695533022,46.108275877710014
1.2030053494233226,42.19774251935353
1.2502301459914542,38.60981594327294
1.299308784200415,35.3188143101856
1.3503140378698726,32.30093944245309
1.4033215376054824,29.53422828819292
1.4584098829439835,26.99841812449086
1.5156607589006013,24.67482097528039
1.575159057091621,22.546217812164183
1.6369930016117014,20.59676018260949
1.7012542798525885,18.811839461525885
1.7680381784572046,17.177990733427723
1.8374437246107238,15.682807959005293
1.9095738328780953,14.314864886513524
1.9845354578058014,13.063639291654425
2.0624397525140905,11.919445382209611
2.143402233514853,10.873373183962217
2.227542951999554,9.91722930643624
2.314986671851158,9.043481820660414
2.405863054644063,8.24520862445841
2.5003068519063225,7.5160467864224785
2.598458104929248,6.850152111989368
2.7004623524206774,6.24216058392018
2.806470846309834,5.6871503045983935
2.916640776023701,5.180606305749955
3.031135501567576,4.718388028384331
3.150124795755327,4.296699282835025
3.2737850959485697,3.912060567432201
3.4022997656780634,3.5612834975144425
3.5358593665351745,3.24144720976656
3.6746619407366854,2.949876597561172
3.8189133047818515,2.684121935589537
3.968827354637162,2.4419404040916266
4.1246263829013445,2.2212796080503736
4.286541408420921,2.0202618883675214
4.4548125188449825,1.8371698426549337
4.629689226627261,1.670432992561084
4.811430839003257,1.518615396686331
5.000306842491082,1.3804045100758038
5.196597302486189,1.2546009555659656
5.400593278542364,1.1401090009288992
5.612597255954967,1.0359278122553675
5.8329235942862,0.9411434002243123
6.06189899349756,0.8549211804274379
6.29986297838068,0.7764993251214268
6.547168402004727,0.7051825895591783
6.804181968927091,0.6403366146115608
7.071284778942991,0.5813827043584889
7.348872892180382,0.5277929967147411
7.637357916378006,0.4790860606900595
7.937167617217536,0.4348229789807331
8.248746552614573,0.3946036733834189
8.572556731909314,0.35806353042105704
8.909078300934132,0.32487031094982355
9.258810253973934,0.29472127874894205
9.622271173675122,0.26734064576822003
9.999999999999984,0.2424772615430189
