k [1/Mpc],P(k) [Mpc^3]
0.0001,250.25185009068122
0.00010392556829367125,260.8243314316471
0.00010800523745162529,271.84317878557033
0.00011224505680853065,283.3272019071813
0.00011665131316981963,295.2960002632291
0.00012123054013376525,307.7699924846012
0.00012598952777950273,320.77045246616325
0.00013093533273536104,334.31954471089495
0.00013607528864243335,348.44035972465645
0.00014141701702890234,363.1569537099208
0.00014696843861124463,378.49437506977523
0.00015273778503907136,394.47870960952577
0.00015873361110102093,411.13713394568765
0.00016496480740980205,428.49796550534074
0.0001714406135851971,446.5907040711202
0.00017817063195457305,465.4460641758609
0.00018516484179121546,485.09602441204356
0.000192433614111598,505.5738879928547
0.00019998772705352857,526.9143225174037
0.0002078383818579757,549.1534264096056
0.00021599721947827182,572.3287782564812
0.0002244763378413224,596.479489771089
0.0002332883097864157,621.6462830876447
0.00024244620170823283,647.8715534556022
0.0002519635929317015,675.1994382851625
0.0002618545958474233,703.6758536288438
0.0002721338768375308,733.348521336219
0.0002828166780230032,764.2670958433512
0.0002939188398646886,796.4832298633104
0.0003054568246515432,830.0506567270535
0.00031744774091091926,865.0252638566401
0.00032990936877709396,901.4651279607923
0.00034286018635565856,939.4306429811112
0.00035631939712285854,978.9845849148527
0.000370306958400514,1020.192196631744
0.00038484361094874304,1063.1212786825647
0.0003999509097203664,1107.8421307912267
0.00041565125582259895,1154.4277468731395
0.00043196792973341727,1202.9539478487593
0.0004489251258218605,1253.49947032781
0.0004665479882234472,1306.146073285125
0.000484862648123908,1360.978471617259
0.000503896262506515,1418.0845108790968
0.0005236770544204653,1477.5553019842619
0.0005442343548300266,1539.4852399643016
0.0005655986461065005,1603.972200995063
0.0005878016072274912,1671.1174086823526
0.0006108761607505036,1741.0255677930088
0.0006348565216305217,1813.805136704224
0.0006597782479539537,1889.5683805657395
0.0006856782936641739,1968.4315270765112
0.0007125950633568407,2050.5145308071437
0.0007405684692262436,2135.9410642072885
0.0007696399902471156,2224.838952678849
0.0007998527336796708,2317.3401632138375
0.000831251498989063,2413.580984101346
0.0008638828442740447,2513.701855463498
0.000897795155303332,2617.8471670887297
0.0009330387172620361,2726.1657276452033
0.0009696657893145519,2838.810369021657
0.001007730682094461,2955.938181225498
0.0010472898382363582,3077.7106174603746
0.0010884019160690055,3204.2930959594005
0.0011311278765939214,3335.855455209411
0.001175531073878369,3472.5711975158606
0.0012216773489967915,3614.6174867938635
0.0012696351276599736,3762.1754982567377
0.0013194755216767058,3915.4293137470836
0.0013712724343984,4074.566663045499
0.0014251026703029975,4239.778267234384
0.0014810460488806749,4411.257320858247
0.0015391855229902056,4589.200074575183
0.001599607301861487,4773.804163959048
0.0016624009789266115,4965.269201524665
0.0017276596646690358,5163.7962479424505
0.0017954801246878305,5369.586451263313
0.0018659629231817451,5582.84203324734
0.001939212572065829,5803.764487238046
0.0020153376859417325,6032.554566702774
0.002094451143151469,6269.411913515956
0.002176670253153458,6514.53252209797
0.002262116930469025,6768.110027539107
0.002350917875457286,7030.333586718537
0.002443204762186487,7301.386984730784
0.0025391144336803463,7581.449066172659
0.002638789104828933,7870.6908112370065
0.002742376573264949,8169.275993664918
0.0028500304385181063,8477.35909184577
0.0029619103297725525,8795.0831559231
0.0030781821425650787,9122.58069245772
0.003199018284775064,9459.969959893007
0.0033245979322709396,9807.355084607969
0.003455107294592217,10164.824901796872
0.0035907398910610534,10532.449929926743
0.0037316968377327513,10910.282967262421
0.0038781871456107214,11298.354284006817
0.0040304280305680515,11696.670821424124
0.00418864523543527,12105.216071024826
0.004353073364731888,12523.945400573457
0.00452395623253805,12952.787292319314
0.004701547224022131,13391.639398239704
0.004886109671160325,13840.366269534412
0.005077917243205399,14298.79948206294
0.005277254352483535,14766.729638582488
0.005484416576121017,15243.90903210278
0.005699711094326071,15730.054056343133
0.005923457145875801,16224.844949074108
0.006155986501483508,16727.91870125451
0.006397643955748424,17238.8365531101
0.0066487878384172625,17757.09465685765
0.0069097905457156435,18282.18130532084
0.007181039092537346,18813.645438100935
0.007462935686310132,19351.00361703647
0.007755898323389004,19893.511686279646
0.00806036140886134,20440.18164985798
0.008376776400682916,20990.018596255108
0.008705612479099857,21542.26648874432
0.009047357242349292,22096.200170001845
0.00940251742967013,22650.87493442456
0.009771619672696168,23205.068247094754
0.010155211276345676,23757.514665561932
0.010553861030365234,24307.145679994068
0.010968160052731372,24852.954168394604
0.011398722666160517,25393.795355366954
0.011846187309026826,25928.288991932157
0.012311217482038896,26454.982170415973
0.012794502732078732,26972.354188769998
0.013296759674662111,27478.82778230024
0.013818733056536317,27972.808830541926
0.014361196859990781,28452.736590485627
0.014924955450518284,28917.03693049543
0.015510844769528393,29364.060067256814
0.016119733573881575,29792.089917063273
0.01675252472408214,30199.395924316777
0.017410156523040152,30584.221906000763
0.018093604107387147,30944.81425608558
0.01880388089340914,31279.448753016743
0.019542040079740527,31586.44487051112
0.02030917620904734,31864.159358904184
0.021106426791015535,32110.960696019978
0.021934973989050584,32325.26272070735
0.02279604637318978,32505.575098865127
0.023690920741826323,32650.5379452208
0.02462092401494623,32758.89918063765
0.02558743520168586,32829.551117555486
0.02659188744512693,32861.53032367128
0.027635770147361564,32854.04059349833
0.028720631177978267,32806.536655591
0.029848079169243254,32718.64797641239
0.03101978590138095,32590.27255887779
0.03223748878149028,32421.5785991897
0.0335029934197723,32212.93918762785
0.03481817630688963,31965.105232830643
0.03618498759642746,31679.044013945764
0.037605453996581675,31355.9990971496
0.03908168177536263,30997.54535928312
0.04061585988376978,30605.397107169592
0.04221026320156896,30181.521813177085
0.04386725591048496,29728.032698969026
0.0455892949998106,29247.17398160204
0.047378933909631396,28741.406296576035
0.049238826317067365,28213.182624780635
0.05117173007114603,27664.50544651983
0.05318051128214196,27097.06404736706
0.05526814857144601,26512.863729466415
0.057437737488265785,25914.967426985135
0.0596924950997073,25306.470761063727
0.0620357647610427,24688.120139438877
0.06447102107323864,24058.31874913385
0.06700187503509585,23415.897874454175
0.06963207939763882,22761.352898898454
0.0723655342286965,22095.81958500423
0.07520629269592405,21421.779876502067
0.07815856707684081,20743.700271963924
0.08122673500479707,20065.453011325408
0.08441534596012978,19386.646734438735
0.0877291280161335,18704.996624450363
0.09117299484984914,18020.548152483443
0.09475205302806537,17338.20667545709
0.09847160957933764,16663.201947693215
0.1023371798632519,16001.466233522295
0.10635449574860109,15358.794385751618
0.11052951411260206,14735.821431026416
0.1148684256737553,14127.883124291158
0.1193776641714435,13532.114234069806
0.1240639159058831,12948.272414123327
0.12893412965257148,12377.96577831134
0.13399552696593373,11824.135522976594
0.1392556128874462,11284.345761964983
0.14472218707411338,10753.517234457788
0.15040335536380234,10229.62414058034
0.15630754179458153,9714.994986533353
0.16244350109588662,9216.000199375385
0.16882033167003618,8737.807411994127
0.17544748908334581,8282.383963110862
0.1823348000868439,7847.821352974533
0.189492477187382,7429.815260350502
0.19693113379074215,7028.118313778528
0.20466179993919872,6643.0007257842035
0.21269593866686892,6273.0609319960095
0.22104546299710207,5915.345815150554
0.22972275360711503,5572.901094734435
0.23874067718606454,5247.852840788477
0.2481126055137766,4937.956820015128
0.25785243528842716,4643.144943414059
0.26797460873256895,4364.107940995751
0.27849413500806414,4097.783671932091
0.28942661247167484,3844.4806340462587
0.3007882518043098,3604.532117798422
0.31259590004822796,3377.1994195211273
0.324867065587837,3162.3155275636504
0.3376199441111335,2959.0733801317147
0.35087344559027084,2766.9999194640104
0.36464722232127456,2585.7526441012833
0.37896169806447155,2414.7201991794977
0.3938380983288488,2253.7088306560727
0.4092984818452433,2102.0016761541888
0.4253657732750382,1959.3857408546141
0.44206379720285277,1825.2438222833066
0.45941731346364734,1699.3648934694231
0.47745205385661277,1581.1627676724086
0.4961947603002895,1470.391459056527
0.5156732244854959,1366.6343125875812
0.5359163290848509,1269.4866284295676
0.556954090580013,1178.6925859114745
0.5788177037701272,1093.8527903865074
0.6015395880274836,1014.6089797115548
0.6251534353689703,940.676784860521
0.6496942604146115,871.7316555941085
0.6751984523072497,807.450298482391
0.7017038286703824,747.5407161329241
0.7292496916841444,691.7392996929638
0.7578768863625915,639.7955618526775
0.7876278611187046,591.4860255154741
0.8185467307069019,546.5763170944509
0.850679341636415,504.8714152404713
0.8840733401525058,466.16757235901684
0.9187782428863317,430.26730253247206
0.9548455102782278,396.9769696036603
0.9923286228832539,366.1169485608162
1.0312831606721837,337.5199936730487
1.0717668854455022,311.028311927556
1.1138398264826193,286.5025513443954
1.1575643695533022,263.82107689380837
1.2030053494233226,242.85173756894258
1.2502301459914542,223.47608561376177
1.299308784200415,205.57408403782404
1.3503140378698726,189.03876680179428
1.4033215376054824,173.77550446206888
1.4584098829439835,159.6924785014001
1.5156607589006013,146.70384165982122
1.575159057091621,134.72944921948155
1.6369930016117014,123.69453296396799
1.7012542798525885,113.5293523745068
1.7680381784572046,104.16884658148928
1.8374437246107238,95.55245981411758
1.9095738328780953,87.6238821359999
1.9845354578058014,80.33078178086484
2.0624397525140905,73.62454808966513
2.143402233514853,67.4600040452762
2.227542951999554,61.79520932032024
2.314986671851158,56.59129340578439
2.405863054644063,51.81224890802677
2.5003068519063225,47.42473590033
2.598458104929248,43.397903318711904
2.7004623524206774,39.703226147305344
2.806470846309834,36.31432552868912
2.916640776023701,33.2068144463899
3.031135501567576,30.35815747509104
3.150124795755327,27.747539435644352
3.2737850959485697,25.35574260756311
3.4022997656780634,23.165031704707598
3.5358593665351745,21.159046289352222
3.6746619407366854,19.322700469453622
3.8189133047818515,17.642089303569566
3.968827354637162,16.104394868604164
4.1246263829013445,14.697788202595643
4.286541408420921,13.411381532816655
4.4548125188449825,12.235163803439173
4.629689226627261,11.159932678001049
4.811430839003257,10.17723194817729
5.000306842491082,9.279302756800687
5.196597302486189,8.459026551083717
5.400593278542364,7.709862429020819
5.612597255954967,7.025801778715593
5.8329235942862,6.4013268981504226
6.06189899349756,5.831370578390772
6.29986297838068,5.311273779697098
6.547168402004727,4.836762780976144
6.804181968927091,4.403921608681286
7.071284778942991,4.009162913350181
7.348872892180382,3.6492012032275847
7.637357916378006,3.3210305223413843
7.937167617217536,3.021901360627119
8.248746552614573,2.749295988251031
8.572556731909314,2.5009093311875445
8.909078300934132,2.274631596235381
9.258810253973934,2.068531694591576
9.622271173675122,1.8808400925618336
9.999999999999984,1.7099383849913463
