k [1/Mpc],P(k) [Mpc^3]
0.0001,74.5273170099297
0.00010392556829367125,77.67441906754732
0.00010800523745162529,80.95421240159396
0.00011224505680853065,84.37226414250846
0.00011665131316981963,87.93437172052418
0.00012123054013376525,91.64657314211298
0.00012598952777950273,95.51515687101634
0.00013093533273536104,99.54667037907343
0.00013607528864243335,103.74792431931719
0.00014141701702890234,108.12600830108525
0.00014696843861124463,112.68830727774119
0.00015273778503907136,117.44251500401421
0.00015873361110102093,122.39664040480187
0.00016496480740980205,127.55900339187424
0.0001714406135851971,132.93825539934605
0.00017817063195457305,138.54340073798662
0.00018516484179121546,144.38381157189255
0.000192433614111598,150.4692400265567
0.00019998772705352857,156.8098180116406
0.0002078383818579757,163.41607412428442
0.00021599721947827182,170.29895702593757
0.0002244763378413224,177.46984574396717
0.0002332883097864157,184.94057070264975
0.00024244620170823283,192.7234186393927
0.0002519635929317015,200.83114498338298
0.0002618545958474233,209.276999794305
0.0002721338768375308,218.0747151677961
0.0002828166780230032,227.23853972826316
0.0002939188398646886,236.78326489508535
0.0003054568246515432,246.72423839521733
0.00031744774091091926,257.0773871827837
0.00032990936877709396,267.85919316501526
0.00034286018635565856,279.08672146821283
0.00035631939712285854,290.7776540707516
0.000370306958400514,302.95027611985245
0.00038484361094874304,315.6235236473379
0.0003999509097203664,328.81697450792313
0.00041565125582259895,342.5508585682787
0.00043196792973341727,356.84609685646006
0.0004489251258218605,371.7242511926272
0.0004665479882234472,387.20758286269427
0.000484862648123908,403.3190613401046
0.000503896262506515,420.0823482200951
0.0005236770544204653,437.52185246332937
0.0005442343548300266,455.662662620865
0.0005655986461065005,474.53058447110186
0.0005878016072274912,494.152170998475
0.0006108761607505036,514.5546636117964
0.0006348565216305217,535.7660632885108
0.0006597782479539537,557.8150425161275
0.0006856782936641739,580.7309345006428
0.0007125950633568407,604.5438105819416
0.0007405684692262436,629.284393441044
0.0007696399902471156,654.984112026718
0.0007998527336796708,681.6749779291656
0.000831251498989063,709.3894600554601
0.0008638828442740447,738.1606425071444
0.000897795155303332,768.022063619738
0.0009330387172620361,799.007749265834
0.0009696657893145519,831.1521265920117
0.001007730682094461,864.4897246387734
0.0010472898382363582,899.0553858672471
0.0010884019160690055,934.8839036326228
0.0011311278765939214,972.0099495602848
0.001175531073878369,1010.4682099964583
0.0012216773489967915,1050.2929736223632
0.0012696351276599736,1091.5182882136367
0.0013194755216767058,1134.177571017402
0.0013712724343984,1178.3032554690974
0.0014251026703029975,1223.9270952912907
0.0014810460488806749,1271.079612966843
0.0015391855229902056,1319.7901577297523
0.001599607301861487,1370.08682502157
0.0016624009789266115,1421.9960506464104
0.0017276596646690358,1475.5426691807043
0.0017954801246878305,1530.7488436663448
0.0018659629231817451,1587.6339211594482
0.001939212572065829,1646.2148027872881
0.0020153376859417325,1706.5053803626308
0.002094451143151469,1768.5165852312712
0.002176670253153458,1832.2558273733268
0.002262116930469025,1897.7265507473428
0.002350917875457286,1964.9283765691778
0.002443204762186487,2033.8563545957861
0.0025391144336803463,2104.5009542408384
0.002638789104828933,2176.8477422032543
0.002742376573264949,2250.8767339026735
0.0028500304385181063,2326.5625445256574
0.0029619103297725525,2403.873517075887
0.0030781821425650787,2482.7715530198143
0.003199018284775064,2563.2120059720705
0.0033245979322709396,2645.1425882085537
0.003455107294592217,2728.503825105728
0.0035907398910610534,2813.228672204338
0.0037316968377327513,2899.2421713585877
0.0038781871456107214,2986.4613995717173
0.0040304280305680515,3074.794056133319
0.00418864523543527,3164.1390007415357
0.004353073364731888,3254.386103197812
0.00452395623253805,3345.4155718991206
0.004701547224022131,3437.0986099959814
0.004886109671160325,3529.2965291845826
0.005077917243205399,3621.8610031058715
0.005277254352483535,3714.630175209376
0.005484416576121017,3807.4177985635392
0.005699711094326071,3900.02496220412
0.005923457145875801,3992.269252249804
0.006155986501483508,4083.9897027362126
0.006397643955748424,4175.004271359931
0.0066487878384172625,4265.023106670012
0.0069097905457156435,4353.706542239108
0.007181039092537346,4440.736096189902
0.007462935686310132,4525.846515619612
0.007755898323389004,4608.773187689191
0.00806036140886134,4689.2469436544825
0.008376776400682916,4766.995193824659
0.008705612479099857,4841.72469328449
0.009047357242349292,4913.085879817063
0.00940251742967013,4980.715195245479
0.009771619672696168,5044.233618367463
0.010155211276345676,5103.248728151612
0.010553861030365234,5157.364855791552
0.010968160052731372,5206.168435436509
0.011398722666160517,5249.245404741995
0.011846187309026826,5286.181769348816
0.012311217482038896,5316.561505283144
0.012794502732078732,5339.978008076878
0.013296759674662111,5355.987384446966
0.013818733056536317,5364.140138044567
0.014361196859990781,5364.002980801898
0.014924955450518284,5355.141887180546
0.015510844769528393,5337.1581399991155
0.016119733573881575,5309.656284118467
0.01675252472408214,5272.258879454092
0.017410156523040152,5224.641545140612
0.018093604107387147,5166.495334766026
0.01880388089340914,5097.581197116271
0.019542040079740527,5017.719841477572
0.02030917620904734,4926.787666583509
0.021106426791015535,4824.770178288635
0.021934973989050584,4711.734261068782
0.02279604637318978,4587.862045904387
0.023690920741826323,4453.471437192548
0.02462092401494623,4309.010466498396
0.02558743520168586,4155.074337139647
0.02659188744512693,3992.4357037823297
0.027635770147361564,3822.0236959856734
0.028720631177978267,3644.919299456269
0.029848079169243254,3462.4343104651634
0.03101978590138095,3275.964650571995
0.03223748878149028,3087.096435615662
0.0335029934197723,2897.5766363118237
0.03481817630688963,2709.106205330494
0.03618498759642746,2523.6443451393384
0.037605453996581675,2343.0274530298916
0.03908168177536263,2169.017692658184
0.04061585988376978,2003.487745822323
0.04221026320156896,1847.8896135427963
0.04386725591048496,1703.8208696545332
0.0455892949998106,1572.6830617347528
0.047378933909631396,1455.2588217883404
0.049238826317067365,1351.8545631040436
0.05117173007114603,1262.4728554382716
0.05318051128214196,1187.2290265316788
0.05526814857144601,1126.442115155853
0.057437737488265785,1079.9833648407673
0.0596924950997073,1046.0500919047486
0.0620357647610427,1022.8003661979557
0.06447102107323864,1008.7324331280258
0.06700187503509585,1002.5101226351921
0.06963207939763882,1001.653982894376
0.0723655342286965,1002.7819573551708
0.07520629269592405,1001.9828417252893
0.07815856707684081,995.0801340588164
0.08122673500479707,978.1778591980066
0.08441534596012978,948.2287470781439
0.0877291280161335,903.7204161244433
0.09117299484984914,844.9864952448679
0.09475205302806537,774.1302751068164
0.09847160957933764,694.7739988507951
0.1023371798632519,611.7447199106754
0.10635449574860109,530.8626170232752
0.11052951411260206,458.15527702682266
0.1148684256737553,398.4817408378043
0.1193776641714435,354.3234810734984
0.1240639159058831,325.9827557519251
0.12893412965257148,312.0410338268834
0.13399552696593373,309.8820496254012
0.1392556128874462,315.5316575434811
0.14472218707411338,323.52025604127977
0.15040335536380234,327.561327942075
0.15630754179458153,321.8995995789666
0.16244350109588662,302.8087414560103
0.16882033167003618,271.10460602039313
0.17544748908334581,233.06808476630616
0.1823348000868439,196.66628028240976
0.189492477187382,167.81218745050603
0.19693113379074215,149.85360898949614
0.20466179993919872,143.02725366358408
0.21269593866686892,143.93915068080312
0.22104546299710207,146.84617146681907
0.22972275360711503,145.7305704083945
0.23874067718606454,136.55804081063647
0.2481126055137766,120.35464991418193
0.25785243528842716,102.53711973881984
0.26797460873256895,88.87132937789954
0.27849413500806414,81.97790353694509
0.28942661247167484,80.19530455237324
0.3007882518043098,79.51737889328054
0.31259590004822796,75.67597525944758
0.324867065587837,67.8969628384837
0.3376199441111335,59.233355173278994
0.35087344559027084,53.15731186643601
0.36464722232127456,50.29505425372018
0.37896169806447155,48.4534438913786
0.3938380983288488,45.22522201623056
0.4092984818452433,40.56696940881727
0.4253657732750382,36.44658861409245
0.44206379720285277,33.877237122925855
0.45941731346364734,31.93272177914663
0.47745205385661277,29.425530471558744
0.4961947603002895,26.624845797099177
0.5156732244854959,24.422110897670965
0.5359163290848509,22.72445864440173
0.556954090580013,20.921949858003178
0.5788177037701272,19.079091188484988
0.6015395880274836,17.547359176103107
0.6251534353689703,16.191962296417163
0.6496942604146115,14.83130716956003
0.6751984523072497,13.599183877623569
0.7017038286703824,12.506906633219854
0.7292496916841444,11.464813016438036
0.7578768863625915,10.512873685147
0.7876278611187046,9.642517025491236
0.8185467307069019,8.840674335822024
0.850679341636415,8.102558116633821
0.8840733401525058,7.423639296557905
0.9187782428863317,6.799636181879654
0.9548455102782278,6.226510885694218
0.9923286228832539,5.7004094424293275
1.0312831606721837,5.217594224058851
1.0717668854455022,4.774593102518883
1.1138398264826193,4.368206015418555
1.1575643695533022,3.995484078678364
1.2030053494233226,3.6537105742886795
1.2502301459914542,3.3403937662835097
1.299308784200415,3.053248957465334
1.3503140378698726,2.7901668715647103
1.4033215376054824,2.549200076572397
1.4584098829439835,2.328551402277272
1.5156607589006013,2.126562812429664
1.575159057091621,1.9417023764246246
1.6369930016117014,1.7725571883653606
1.7012542798525885,1.6178269727857673
1.7680381784572046,1.4763155217200445
1.8374437246107238,1.3469227048271877
1.9095738328780953,1.2286371042820106
1.9845354578058014,1.1205292997501093
2.0624397525140905,1.0217452895801018
2.143402233514853,0.9315005330033685
2.227542951999554,0.8490745175196706
2.314986671851158,0.7738057301197496
2.405863054644063,0.7050869715647453
2.5003068519063225,0.6423610233478286
2.598458104929248,0.5851167576339632
2.7004623524206774,0.5328854669839981
2.806470846309834,0.48523746100700027
2.916640776023701,0.4417789223024747
3.031135501567576,0.402148938297384
3.150124795755327,0.3660168437626391
3.2737850959485697,0.33307985435072573
3.4022997656780634,0.30306078834808897
3.5358593665351745,0.27570596245371426
3.6746619407366854,0.25078325380462907
3.8189133047818515,0.22808031046216504
3.968827354637162,0.20740291700358796
4.1246263829013445,0.18857349096891277
4.286541408420921,0.1714296947726179
4.4548125188449825,0.1558231597837703
4.629689226627261,0.14161830306913878
4.811430839003257,0.12869121702593983
5.000306842491082,0.11692873203891231
5.196597302486189,0.10622752209554422
5.400593278542364,0.09649326651178051
5.612597255954967,0.0876398813055444
5.8329235942862,0.07958882002611244
6.06189899349756,0.07226843188512425
6.29986297838068,0.06561335625903639
6.547168402004727,0.05956397996973827
6.804181968927091,0.05406594204413543
7.071284778942991,0.049069679799166065
7.348872892180382,0.044530005089186926
7.637357916378006,0.04040572696775607
7.937167617217536,0.036659315113560575
8.248746552614573,0.03325658062246725
8.572556731909314,0.030166383515468957
8.909078300934132,0.027360364727998354
9.258810253973934,0.02481269682399931
9.622271173675122,0.022499865469511177
9.999999999999984,0.020400469005094422
