k [1/Mpc],P(k) [Mpc^3]
0.0001,427.78951240750587
0.00010392556829367125,443.2947133996503
0.00010800523745162529,459.3614430495892
0.00011224505680853065,476.00996529917
0.00011665131316981963,493.26126558787297
0.00012123054013376525,511.1370862255152
0.00012598952777950273,529.6599529818105
0.00013093533273536104,548.8531992450143
0.00013607528864243335,568.7409949496994
0.00014141701702890234,589.3483756150209
0.00014696843861124463,610.7012577878567
0.00015273778503907136,632.8264631368723
0.00015873361110102093,655.7517645842316
0.00016496480740980205,679.5059009023483
0.0001714406135851971,704.1186206162955
0.00017817063195457305,729.6207371601774
0.00018516484179121546,756.0441801068482
0.000192433614111598,783.4220111985131
0.00019998772705352857,811.7883982999629
0.0002078383818579757,841.1786639372843
0.00021599721947827182,871.6293603351896
0.0002244763378413224,903.1782899752819
0.0002332883097864157,935.8645680384301
0.00024244620170823283,969.7286918866387
0.0002519635929317015,1004.8125935360639
0.0002618545958474233,1041.1596456213986
0.0002721338768375308,1078.8145823671603
0.0002828166780230032,1117.8236176057646
0.0002939188398646886,1158.2345210391265
0.0003054568246515432,1200.096643873009
0.00031744774091091926,1243.4610016681895
0.00032990936877709396,1288.3802897672638
0.00034286018635565856,1334.9089473753036
0.00035631939712285854,1383.1031955114452
0.000370306958400514,1433.0209931304873
0.00038484361094874304,1484.7221788606053
0.0003999509097203664,1538.268395393359
0.00041565125582259895,1593.7231167294058
0.00043196792973341727,1651.1518395530297
0.0004489251258218605,1710.6221234102384
0.0004665479882234472,1772.203660830278
0.000484862648123908,1835.9681512889936
0.000503896262506515,1901.9891981874255
0.0005236770544204653,1970.342604631477
0.0005442343548300266,2041.1063214225017
0.0005655986461065005,2114.360544611761
0.0005878016072274912,2190.187715357001
0.0006108761607505036,2268.672330223543
0.0006348565216305217,2349.9012215428866
0.0006597782479539537,2433.9633986486124
0.0006856782936641739,2520.9500770244204
0.0007125950633568407,2610.9548233680534
0.0007405684692262436,2704.07319298502
0.0007696399902471156,2800.403044909764
0.0007998527336796708,2900.0445502474468
0.000831251498989063,3003.1001236995326
0.0008638828442740447,3109.674511694072
0.000897795155303332,3219.8739839257337
0.0009330387172620361,3333.806683050661
0.0009696657893145519,3451.5828453575446
0.001007730682094461,3573.3145097887696
0.0010472898382363582,3699.115761800289
0.0010884019160690055,3829.1019259501713
0.0011311278765939214,3963.3895755256376
0.001175531073878369,4102.096700744595
0.0012216773489967915,4245.341404461163
0.0012696351276599736,4393.24276898157
0.0013194755216767058,4545.920308694912
0.0013712724343984,4703.493493826651
0.0014251026703029975,4866.082179971385
0.0014810460488806749,5033.804665112467
0.0015391855229902056,5206.778413355643
0.001599607301861487,5385.119754300077
0.0016624009789266115,5568.942536326754
0.0017276596646690358,5758.359125332139
0.0017954801246878305,5953.478382538639
0.0018659629231817451,6154.405677711294
0.001939212572065829,6361.243015252779
0.0020153376859417325,6574.0865338079875
0.002094451143151469,6793.027880017176
0.002176670253153458,7018.15215961678
0.002262116930469025,7249.536854041139
0.002350917875457286,7487.252952249598
0.002443204762186487,7731.362098084035
0.0025391144336803463,7981.917404677227
0.002638789104828933,8238.961897399035
0.002742376573264949,8502.526014747824
0.0028500304385181063,8772.629427670361
0.0029619103297725525,9049.27819668936
0.0030781821425650787,9332.464727599996
0.003199018284775064,9622.16708365164
0.0033245979322709396,9918.345151517213
0.003455107294592217,10220.942703442288
0.0035907398910610534,10529.88424862942
0.0037316968377327513,10845.073818476476
0.0038781871456107214,11166.395768125929
0.0040304280305680515,11493.709273385464
0.00418864523543527,11826.850675944539
0.004353073364731888,12165.631080082552
0.00452395623253805,12509.833130484076
0.004701547224022131,12859.213852796232
0.004886109671160325,13213.498589742476
0.005077917243205399,13572.382485498661
0.005277254352483535,13935.529128397055
0.005484416576121017,14302.563276724457
0.005699711094326071,14673.077441073245
0.005923457145875801,15046.627320288122
0.006155986501483508,15422.731572055214
0.006397643955748424,15800.867219316995
0.0066487878384172625,16180.437248418968
0.0069097905457156435,16560.796855262834
0.007181039092537346,16941.304896104128
0.007462935686310132,17321.345410595175
0.007755898323389004,17700.251169285963
0.00806036140886134,18077.10568804338
0.008376776400682916,18450.84151067619
0.008705612479099857,18820.392149632098
0.009047357242349292,19184.770509859656
0.00940251742967013,19542.97304134267
0.009771619672696168,19893.967030180032
0.010155211276345676,20236.693649799417
0.010553861030365234,20570.028826280857
0.010968160052731372,20892.66270246151
0.011398722666160517,21203.217482942167
0.011846187309026826,21500.256995845735
0.012311217482038896,21782.283476246674
0.012794502732078732,22047.770806173903
0.013296759674662111,22295.10072437216
0.013818733056536317,22522.620091974302
0.014361196859990781,22728.64585964855
0.014924955450518284,22911.435203467132
0.015510844769528393,23069.257235082354
0.016119733573881575,23200.28502701337
0.01675252472408214,23302.656137194546
0.017410156523040152,23374.540475882528
0.018093604107387147,23414.059333521436
0.01880388089340914,23419.41851699637
0.019542040079740527,23388.850967286933
0.02030917620904734,23320.6342330885
0.021106426791015535,23213.207554868262
0.021934973989050584,23065.067285930407
0.02279604637318978,22874.90888910723
0.023690920741826323,22641.64942681569
0.02462092401494623,22364.409967092775
0.02558743520168586,22042.652444726467
0.02659188744512693,21676.176501897047
0.027635770147361564,21265.165316323295
0.028720631177978267,20810.266349240726
0.029848079169243254,20312.662086091954
0.03101978590138095,19774.001535787604
0.03223748878149028,19196.630105620392
0.0335029934197723,18583.52258131302
0.03481817630688963,17938.136255604153
0.03618498759642746,17264.887256687623
0.037605453996581675,16568.52678933027
0.03908168177536263,15854.53623020773
0.04061585988376978,15129.261213113035
0.04221026320156896,14398.883694081158
0.04386725591048496,13670.425038182846
0.0455892949998106,12950.74062615207
0.047378933909631396,12246.709608240795
0.049238826317067365,11566.388169963768
0.05117173007114603,10916.51983359166
0.05318051128214196,10302.140901509516
0.05526814857144601,9726.832721648154
0.057437737488265785,9194.157227364743
0.0596924950997073,8710.980166618281
0.0620357647610427,8283.285298715533
0.06447102107323864,7910.890529410038
0.06700187503509585,7589.007454031526
0.06963207939763882,7313.247296565264
0.0723655342286965,7079.625098960618
0.07520629269592405,6883.334002984767
0.07815856707684081,6716.763819011476
0.08122673500479707,6570.80045044763
0.08441534596012978,6433.458153238882
0.0877291280161335,6291.754153182846
0.09117299484984914,6132.026042568306
0.09475205302806537,5941.5094211543965
0.09847160957933764,5710.367420229352
0.1023371798632519,5433.942896878016
0.10635449574860109,5112.969829053345
0.11052951411260206,4753.961447248751
0.1148684256737553,4368.9296130941575
0.1193776641714435,3973.7868393184317
0.1240639159058831,3588.2882831746606
0.12893412965257148,3232.536276978914
0.13399552696593373,2925.153625597293
0.1392556128874462,2678.3353615380224
0.14472218707411338,2495.75993537481
0.15040335536380234,2372.867700402339
0.15630754179458153,2298.008027186233
0.16244350109588662,2253.723418841373
0.16882033167003618,2217.681265800431
0.17544748908334581,2165.6507213320133
0.1823348000868439,2077.6319029118217
0.189492477187382,1944.3603475893422
0.19693113379074215,1771.0402865348003
0.20466179993919872,1577.5770273928358
0.21269593866686892,1392.6917231803188
0.22104546299710207,1241.8440624744155
0.22972275360711503,1137.4686456333393
0.23874067718606454,1078.2401330362657
0.2481126055137766,1050.1938588954808
0.25785243528842716,1028.444503745469
0.26797460873256895,987.9476292981805
0.27849413500806414,916.7025386368827
0.28942661247167484,821.7183273314278
0.3007882518043098,725.3259448385843
0.31259590004822796,649.8726710558835
0.324867065587837,604.5841048835047
0.3376199441111335,580.9493686761103
0.35087344559027084,558.8728910873472
0.36464722232127456,522.5279992332988
0.37896169806447155,471.2178740483806
0.3938380983288488,420.1453803835195
0.4092984818452433,383.2843478872942
0.4253657732750382,361.22836374111426
0.44206379720285277,342.0958823224176
0.45941731346364734,315.8275681879407
0.47745205385661277,284.7698459460939
0.4961947603002895,258.65689466291246
0.5156732244854959,240.71914307662323
0.5359163290848509,224.8196707284272
0.556954090580013,205.9382572812196
0.5788177037701272,186.9606589336691
0.6015395880274836,172.039176460037
0.6251534353689703,159.44975882002038
0.6496942604146115,146.1329498785485
0.6751984523072497,133.31097084930772
0.7017038286703824,122.64402378471054
0.7292496916841444,112.78071420651352
0.7578768863625915,103.05996259665156
0.7876278611187046,94.44518492760194
0.8185467307069019,86.65086874963501
0.850679341636415,79.26069645021768
0.8840733401525058,72.50275726556026
0.9187782428863317,66.33148494613374
0.9548455102782278,60.68563023146221
0.9923286228832539,55.51180578042421
1.0312831606721837,50.763385383997935
1.0717668854455022,46.40034720438759
1.1138398264826193,42.392787642574945
1.1575643695533022,38.71528822349933
1.2030053494233226,35.34374816303716
1.2502301459914542,32.25537590061276
1.299308784200415,29.428679733794002
1.3503140378698726,26.84304892605668
1.4033215376054824,24.478491767017662
1.4584098829439835,22.316536999156167
1.5156607589006013,20.340230662833168
1.575159057091621,18.534012594175863
1.6369930016117014,16.883611987892653
1.7012542798525885,15.37603522063119
1.7680381784572046,13.999394478763346
1.8374437246107238,12.74274088586965
1.9095738328780953,11.595994427981116
1.9845354578058014,10.549879992551183
2.0624397525140905,9.595861670961943
2.143402233514853,8.726077358790736
2.227542951999554,7.933307030239715
2.314986671851158,7.210926893405981
2.405863054644063,6.5528624544311525
2.5003068519063225,5.953545028600361
2.598458104929248,5.407871119367869
2.7004623524206774,4.911165369463942
2.806470846309834,4.459146609705855
2.916640776023701,4.047896010224026
3.031135501567576,3.673827647785719
3.150124795755327,3.333661259622528
3.2737850959485697,3.0243969165823525
3.4022997656780634,2.7432923089756445
3.5358593665351745,2.4878415591052705
3.6746619407366854,2.2557555593138257
3.8189133047818515,2.0449438640208832
3.968827354637162,1.8534976621974926
4.1246263829013445,1.6796744534672232
4.286541408420921,1.521884616291405
4.4548125188449825,1.3786784464003001
4.629689226627261,1.248734203103926
4.811430839003257,1.1308471257727268
5.000306842491082,1.0239192843574458
5.196597302486189,0.9269504497871862
5.400593278542364,0.8390296910864233
5.612597255954967,0.7593276125512879
5.8329235942862,0.6870892436162525
6.06189899349756,0.6216274850851895
6.29986297838068,0.5623171197225478
6.547168402004727,0.5085894747385141
6.804181968927091,0.4599274411007098
7.071284778942991,0.41586090450040136
7.348872892180382,0.37596256867661915
7.637357916378006,0.3398441243476266
7.937167617217536,0.30715277902540866
8.248746552614573,0.27756809217245354
8.572556731909314,0.25079907003225216
8.909078300934132,0.22658151458733602
9.258810253973934,0.20467557658263946
9.622271173675122,0.18486349661962342
9.999999999999984,0.1669477033056315
