k [1/Mpc],P(k) [Mpc^3]
0.0001,1552.0459843390827
0.00010392556829367125,1608.269320972236
0.00010800523745162529,1666.5250820388067
0.00011224505680853065,1726.8862374660607
0.00011665131316981963,1789.4283362570427
0.00012123054013376525,1854.229556905364
0.00012598952777950273,1921.3708084200277
0.00013093533273536104,1990.9358249691122
0.00013607528864243335,2063.0111896582057
0.00014141701702890234,2137.686497666692
0.00014696843861124463,2215.0544111402787
0.00015273778503907136,2295.2107479900824
0.00015873361110102093,2378.254644698939
0.00016496480740980205,2464.288629781524
0.0001714406135851971,2553.4187609380547
0.00017817063195457305,2645.7546205955427
0.00018516484179121546,2741.409307350963
0.000192433614111598,2840.499740560599
0.00019998772705352857,2943.1467447908926
0.0002078383818579757,3049.475193527119
0.00021599721947827182,3159.61399922354
0.0002244763378413224,3273.6958794193015
0.0002332883097864157,3391.8578367466175
0.00024244620170823283,3514.2413353484653
0.0002519635929317015,3640.9924301855217
0.0002618545958474233,3772.261800772018
0.0002721338768375308,3908.2043296357856
0.0002828166780230032,4048.979603825329
0.0002939188398646886,4194.7519659121335
0.0003054568246515432,4345.690456995952
0.00031744774091091926,4501.969203816093
0.00032990936877709396,4663.766975725244
0.00034286018635565856,4831.267535210724
0.00035631939712285854,5004.659772998589
0.000370306958400514,5184.137334742967
0.00038484361094874304,5369.899207650134
0.0003999509097203664,5562.1490411153545
0.00041565125582259895,5761.095254970605
0.00043196792973341727,5966.951565722937
0.0004489251258218605,6179.936286243256
0.0004665479882234472,6400.272963362613
0.000484862648123908,6628.189627062093
0.000503896262506515,6863.918297742325
0.0005236770544204653,7107.696054591821
0.0005442343548300266,7359.764339728609
0.0005655986461065005,7620.369313344753
0.0005878016072274912,7889.761138861362
0.0006108761607505036,8168.192510048687
0.0006348565216305217,8455.920179800763
0.0006597782479539537,8753.203513142384
0.0006856782936641739,9060.30456773612
0.0007125950633568407,9377.488589956361
0.0007405684692262436,9705.02258183724
0.0007696399902471156,10043.176060663553
0.0007998527336796708,10392.218550279862
0.000831251498989063,10752.418412711666
0.0008638828442740447,11124.044569885884
0.000897795155303332,11507.363210319754
0.0009330387172620361,11902.639010940722
0.0009696657893145519,12310.133188470913
0.001007730682094461,12730.100071178991
0.0010472898382363582,13162.79010609743
0.0010884019160690055,13608.445669945813
0.0011311278765939214,14067.30128388566
0.001175531073878369,14539.582220534028
0.0012216773489967915,15025.496526578858
0.0012696351276599736,15525.240469082035
0.0013194755216767058,16038.99509085623
0.0013712724343984,16566.924331135953
0.0014251026703029975,17109.175625504704
0.0014810460488806749,17665.86997393848
0.0015391855229902056,18237.10613814275
0.001599607301861487,18822.960789433968
0.0016624009789266115,19423.485723774393
0.0017276596646690358,20038.706650940578
0.0017954801246878305,20668.606340728493
0.0018659629231817451,21313.128164099835
0.001939212572065829,21972.180643034524
0.0020153376859417325,22645.631757462867
0.002094451143151469,23333.31072496416
0.002176670253153458,24034.999032567266
0.002262116930469025,24750.428240326666
0.002350917875457286,25479.282644596893
0.002443204762186487,26221.190288859703
0.0025391144336803463,26975.72636281357
0.002638789104828933,27742.41058951998
0.002742376573264949,28520.703612951813
0.0028500304385181063,29310.00820623449
0.0029619103297725525,30109.661019841482
0.0030781821425650787,30918.934301361787
0.003199018284775064,31737.037256977244
0.0033245979322709396,32563.113726354793
0.003455107294592217,33396.24228272047
0.0035907398910610534,34235.42827380653
0.0037316968377327513,35079.604199281974
0.0038781871456107214,35927.6322694393
0.0040304280305680515,36778.29556592784
0.00418864523543527,37630.30587402769
0.004353073364731888,38482.29618086725
0.00452395623253805,39332.81768069398
0.004701547224022131,40180.35460788045
0.004886109671160325,41023.33330875442
0.005077917243205399,41860.120686441296
0.005277254352483535,42688.95597972361
0.005484416576121017,43507.87538080676
0.005699711094326071,44314.860038803694
0.005923457145875801,45108.21433954738
0.006155986501483508,45886.48146676652
0.006397643955748424,46647.87781926987
0.0066487878384172625,47389.4720387945
0.0069097905457156435,48108.024698091955
0.007181039092537346,48800.7773464605
0.007462935686310132,49465.56221584429
0.007755898323389004,50100.25690522869
0.00806036140886134,50702.80819440186
0.008376776400682916,51271.20681047941
0.008705612479099857,51803.22562286262
0.009047357242349292,52296.21905629509
0.00940251742967013,52747.52001095333
0.009771619672696168,53154.429178581486
0.010155211276345676,53514.26125354835
0.010553861030365234,53824.3813277763
0.010968160052731372,54082.16975599013
0.011398722666160517,54285.10680733041
0.011846187309026826,54430.78203642403
0.012311217482038896,54516.91646012955
0.012794502732078732,54541.33516815211
0.013296759674662111,54501.68964931128
0.013818733056536317,54395.73985350518
0.014361196859990781,54221.43405046845
0.014924955450518284,53976.90125850335
0.015510844769528393,53660.5504223862
0.016119733573881575,53270.924157955415
0.01675252472408214,52806.830439568985
0.017410156523040152,52267.42127496245
0.018093604107387147,51652.13413939905
0.01880388089340914,50960.84194948288
0.019542040079740527,50193.848351744986
0.02030917620904734,49351.91740198454
0.021106426791015535,48436.365157579276
0.021934973989050584,47449.17238881235
0.02279604637318978,46392.87897934951
0.023690920741826323,45270.78263195436
0.02462092401494623,44086.97974142915
0.02558743520168586,42846.1092428145
0.02659188744512693,41553.9827462834
0.027635770147361564,40216.989953630946
0.028720631177978267,38842.236054954745
0.029848079169243254,37438.068685221304
0.03101978590138095,36012.834955001985
0.03223748878149028,34576.02133206498
0.0335029934197723,33137.50852517328
0.03481817630688963,31706.92767823791
0.03618498759642746,30295.120529332704
0.037605453996581675,28912.006579333563
0.03908168177536263,27567.11522175457
0.04061585988376978,26269.599391766056
0.04221026320156896,25027.339762117495
0.04386725591048496,23849.11436410577
0.0455892949998106,22742.67387537163
0.047378933909631396,21711.23198299188
0.049238826317067365,20752.03075051019
0.05117173007114603,19861.91937057618
0.05318051128214196,19039.56152128854
0.05526814857144601,18284.534456428595
0.057437737488265785,17592.0446989468
0.0596924950997073,16944.97317015374
0.0620357647610427,16326.273494441746
0.06447102107323864,15725.565502328203
0.06700187503509585,15137.023360499546
0.06963207939763882,14549.162773741604
0.0723655342286965,13942.763979325475
0.07520629269592405,13303.200792509839
0.07815856707684081,12622.796677445569
0.08122673500479707,11902.627602724373
0.08441534596012978,11153.54788237418
0.0877291280161335,10391.747237130458
0.09117299484984914,9636.477072455591
0.09475205302806537,8909.01941117225
0.09847160957933764,8225.56492635643
0.1023371798632519,7597.064495261154
0.10635449574860109,7044.784307798284
0.11052951411260206,6581.335339385076
0.1148684256737553,6203.0798128663555
0.1193776641714435,5895.465714876065
0.1240639159058831,5632.025251805577
0.12893412965257148,5384.404859480777
0.13399552696593373,5127.960534232999
0.1392556128874462,4845.941735174522
0.14472218707411338,4532.7940492244525
0.15040335536380234,4194.921282503675
0.15630754179458153,3847.4399477369266
0.16244350109588662,3509.3623323373886
0.16882033167003618,3206.1289068747815
0.17544748908334581,2957.646949786782
0.1823348000868439,2760.5484379001327
0.189492477187382,2598.106810664104
0.19693113379074215,2454.4541518095807
0.20466179993919872,2308.796911291601
0.21269593866686892,2146.8796630726674
0.22104546299710207,1974.959985939486
0.22972275360711503,1806.595687703162
0.23874067718606454,1655.064921485233
0.2481126055137766,1527.9176235984382
0.25785243528842716,1421.6706305778423
0.26797460873256895,1326.3896563571939
0.27849413500806414,1230.639903737901
0.28942661247167484,1133.2852110669933
0.3007882518043098,1039.6130227641788
0.31259590004822796,955.3892083609602
0.324867065587837,882.1657807211271
0.3376199441111335,815.8689577331643
0.35087344559027084,752.59561978297
0.36464722232127456,691.4990413145208
0.37896169806447155,635.1315031822547
0.3938380983288488,584.2787454531816
0.4092984818452433,537.8531171782367
0.4253657732750382,494.31074139415887
0.44206379720285277,453.7083500684692
0.45941731346364734,416.50003671643617
0.47745205385661277,382.3798732447952
0.4961947603002895,350.81347988258887
0.5156732244854959,321.6329857221167
0.5359163290848509,294.83790347723
0.556954090580013,270.1972615652661
0.5788177037701272,247.49039312237412
0.6015395880274836,226.62202146910556
0.6251534353689703,207.45234352938152
0.6496942604146115,189.82955428703823
0.6751984523072497,173.64819397804098
0.7017038286703824,158.78866766710127
0.7292496916841444,145.15164355663725
0.7578768863625915,132.6395612414515
0.7876278611187046,121.1660594573936
0.8185467307069019,110.65071901558127
0.850679341636415,101.01755574642006
0.8840733401525058,92.19648228939049
0.9187782428863317,84.12156735259622
0.9548455102782278,76.73197416639019
0.9923286228832539,69.97161547102
1.0312831606721837,63.788801750333754
1.0717668854455022,58.135960648302586
1.1138398264826193,52.96943385347814
1.1575643695533022,48.24901012645744
1.2030053494233226,43.9376285586231
1.2502301459914542,40.0011499723369
1.299308784200415,36.408142183959136
1.3503140378698726,33.12965396569012
1.4033215376054824,30.139034841521024
1.4584098829439835,27.411798691754182
1.5156607589006013,24.925459440510785
1.575159057091621,22.659376146907785
1.6369930016117014,20.594608854849085
1.7012542798525885,18.713783390594166
1.7680381784572046,17.000970151888456
1.8374437246107238,15.441570656632203
1.9095738328780953,14.022211319172388
1.9845354578058014,12.73064518065423
2.0624397525140905,11.555659461109371
2.143402233514853,10.486990887368405
2.227542951999554,9.51525181566377
2.314986671851158,8.631858780538828
2.405863054644063,7.82896618103535
2.5003068519063225,7.099404958773719
2.598458104929248,6.436624169984977
2.7004623524206774,5.834640990899037
2.806470846309834,5.287994855362481
2.916640776023701,4.791703316088939
3.031135501567576,4.341221459759095
3.150124795755327,3.9324049205268596
3.2737850959485697,3.5614761502621533
3.4022997656780634,3.2249920132127428
3.5358593665351745,2.91981485356856
3.6746619407366854,2.6430861832267722
3.8189133047818515,2.3922025187171463
3.968827354637162,2.164792443811549
4.1246263829013445,1.9586966733791773
4.286541408420921,1.7719505658384223
4.4548125188449825,1.6027670390341144
4.629689226627261,1.4495208932354222
4.811430839003257,1.3107344815133797
5.000306842491082,1.1850646185667566
5.196597302486189,1.0712906076262936
5.400593278542364,0.968303309383889
5.612597255954967,0.8750951643150652
5.8329235942862,0.7907510840002417
6.06189899349756,0.7144400804872857
6.29986297838068,0.6454076694158913
6.547168402004727,0.5829690734603845
6.804181968927091,0.5265029149853359
7.071284778942991,0.4754454554038895
7.348872892180382,0.42928534549638475
7.637357916378006,0.38755883591116586
7.937167617217536,0.34984543145247765
8.248746552614573,0.3157639334954774
8.572556731909314,0.2849688304949515
8.909078300934132,0.2571470132771777
9.258810253973934,0.23201475004587635
9.622271173675122,0.20931492010369382
9.999999999999984,0.18881466012571432
