k [1/Mpc],P(k) [Mpc^3]
0.0001,626.8531775093084
0.00010392556829367125,653.3129475424938
0.00010800523745162529,680.8869541117875
0.00011224505680853065,709.6217840499843
0.00011665131316981963,739.5659535612866
0.00012123054013376525,770.769973184447
0.00012598952777950273,803.2863676215361
0.00013093533273536104,837.1697858187297
0.00013607528864243335,872.4771111579169
0.00014141701702890234,909.2675478847585
0.00014696843861124463,947.6027096281722
0.00015273778503907136,987.5466234509976
0.00015873361110102093,1029.165840143629
0.00016496480740980205,1072.5295839745538
0.0001714406135851971,1117.7098318582598
0.00017817063195457305,1164.7814377274508
0.00018516484179121546,1213.8221327042554
0.000192433614111598,1264.9126044102288
0.00019998772705352857,1318.1367059514762
0.0002078383818579757,1373.5815093481008
0.00021599721947827182,1431.337464771849
0.0002244763378413224,1491.4984297686221
0.0002332883097864157,1554.161684346087
0.00024244620170823283,1619.4281969715705
0.0002519635929317015,1687.4025726104824
0.0002618545958474233,1758.1932398696088
0.0002721338768375308,1831.9126040902456
0.0002828166780230032,1908.677012359411
0.0002939188398646886,1988.6070319661278
0.0003054568246515432,2071.8272695915903
0.00031744774091091926,2158.46647769312
0.00032990936877709396,2248.657880809914
0.00034286018635565856,2342.53901407473
0.00035631939712285854,2440.2520488968316
0.000370306958400514,2541.943674434812
0.00038484361094874304,2647.765019922219
0.0003999509097203664,2757.872065500046
0.00041565125582259895,2872.4252016367036
0.00043196792973341727,2991.58957544216
0.0004489251258218605,3115.5351564996126
0.0004665479882234472,3244.436411337426
0.000484862648123908,3378.472803375227
0.000503896262506515,3517.828269610404
0.0005236770544204653,3662.691345377451
0.0005442343548300266,3813.2553794456358
0.0005655986461065005,3969.717812912753
0.0005878016072274912,4132.280767475654
0.0006108761607505036,4301.150355978039
0.0006348565216305217,4476.536365300854
0.0006597782479539537,4658.6528509592645
0.0006856782936641739,4847.717127678353
0.0007125950633568407,5043.950185939144
0.0007405684692262436,5247.575735623742
0.0007696399902471156,5458.818863441024
0.0007998527336796708,5677.9073015841095
0.000831251498989063,5905.069778028488
0.0008638828442740447,6140.5361458740645
0.000897795155303332,6384.536617085499
0.0009330387172620361,6637.298633146466
0.0009696657893145519,6899.04891564237
0.001007730682094461,7170.011456190613
0.0010472898382363582,7450.406730120156
0.0010884019160690055,7740.451745193388
0.0011311278765939214,8040.355300795341
0.001175531073878369,8350.319930009246
0.0012216773489967915,8670.540238708454
0.0012696351276599736,9001.200641581165
0.0013194755216767058,9342.476761495114
0.0013712724343984,9694.534046678742
0.0014251026703029975,10057.526863427487
0.0014810460488806749,10431.59273310542
0.0015391855229902056,10816.843834963176
0.001599607301861487,11213.373871075748
0.0016624009789266115,11621.258287127846
0.0017276596646690358,12040.552737559081
0.0017954801246878305,12471.289304849295
0.0018659629231817451,12913.468833478119
0.001939212572065829,13367.06413811982
0.0020153376859417325,13832.018594231373
0.002094451143151469,14308.243941700204
0.002176670253153458,14795.61891768207
0.002262116930469025,15293.982322900089
0.002350917875457286,15803.134151872106
0.002443204762186487,16322.834383539112
0.0025391144336803463,16852.799676868417
0.002638789104828933,17392.703609408854
0.002742376573264949,17942.17196846976
0.0028500304385181063,18500.782113238354
0.0029619103297725525,19068.063379990723
0.0030781821425650787,19643.495495077954
0.003199018284775064,20226.50753135458
0.0033245979322709396,20816.47472290158
0.003455107294592217,21412.71737147713
0.0035907398910610534,22014.502490371884
0.0037316968377327513,22621.04517287601
0.0038781871456107214,23231.50718080591
0.0040304280305680515,23845.000538946955
0.00418864523543527,24460.59048240798
0.004353073364731888,25077.280431699623
0.00452395623253805,25693.93417557608
0.004701547224022131,26309.312233037555
0.004886109671160325,26922.224185546118
0.005077917243205399,27531.698334945122
0.005277254352483535,28136.743776683903
0.005484416576121017,28735.804988299864
0.005699711094326071,29326.830800009437
0.005923457145875801,29907.80249979746
0.006155986501483508,30477.167890689325
0.006397643955748424,31033.479667662596
0.0066487878384172625,31575.337163134303
0.0069097905457156435,32101.41031087875
0.007181039092537346,32610.325980936967
0.007462935686310132,33100.38011713405
0.007755898323389004,33569.724610724385
0.00806036140886134,34016.49284136521
0.008376776400682916,34438.79883127243
0.008705612479099857,34834.76386337065
0.009047357242349292,35202.52502704227
0.00940251742967013,35540.24768122177
0.009771619672696168,35846.17239952353
0.010155211276345676,36118.69657811366
0.010553861030365234,36356.29779534441
0.010968160052731372,36557.326841022994
0.011398722666160517,36720.01581262572
0.011846187309026826,36842.7059786981
0.012311217482038896,36923.95450812347
0.012794502732078732,36962.47844618709
0.013296759674662111,36957.0628000847
0.013818733056536317,36906.53344147228
0.014361196859990781,36809.87929100861
0.014924955450518284,36666.30621842403
0.015510844769528393,36475.23225955892
0.016119733573881575,36236.28160190104
0.01675252472408214,35949.2952249625
0.017410156523040152,35614.34470393317
0.018093604107387147,35231.84348321734
0.01880388089340914,34802.52384802446
0.019542040079740527,34327.40280027715
0.02030917620904734,33807.9423390426
0.021106426791015535,33245.86946837139
0.021934973989050584,32643.365275456395
0.02279604637318978,32003.095306927906
0.023690920741826323,31327.932488115577
0.02462092401494623,30621.32105390705
0.02558743520168586,29886.92264890865
0.02659188744512693,29128.706182265985
0.027635770147361564,28351.196563021975
0.028720631177978267,27558.82985058891
0.029848079169243254,26756.07091746697
0.03101978590138095,25947.2745467581
0.03223748878149028,25136.907711955024
0.0335029934197723,24330.354814914277
0.03481817630688963,23532.66350368111
0.03618498759642746,22747.27203869155
0.037605453996581675,21976.174647174124
0.03908168177536263,21220.765840757773
0.04061585988376978,20480.656642658694
0.04221026320156896,19755.011530856926
0.04386725591048496,19044.00192957696
0.0455892949998106,18349.15531980736
0.047378933909631396,17671.311539073762
0.049238826317067365,17006.007770208318
0.05117173007114603,16346.784276573933
0.05318051128214196,15690.093028363424
0.05526814857144601,15037.729327771216
0.057437737488265785,14391.84712810062
0.0596924950997073,13750.372130645326
0.0620357647610427,13108.549727810394
0.06447102107323864,12465.17676088148
0.06700187503509585,11826.86368660108
0.06963207939763882,11201.152636984056
0.0723655342286965,10597.732875581107
0.07520629269592405,10024.997491588312
0.07815856707684081,9483.99431201461
0.08122673500479707,8973.042013578088
0.08441534596012978,8492.976920671515
0.0877291280161335,8045.372869672082
0.09117299484984914,7631.8112007726695
0.09475205302806537,7247.67145717445
0.09847160957933764,6880.878349193614
0.1023371798632519,6519.603044933587
0.10635449574860109,6157.383746855628
0.11052951411260206,5795.447653211018
0.1148684256737553,5437.787986925171
0.1193776641714435,5092.836870484522
0.1240639159058831,4767.856661157049
0.12893412965257148,4463.811739977467
0.13399552696593373,4180.655420906994
0.1392556128874462,3920.472234117124
0.14472218707411338,3683.5484586068515
0.15040335536380234,3457.903759852485
0.15630754179458153,3239.809297038226
0.16244350109588662,3030.055449652793
0.16882033167003618,2828.1104411259803
0.17544748908334581,2635.4199550148155
0.1823348000868439,2456.6826689573654
0.189492477187382,2291.5150712982995
0.19693113379074215,2137.3563794408683
0.20466179993919872,1992.332618774085
0.21269593866686892,1855.1304127624098
0.22104546299710207,1725.8801155137207
0.22972275360711503,1604.0303646488437
0.23874067718606454,1490.8972653658097
0.2481126055137766,1385.1910460546574
0.25785243528842716,1286.3464783281365
0.26797460873256895,1193.711773881984
0.27849413500806414,1107.1720352437153
0.28942661247167484,1026.4138899879188
0.3007882518043098,951.1521916255173
0.31259590004822796,880.9934149992529
0.324867065587837,815.5759769676
0.3376199441111335,754.676104235888
0.35087344559027084,698.0014694052893
0.36464722232127456,645.2890371102683
0.37896169806447155,596.2937454191743
0.3938380983288488,550.7733743144048
0.4092984818452433,508.51482416045064
0.4253657732750382,469.31221660676874
0.44206379720285277,432.9633918892281
0.45941731346364734,399.2838525421322
0.47745205385661277,368.0924862166779
0.4961947603002895,339.21863031259346
0.5156732244854959,312.5037135351735
0.5359163290848509,287.7874602732967
0.556954090580013,264.924735388895
0.5788177037701272,243.79226245337898
0.6015395880274836,224.25779008434145
0.6251534353689703,206.21134957994843
0.6496942604146115,189.5533419569966
0.6751984523072497,174.185266138364
0.7017038286703824,160.01578428788403
0.7292496916841444,146.9586621005381
0.7578768863625915,134.92951519984223
0.7876278611187046,123.84801111287095
0.8185467307069019,113.64043881922053
0.850679341636415,104.23996543334225
0.8840733401525058,95.58721532222741
0.9187782428863317,87.62982218195408
0.9548455102782278,80.31431703537058
0.9923286228832539,73.59060902764281
1.0312831606721837,67.4123825479928
1.0717668854455022,61.73682287808094
1.1138398264826193,56.524380596869584
1.1575643695533022,51.73871226081079
1.2030053494233226,47.34630654915363
1.2502301459914542,43.31613720490375
1.299308784200415,39.61949154316389
1.3503140378698726,36.22981145399764
1.4033215376054824,33.1225242182137
1.4584098829439835,30.2748777686785
1.5156607589006013,27.665868299149807
1.575159057091621,25.2761230919416
1.6369930016117014,23.087780392887677
1.7012542798525885,21.08437837946026
1.7680381784572046,19.250763487792394
1.8374437246107238,17.57298569386364
1.9095738328780953,16.038195494590127
1.9845354578058014,14.634561391874518
2.0624397525140905,13.351193474967465
2.143402233514853,12.178067046027685
2.227542951999554,11.105944925125467
2.314986671851158,10.126336765360838
2.405863054644063,9.231445842131482
2.5003068519063225,8.41411430648993
2.598458104929248,7.667772720802866
2.7004623524206774,6.986396801402302
2.806470846309834,6.364463011409864
2.916640776023701,5.796904018972576
3.031135501567576,5.279072173306484
3.150124795755327,4.806705994163897
3.2737850959485697,4.375898933148742
3.4022997656780634,3.9830697891333715
3.5358593665351745,3.624937746742307
3.6746619407366854,3.298498470713148
3.8189133047818515,3.0010015086330726
3.968827354637162,2.7299294564930645
4.1246263829013445,2.4829780935103742
4.286541408420921,2.2580387264289357
4.4548125188449825,2.053183124969699
4.629689226627261,1.8666485429164998
4.811430839003257,1.6968238572581147
5.000306842491082,1.5422368618749365
5.196597302486189,1.4015427222916925
5.400593278542364,1.2735130646089758
5.612597255954967,1.157026031823286
5.8329235942862,1.0510572598039234
6.06189899349756,0.9546715972602046
6.29986297838068,0.8670155447366164
6.547168402004727,0.7873103040584134
6.804181968927091,0.714845311531841
7.071284778942991,0.6489723807296213
7.348872892180382,0.589100343558331
7.637357916378006,0.5346901021858561
7.937167617217536,0.4852498085458573
8.248746552614573,0.44033104445739135
8.572556731909314,0.3995252993343502
8.909078300934132,0.3624604755008371
9.258810253973934,0.328797691205971
9.622271173675122,0.29822851951869495
9.999999999999984,0.2704724968286381
