k [1/Mpc],P(k) [Mpc^3]
0.0001,124.60988902182353
0.00010392556829367125,130.24850206513054
0.00010800523745162529,136.14200507408145
0.00011224505680853065,142.3018790324707
0.00011665131316981963,148.740119416216
0.00012123054013376525,155.46926412124293
0.00012598952777950273,162.50241464394213
0.00013093533273536104,169.85325541946565
0.00013607528864243335,177.53607624164098
0.00014141701702890234,185.56580369006585
0.00014696843861124463,193.95802273896234
0.00015273778503907136,202.7290080505734
0.00015873361110102093,211.89575555506298
0.00016496480740980205,221.47600909152425
0.0001714406135851971,231.4882977146973
0.00017817063195457305,241.9519614849211
0.00018516484179121546,252.8871863238511
0.000192433614111598,264.3150478317429
0.00019998772705352857,276.25754820243026
0.0002078383818579757,288.7376570181208
0.00021599721947827182,301.7793309801182
0.0002244763378413224,315.4075433984534
0.0002332883097864157,329.6483522123625
0.00024244620170823283,344.5289396583209
0.0002519635929317015,360.0776631495118
0.0002618545958474233,376.3240858384087
0.0002721338768375308,393.29899520580494
0.0002828166780230032,411.0344903305973
0.0002939188398646886,429.5640309944212
0.0003054568246515432,448.9224943500593
0.00031744774091091926,469.146217715629
0.00032990936877709396,490.2729951226676
0.00034286018635565856,512.3421855985196
0.00035631939712285854,535.394758563133
0.000370306958400514,559.473345849088
0.00038484361094874304,584.6223190189278
0.0003999509097203664,610.8877592250775
0.00041565125582259895,638.3175751286968
0.00043196792973341727,666.9615773998235
0.0004489251258218605,696.871517002809
0.0004665479882234472,728.101183677814
0.000484862648123908,760.7063476224628
0.000503896262506515,794.7448625006944
0.0005236770544204653,830.276774504655
0.0005442343548300266,867.3643142281215
0.0005655986461065005,906.0720358605126
0.0005878016072274912,946.4667828187463
0.0006108761607505036,988.6177412370095
0.0006348565216305217,1032.596561136691
0.0006597782479539537,1078.4772218163273
0.0006856782936641739,1126.33622796149
0.0007125950633568407,1176.2526273702233
0.0007405684692262436,1228.3079944692447
0.0007696399902471156,1282.586580320471
0.0007998527336796708,1339.1750624089386
0.000831251498989063,1398.1627110531304
0.0008638828442740447,1459.6414141801802
0.000897795155303332,1523.7054438671166
0.0009330387172620361,1590.451749119388
0.0009696657893145519,1659.9796345197303
0.001007730682094461,1732.3907880004913
0.0010472898382363582,1807.789334175009
0.0010884019160690055,1886.2811149783415
0.0011311278765939214,1967.9741865671085
0.001175531073878369,2052.9785066092904
0.0012216773489967915,2141.405677394703
0.0012696351276599736,2233.3691753974754
0.0013194755216767058,2328.9833183382507
0.0013712724343984,2428.3636192725126
0.0014251026703029975,2531.6266516770706
0.0014810460488806749,2638.8894454792435
0.0015391855229902056,2750.2697323850257
0.001599607301861487,2865.884403536462
0.0016624009789266115,2985.8495350418702
0.0017276596646690358,3110.2806066732255
0.0017954801246878305,3239.2914022707046
0.0018659629231817451,3372.994313063981
0.001939212572065829,3511.498883198418
0.0020153376859417325,3654.9111409065836
0.002094451143151469,3803.334025785145
0.002176670253153458,3956.8659635121976
0.002262116930469025,4115.600927790328
0.002350917875457286,4279.627156520009
0.002443204762186487,4449.025714310819
0.0025391144336803463,4623.870992237463
0.002638789104828933,4804.228511443334
0.002742376573264949,4990.154768780517
0.0028500304385181063,5181.696522513813
0.0029619103297725525,5378.888596840507
0.0030781821425650787,5581.754385425235
0.003199018284775064,5790.302904591352
0.0033245979322709396,6004.527908623691
0.003455107294592217,6224.408304125497
0.0035907398910610534,6449.905672299002
0.0037316968377327513,6680.964418899412
0.0038781871456107214,6917.507646568922
0.0040304280305680515,7159.43441276393
0.00418864523543527,7406.622770513967
0.004353073364731888,7658.929310043291
0.00452395623253805,7916.18803763159
0.004701547224022131,8178.197155874969
0.004886109671160325,8444.702806593828
0.005077917243205399,8715.421851573017
0.005277254352483535,8990.094825233136
0.005484416576121017,9268.475888130182
0.005699711094326071,9550.245014703904
0.005923457145875801,9834.86719848068
0.006155986501483508,10121.721910823799
0.006397643955748424,10410.25777421348
0.0066487878384172625,10700.01878206296
0.0069097905457156435,10990.499354117004
0.007181039092537346,11280.989210178379
0.007462935686310132,11570.670195238752
0.007755898323389004,11858.739095903107
0.00806036140886134,12144.46331451031
0.008376776400682916,12427.076957938389
0.008705612479099857,12705.642703295061
0.009047357242349292,12979.102410647714
0.00940251742967013,13246.344033508327
0.009771619672696168,13506.186047050032
0.010155211276345676,13757.403367427225
0.010553861030365234,13998.687863571855
0.010968160052731372,14228.656954881897
0.011398722666160517,14445.888911117643
0.011846187309026826,14648.874726026359
0.012311217482038896,14836.076537021345
0.012794502732078732,15005.881386012885
0.013296759674662111,15156.579000131187
0.013818733056536317,15286.462058318864
0.014361196859990781,15393.741702814441
0.014924955450518284,15476.632070727645
0.015510844769528393,15533.365280079423
0.016119733573881575,15562.135657412715
0.01675252472408214,15561.242171725193
0.017410156523040152,15529.004793938131
0.018093604107387147,15463.835335505637
0.01880388089340914,15364.330986971261
0.019542040079740527,15229.197390829835
0.02030917620904734,15057.409876052396
0.021106426791015535,14848.210775254043
0.021934973989050584,14601.13633401648
0.02279604637318978,14316.134498540769
0.023690920741826323,13993.589071789493
0.02462092401494623,13634.345212912443
0.02558743520168586,13239.817264108015
0.02659188744512693,12812.049379465576
0.027635770147361564,12353.573548120787
0.028720631177978267,11867.757224573203
0.029848079169243254,11358.506359985147
0.03101978590138095,10830.236494100454
0.03223748878149028,10288.32248021116
0.0335029934197723,9738.146750777869
0.03481817630688963,9185.87510052415
0.03618498759642746,8638.020686858177
0.037605453996581675,8100.622457655091
0.03908168177536263,7580.562479039763
0.04061585988376978,7083.7955500822645
0.04221026320156896,6615.950146389213
0.04386725591048496,6182.662909213662
0.0455892949998106,5788.011969356665
0.047378933909631396,5435.476111355544
0.049238826317067365,5127.657033559564
0.05117173007114603,4866.238989194026
0.05318051128214196,4652.454695169776
0.05526814857144601,4486.0056222824505
0.057437737488265785,4361.748189259002
0.0596924950997073,4274.341880738086
0.0620357647610427,4218.465130606429
0.06447102107323864,4188.391889019973
0.06700187503509585,4175.338363916587
0.06963207939763882,4168.5950757783885
0.0723655342286965,4154.576909977938
0.07520629269592405,4118.391810432011
0.07815856707684081,4045.364987943498
0.08122673500479707,3924.503153987163
0.08441534596012978,3749.734793731037
0.0877291280161335,3521.4730229267025
0.09117299484984914,3247.846660089733
0.09475205302806537,2942.7326426114546
0.09847160957933764,2625.329283251184
0.1023371798632519,2317.064892403307
0.10635449574860109,2039.9199282154996
0.11052951411260206,1811.3965675583217
0.1148684256737553,1641.9763066107632
0.1193776641714435,1534.3741773927018
0.1240639159058831,1483.6977674884781
0.12893412965257148,1478.4657845099803
0.13399552696593373,1500.955798309841
0.1392556128874462,1527.9020718774407
0.14472218707411338,1533.2273047959661
0.15040335536380234,1493.44444142922
0.15630754179458153,1396.5138526919163
0.16244350109588662,1250.8880956705125
0.16882033167003618,1084.3847640953543
0.17544748908334581,930.0487844098293
0.1823348000868439,812.7672421609625
0.189492477187382,745.1482237823141
0.19693113379074215,725.1729918393142
0.20466179993919872,734.8654919805459
0.21269593866686892,746.1283713075546
0.22104546299710207,730.9839966598215
0.22972275360711503,675.4391912811515
0.23874067718606454,591.3548031265547
0.2481126055137766,507.6604718752401
0.25785243528842716,450.3997743182494
0.26797460873256895,427.1995416644895
0.27849413500806414,425.3251857562505
0.28942661247167484,421.0713327593602
0.3007882518043098,394.85212706547065
0.31259590004822796,349.7242093031068
0.324867065587837,306.39791414262805
0.3376199441111335,281.3779981125367
0.35087344559027084,272.50236432656664
0.36464722232127456,263.69626518170685
0.37896169806447155,243.1420126219162
0.3938380983288488,216.45050595204853
0.4092984818452433,196.9156699197906
0.4253657732750382,186.8897785179538
0.44206379720285277,177.12817222122092
0.45941731346364734,161.84172094949568
0.47745205385661277,146.55232573986532
0.4961947603002895,136.4927507004478
0.5156732244854959,128.12147098999446
0.5359163290848509,117.55597070681507
0.556954090580013,107.52628296979437
0.5788177037701272,100.01262059322355
0.6015395880274836,92.614403791285
0.6251534353689703,84.90559444534148
0.6496942604146115,78.40115933508288
0.6751984523072497,72.56997818096445
0.7017038286703824,67.02222990086744
0.7292496916841444,61.767533682702414
0.7578768863625915,56.83779319602368
0.7876278611187046,52.252342622647916
0.8185467307069019,48.01998147847564
0.850679341636415,44.13965843839061
0.8840733401525058,40.587351446470954
0.9187782428863317,37.32850251685693
0.9548455102782278,34.332775518261954
0.9923286228832539,31.573747246317396
1.0312831606721837,29.02836587923469
1.0717668854455022,26.677314119474353
1.1138398264826193,24.506871840639775
1.1575643695533022,22.50502746001705
1.2030053494233226,20.660305226357707
1.2502301459914542,18.961778368082236
1.299308784200415,17.399070889765095
1.3503140378698726,15.962065786378993
1.4033215376054824,14.6408490136807
1.4584098829439835,13.426239826455173
1.5156607589006013,12.309781904674441
1.575159057091621,11.283685740839335
1.6369930016117014,10.340782256246447
1.7012542798525885,9.474537261394861
1.7680381784572046,8.678954534301253
1.8374437246107238,7.948482711219249
1.9095738328780953,7.2779839781976
1.9845354578058014,6.662705573724857
2.0624397525140905,6.098249303715396
2.143402233514853,5.580537992044359
2.227542951999554,5.105806635541418
2.314986671851158,4.670583235465675
2.405863054644063,4.271666961844963
2.5003068519063225,3.9061078607936026
2.598458104929248,3.5711882335447314
2.7004623524206774,3.264405121956134
2.806470846309834,2.9834536419334117
2.916640776023701,2.726211898174382
3.031135501567576,2.4907270193007798
3.150124795755327,2.2752021664795663
3.2737850959485697,2.0779842063783525
3.4022997656780634,1.8975528782062072
3.5358593665351745,1.73251072366674
3.6746619407366854,1.5815735039345027
3.8189133047818515,1.4435613297895789
3.968827354637162,1.317390413704502
4.1246263829013445,1.202065402922966
4.286541408420921,1.096672528134531
4.4548125188449825,1.000373150900242
4.629689226627261,0.9123977677045031
4.811430839003257,0.8320404730665325
5.000306842491082,0.7586537767533087
5.196597302486189,0.6916439024982411
5.400593278542364,0.6304665592749092
5.612597255954967,0.5746229310425649
5.8329235942862,0.5236559738676236
6.06189899349756,0.4771469994977625
6.29986297838068,0.43471249460650224
6.547168402004727,0.39600127078227537
6.804181968927091,0.36069183111762565
7.071284778942991,0.3284899171073962
7.348872892180382,0.2991262524497893
7.637357916378006,0.2723544380950855
7.937167617217536,0.24794899977325838
8.248746552614573,0.22570373689348236
8.572556731909314,0.20543012514113104
8.909078300934132,0.18695582945787284
9.258810253973934,0.17012334275274063
9.622271173675122,0.15478882987645673
9.999999999999984,0.14082095295580152
