k [1/Mpc],P(k) [Mpc^3]
0.0001,933.005191618426
0.00010392556829367125,966.8114268140228
0.00010800523745162529,1001.8406318611163
0.00011224505680853065,1038.136764476556
0.00011665131316981963,1075.7453697019296
0.00012123054013376525,1114.7136917391604
0.00012598952777950273,1155.0906728260734
0.00013093533273536104,1196.9268916737342
0.00013607528864243335,1240.2746123964869
0.00014141701702890234,1285.1879460886082
0.00014696843861124463,1331.7229561575382
0.00015273778503907136,1379.9376966162959
0.00015873361110102093,1429.8921978262613
0.00016496480740980205,1481.648494429653
0.0001714406135851971,1535.2707776240932
0.00017817063195457305,1590.8254689142345
0.00018516484179121546,1648.3812979667487
0.000192433614111598,1708.0093355763988
0.00019998772705352857,1769.7830095339023
0.0002078383818579757,1833.7782481240135
0.00021599721947827182,1900.073393489285
0.0002244763378413224,1968.7493142689368
0.0002332883097864157,2039.8896383930892
0.00024244620170823283,2113.580921440365
0.0002519635929317015,2189.9126531645534
0.0002618545958474233,2268.976978307819
0.0002721338768375308,2350.8687136200633
0.0002828166780230032,2435.685769417454
0.0002939188398646886,2523.529310888257
0.0003054568246515432,2614.5038134492297
0.00031744774091091926,2708.716852994948
0.00032990936877709396,2806.278986291411
0.00034286018635565856,2907.3041698986885
0.00035631939712285854,3011.9095922844963
0.000370306958400514,3120.2158769643725
0.00038484361094874304,3232.3472052810716
0.0003999509097203664,3348.431224889056
0.00041565125582259895,3468.599301559105
0.00043196792973341727,3592.9860921597115
0.0004489251258218605,3721.7296702928943
0.0004665479882234472,3854.9718359414005
0.000484862648123908,3992.857740757418
0.000503896262506515,4135.53631057099
0.0005236770544204653,4283.1599618361615
0.0005442343548300266,4435.884505468007
0.0005655986461065005,4593.869514444542
0.0005878016072274912,4757.2776461597805
0.0006108761607505036,4926.27509466508
0.0006348565216305217,5101.031461168658
0.0006597782479539537,5281.719366064496
0.0006856782936641739,5468.5149121057975
0.0007125950633568407,5661.596494670544
0.0007405684692262436,5861.145164495638
0.0007696399902471156,6067.344822959328
0.0007998527336796708,6280.381354263954
0.000831251498989063,6500.443291705239
0.0008638828442740447,6727.720384617726
0.000897795155303332,6962.403468222204
0.0009330387172620361,7204.684960489078
0.0009696657893145519,7454.756975484099
0.001007730682094461,7712.812373836304
0.0010472898382363582,7979.042603547567
0.0010884019160690055,8253.636343582788
0.0011311278765939214,8536.781456631108
0.001175531073878369,8828.662750379584
0.0012216773489967915,9129.462630450706
0.0012696351276599736,9439.35911875185
0.0013194755216767058,9758.522713584534
0.0013712724343984,10087.119219311386
0.0014251026703029975,10425.306966785602
0.0014810460488806749,10773.236848413331
0.0015391855229902056,11131.051358719698
0.001599607301861487,11498.879832416578
0.0016624009789266115,11876.841339569604
0.0017276596646690358,12265.04029742913
0.0017954801246878305,12663.565160895667
0.0018659629231817451,13072.490244803796
0.001939212572065829,13491.871026436456
0.0020153376859417325,13921.745701195196
0.002094451143151469,14362.130827213414
0.002176670253153458,14813.0176194438
0.002262116930469025,15274.375531247946
0.002350917875457286,15746.148119821306
0.002443204762186487,16228.253319926787
0.0025391144336803463,16720.58050001338
0.002638789104828933,17222.985014005004
0.002742376573264949,17735.29180109216
0.0028500304385181063,18257.290613814537
0.0029619103297725525,18788.735519085225
0.0030781821425650787,19329.34481234653
0.003199018284775064,19878.795845732137
0.0033245979322709396,20436.727147695095
0.003455107294592217,21002.73077540569
0.0035907398910610534,21576.349927176147
0.0037316968377327513,22157.083107815237
0.0038781871456107214,22744.3757211582
0.0040304280305680515,23337.62436821009
0.00418864523543527,23936.170163540646
0.004353073364731888,24539.29210416284
0.00452395623253805,25146.21776877016
0.004701547224022131,25756.121378743526
0.004886109671160325,26368.124937735694
0.005077917243205399,26981.27281353858
0.005277254352483535,27594.491562173953
0.005484416576121017,28206.649291092956
0.005699711094326071,28816.686336754978
0.005923457145875801,29423.598878919638
0.006155986501483508,30026.228770246067
0.006397643955748424,30622.915171577897
0.0066487878384172625,31211.821014573907
0.0069097905457156435,31791.23418605723
0.007181039092537346,32359.61921065881
0.007462935686310132,32915.42110628455
0.007755898323389004,33457.08269672863
0.00806036140886134,33983.031815899885
0.008376776400682916,34491.54347751029
0.008705612479099857,34980.63936489789
0.009047357242349292,35448.286602627624
0.00940251742967013,35892.369525356284
0.009771619672696168,36310.7256156395
0.010155211276345676,36701.175789943896
0.010553861030365234,37061.50946334119
0.010968160052731372,37389.52796086676
0.011398722666160517,37682.97926800934
0.011846187309026826,37939.585110325024
0.012311217482038896,38157.09458766202
0.012794502732078732,38333.18812860272
0.013296759674662111,38465.60538446528
0.013818733056536317,38552.11339296725
0.014361196859990781,38590.503969344725
0.014924955450518284,38578.71358008374
0.015510844769528393,38514.768514161886
0.016119733573881575,38396.87231540093
0.01675252472408214,38223.41792834322
0.017410156523040152,37992.96482236994
0.018093604107387147,37704.36218931275
0.01880388089340914,37356.78596239624
0.019542040079740527,36949.7620606182
0.02030917620904734,36483.22960182159
0.021106426791015535,35957.63598105017
0.021934973989050584,35373.85441689747
0.02279604637318978,34733.42097498786
0.023690920741826323,34038.490901796125
0.02462092401494623,33291.726721236286
0.02558743520168586,32496.789857796633
0.02659188744512693,31657.77458487974
0.027635770147361564,30779.591205379787
0.028720631177978267,29868.07669307116
0.029848079169243254,28929.226014550994
0.03101978590138095,27970.231560138905
0.03223748878149028,26998.47530774273
0.0335029934197723,26021.541817098576
0.03481817630688963,25047.833669361586
0.03618498759642746,24085.111974424017
0.037605453996581675,23141.482318858514
0.03908168177536263,22224.767090638186
0.04061585988376978,21341.652854455413
0.04221026320156896,20497.90387025882
0.04386725591048496,19698.266156099296
0.0455892949998106,18946.42688741209
0.047378933909631396,18245.173111389486
0.049238826317067365,17595.785221187525
0.05117173007114603,16994.752085422842
0.05318051128214196,16437.36016925774
0.05526814857144601,15915.447215135684
0.057437737488265785,15417.286292185485
0.0596924950997073,14932.279909982628
0.0620357647610427,14451.168330112007
0.06447102107323864,13964.79930130418
0.06700187503509585,13462.23996477368
0.06963207939763882,12933.382223211522
0.0723655342286965,12369.262313520405
0.07520629269592405,11765.940841196609
0.07815856707684081,11125.8369828064
0.08122673500479707,10459.973021744576
0.08441534596012978,9784.24939897321
0.0877291280161335,9116.837640911466
0.09117299484984914,8476.816878637052
0.09475205302806537,7882.23701004361
0.09847160957933764,7348.589786518337
0.1023371798632519,6887.4742759922065
0.10635449574860109,6501.565577787649
0.11052951411260206,6184.124605698628
0.1148684256737553,5917.085571228034
0.1193776641714435,5676.243046640155
0.1240639159058831,5435.911610268584
0.12893412965257148,5174.127614371243
0.13399552696593373,4878.775670613238
0.1392556128874462,4552.119843405475
0.14472218707411338,4207.875496456014
0.15040335536380234,3864.97857785238
0.15630754179458153,3546.1086291407396
0.16244350109588662,3274.10886483193
0.16882033167003618,3058.243601365753
0.17544748908334581,2886.4590004575025
0.1823348000868439,2737.6942863226304
0.189492477187382,2592.1324886342627
0.19693113379074215,2431.186927778922
0.20466179993919872,2250.786275062959
0.21269593866686892,2066.4472068160244
0.22104546299710207,1895.6880344763965
0.22972275360711503,1750.9777003754843
0.23874067718606454,1633.7811008663307
0.2481126055137766,1532.2555250336932
0.25785243528842716,1432.3431609264978
0.26797460873256895,1325.9665372647999
0.27849413500806414,1219.1754711813694
0.28942661247167484,1121.2696672324585
0.3007882518043098,1037.5343880448522
0.31259590004822796,964.3349731973442
0.324867065587837,894.4103028467362
0.3376199441111335,824.7339232040787
0.35087344559027084,758.6181218759439
0.36464722232127456,699.4527124861992
0.37896169806447155,646.4362235677546
0.3938380983288488,596.5653961219577
0.4092984818452433,548.9393192214656
0.4253657732750382,505.02575305766055
0.44206379720285277,465.14586191578513
0.45941731346364734,428.16409813877635
0.47745205385661277,393.5600885793477
0.4961947603002895,361.69002265863145
0.5156732244854959,332.4242382351194
0.5359163290848509,305.31494771442385
0.556954090580013,280.2611181300136
0.5788177037701272,257.21371729277604
0.6015395880274836,235.9525837956778
0.6251534353689703,216.3518983082579
0.6496942604146115,198.31165510563568
0.6751984523072497,181.70545123187077
0.7017038286703824,166.42319723323615
0.7292496916841444,152.37567179910238
0.7578768863625915,139.46613483261106
0.7876278611187046,127.60685167196127
0.8185467307069019,116.71651573400396
0.850679341636415,106.71973079784173
0.8840733401525058,97.54661614474928
0.9187782428863317,89.13251599862622
0.9548455102782278,81.41784491406986
0.9923286228832539,74.34742724440184
1.0312831606721837,67.87011999868056
1.0717668854455022,61.9385516291067
1.1138398264826193,56.50887050317944
1.1575643695533022,51.540415996052865
1.2030053494233226,46.99552854359967
1.2502301459914542,42.83946582566499
1.299308784200415,39.040197758981876
1.3503140378698726,35.56820825690502
1.4033215376054824,32.39631706872341
1.4584098829439835,29.49953009867026
1.5156607589006013,26.854844614677685
1.575159057091621,24.441089530474436
1.6369930016117014,22.23878909551224
1.7012542798525885,20.23003540854994
1.7680381784572046,18.398356173179845
1.8374437246107238,16.7286059655664
1.9095738328780953,15.206885505386223
1.9845354578058014,13.820445407328208
2.0624397525140905,12.557595427505628
2.143402233514853,11.407620827505054
2.227542951999554,10.360706382613733
2.314986671851158,9.407862193112477
2.405863054644063,8.540856291151186
2.5003068519063225,7.752153470393886
2.598458104929248,7.034858755407856
2.7004623524206774,6.382663801371408
2.806470846309834,5.789798520389794
2.916640776023701,5.250989380316279
3.031135501567576,4.761418428693022
3.150124795755327,4.316685305651652
3.2737850959485697,3.9127722020085813
3.4022997656780634,3.54601119727856
3.5358593665351745,3.213055254958622
3.6746619407366854,2.9108513611914635
3.8189133047818515,2.6366154848513537
3.968827354637162,2.3878095857629704
4.1246263829013445,2.162120322324524
4.286541408420921,1.9574396016951352
4.4548125188449825,1.7718472776782366
4.629689226627261,1.6035948912242084
4.811430839003257,1.4510907208868646
5.000306842491082,1.3128860735950278
5.196597302486189,1.1876625895527217
5.400593278542364,1.0742209332506496
5.612597255954967,0.9714704279482766
5.8329235942862,0.8784194397242032
6.06189899349756,0.7941665872809297
6.29986297838068,0.7178926882616548
6.547168402004727,0.6488534029977827
6.804181968927091,0.5863725985731568
7.071284778942991,0.5298362378990931
7.348872892180382,0.47868679358041916
7.637357916378006,0.43241813981506844
7.937167617217536,0.3905707666626735
8.248746552614573,0.3527276539094984
8.572556731909314,0.3185105350541789
8.909078300934132,0.287576358850614
9.258810253973934,0.25961406507454143
9.622271173675122,0.2343417432333704
9.999999999999984,0.21150409887795996
