k [1/Mpc],P(k) [Mpc^3]
0.0001,154.99977315375244
0.00010392556829367125,161.08279243490435
0.00010800523745162529,167.40440293814876
0.00011224505680853065,173.973959059934
0.00011665131316981963,180.80118018182392
0.00012123054013376525,187.8961452409627
0.00012598952777950273,195.26931468012296
0.00013093533273536104,202.93156202739038
0.00013607528864243335,210.89420139527616
0.00014141701702890234,219.16899032837526
0.00014696843861124463,227.7681305424665
0.00015273778503907136,236.70428622094576
0.00015873361110102093,245.99061427059578
0.00016496480740980205,255.6407898997322
0.0001714406135851971,265.66902120094227
0.00017817063195457305,276.0900599738688
0.00018516484179121546,286.919219467602
0.000192433614111598,298.1724030905446
0.00019998772705352857,309.8661197722703
0.0002078383818579757,322.01751116747124
0.00021599721947827182,334.6443806163784
0.0002244763378413224,347.76522010510564
0.0002332883097864157,361.39923154612165
0.00024244620170823283,375.5663267297988
0.0002519635929317015,390.2871600029359
0.0002618545958474233,405.5831710134289
0.0002721338768375308,421.4766095948614
0.0002828166780230032,437.99057005589884
0.0002939188398646886,455.14902165211066
0.0003054568246515432,472.9768405530771
0.00031744774091091926,491.4998322850879
0.00032990936877709396,510.74470587741325
0.00034286018635565856,530.7391452250171
0.00035631939712285854,551.5118746463642
0.000370306958400514,573.0927031009435
0.00038484361094874304,595.5125431408206
0.0003999509097203664,618.803379339527
0.00041565125582259895,642.9983304716646
0.00043196792973341727,668.1317127155598
0.0004489251258218605,694.2390557176758
0.0004665479882234472,721.3571680457347
0.000484862648123908,749.5241380518592
0.000503896262506515,778.7793760134421
0.0005236770544204653,809.1636723144736
0.0005442343548300266,840.7191586837254
0.0005655986461065005,873.489413188848
0.0005878016072274912,907.5194924476275
0.0006108761607505036,942.8559563073061
0.0006348565216305217,979.5469399384958
0.0006597782479539537,1017.6420760096789
0.0006856782936641739,1057.192597826504
0.0007125950633568407,1098.2513927588366
0.0007405684692262436,1140.872978743758
0.0007696399902471156,1185.1136225658136
0.0007998527336796708,1231.0312642226259
0.000831251498989063,1278.6855778750153
0.0008638828442740447,1328.1380320253345
0.000897795155303332,1379.451728444931
0.0009330387172620361,1432.6916063631854
0.0009696657893145519,1487.924416088965
0.001007730682094461,1545.2187174875558
0.0010472898382363582,1604.6449586740214
0.0010884019160690055,1666.2751464406372
0.0011311278765939214,1730.1830729376536
0.001175531073878369,1796.444277787597
0.0012216773489967915,1865.1358654946043
0.0012696351276599736,1936.336746272932
0.0013194755216767058,2010.127165147359
0.0013712724343984,2086.5888319712303
0.0014251026703029975,2165.805004031684
0.0014810460488806749,2247.8600479936485
0.0015391855229902056,2332.839778769682
0.001599607301861487,2420.830848307493
0.0016624009789266115,2511.9206137962406
0.0017276596646690358,2606.197503255295
0.0017954801246878305,2703.7504263052065
0.0018659629231817451,2804.669027441355
0.001939212572065829,2909.0430155856407
0.0020153376859417325,3016.9615360309663
0.002094451143151469,3128.5138067689636
0.002176670253153458,3243.788045271823
0.002262116930469025,3362.871679727777
0.002350917875457286,3485.8511806414726
0.002443204762186487,3612.8111097613205
0.0025391144336803463,3743.8345984205166
0.002638789104828933,3879.001740307734
0.002742376573264949,4018.3893862526006
0.0028500304385181063,4162.071628742163
0.0029619103297725525,4310.118582283005
0.0030781821425650787,4462.596697579087
0.003199018284775064,4619.567179497395
0.0033245979322709396,4781.084966160614
0.003455107294592217,4947.199606249068
0.0035907398910610534,5117.953544373812
0.0037316968377327513,5293.382325703139
0.0038781871456107214,5473.513566119151
0.0040304280305680515,5658.365151985829
0.00418864523543527,5847.946179305977
0.004353073364731888,6042.2544515727095
0.00452395623253805,6241.27634313806
0.004701547224022131,6444.986400275022
0.004886109671160325,6653.343961392494
0.005077917243205399,6866.294968319424
0.005277254352483535,7083.770159499504
0.005484416576121017,7305.684057879032
0.005699711094326071,7531.933492134134
0.005923457145875801,7762.385317558737
0.006155986501483508,7996.883422867286
0.006397643955748424,8235.267473666345
0.0066487878384172625,8477.38444807403
0.0069097905457156435,8723.059127832355
0.007181039092537346,8972.016528785045
0.007462935686310132,9223.908574326984
0.007755898323389004,9478.385814390687
0.00806036140886134,9735.15435186471
0.008376776400682916,9993.90954004351
0.008705612479099857,10254.255564969651
0.009047357242349292,10515.7063601609
0.00940251742967013,10777.75525772509
0.009771619672696168,11039.931154023785
0.010155211276345676,11301.755561065564
0.010553861030365234,11562.682394389738
0.010968160052731372,11822.077534800756
0.011398722666160517,12079.269305006535
0.011846187309026826,12333.53835137369
0.012311217482038896,12584.127372585586
0.012794502732078732,12830.243743429373
0.013296759674662111,13071.053137587218
0.013818733056536317,13305.69290775699
0.014361196859990781,13533.257461471672
0.014924955450518284,13752.806253418925
0.015510844769528393,13963.370828260875
0.016119733573881575,14163.929433901129
0.01675252472408214,14353.44151305675
0.017410156523040152,14530.847249938333
0.018093604107387147,14695.07118836056
0.01880388089340914,14845.042209335257
0.019542040079740527,14979.683471372646
0.02030917620904734,15097.934055078951
0.021106426791015535,15198.766418904408
0.021934973989050584,15281.196048534995
0.02279604637318978,15344.293084363087
0.023690920741826323,15387.217978450746
0.02462092401494623,15409.219826139202
0.02558743520168586,15409.65787694203
0.02659188744512693,15388.06581997408
0.027635770147361564,15344.094537318833
0.028720631177978267,15277.622016797977
0.029848079169243254,15188.747977993282
0.03101978590138095,15077.731629368422
0.03223748878149028,14945.185327138252
0.0335029934197723,14791.889810785464
0.03481817630688963,14618.928663882954
0.03618498759642746,14427.774086418547
0.037605453996581675,14219.989070407119
0.03908168177536263,13997.433170951657
0.04061585988376978,13762.085353517
0.04221026320156896,13516.180827582271
0.04386725591048496,13262.576915967167
0.0455892949998106,13004.017514670468
0.047378933909631396,12742.11600645212
0.049238826317067365,12477.645402947011
0.05117173007114603,12211.984328597599
0.05318051128214196,11948.972269175156
0.05526814857144601,11692.674725602035
0.057437737488265785,11444.166826412564
0.0596924950997073,11201.212607629055
0.0620357647610427,10961.489805670071
0.06447102107323864,10722.554738619001
0.06700187503509585,10482.051550762286
0.06963207939763882,10237.461457628187
0.0723655342286965,9986.28776306063
0.07520629269592405,9726.152611696976
0.07815856707684081,9454.812633647542
0.08122673500479707,9169.609288491742
0.08441534596012978,8868.263101772287
0.0877291280161335,8550.908864431498
0.09117299484984914,8219.300799373186
0.09475205302806537,7876.846956892495
0.09847160957933764,7528.910791158297
0.1023371798632519,7182.355924923795
0.10635449574860109,6844.992924545293
0.11052951411260206,6523.574847778145
0.1148684256737553,6223.437006484887
0.1193776641714435,5948.13848054128
0.1240639159058831,5698.854152903376
0.12893412965257148,5472.650413559553
0.13399552696593373,5262.4407600796
0.1392556128874462,5057.614792090024
0.14472218707411338,4847.970263396307
0.15040335536380234,4627.1011286102885
0.15630754179458153,4393.901168441539
0.16244350109588662,4152.346169018232
0.16882033167003618,3910.1650512711244
0.17544748908334581,3676.613797006545
0.1823348000868439,3459.8049248827506
0.189492477187382,3265.2646572423105
0.19693113379074215,3094.4905755564323
0.20466179993919872,2941.9306598623316
0.21269593866686892,2795.85996309933
0.22104546299710207,2646.618505981529
0.22972275360711503,2491.9491798321824
0.23874067718606454,2334.8484908656383
0.2481126055137766,2182.5854751093243
0.25785243528842716,2043.4067679966881
0.26797460873256895,1919.7506358026671
0.27849413500806414,1808.2411898902392
0.28942661247167484,1702.1878042416947
0.3007882518043098,1596.1483699737219
0.31259590004822796,1490.6879386109908
0.324867065587837,1390.058984444441
0.3376199441111335,1298.237186453677
0.35087344559027084,1214.7697243012897
0.36464722232127456,1136.3478091008808
0.37896169806447155,1060.0772653466345
0.3938380983288488,986.9094605534477
0.4092984818452433,918.6899512539728
0.4253657732750382,855.9489147654879
0.44206379720285277,797.1043271338292
0.45941731346364734,741.0736921278583
0.47745205385661277,688.3993039808103
0.4961947603002895,639.4484170490957
0.5156732244854959,593.8277645173674
0.5359163290848509,550.9013780802737
0.556954090580013,510.7767355853925
0.5788177037701272,473.4272688910508
0.6015395880274836,438.5547907388911
0.6251534353689703,406.0114847581808
0.6496942604146115,375.69591012772577
0.6751984523072497,347.476416449343
0.7017038286703824,321.21201165628105
0.7292496916841444,296.7882823783114
0.7578768863625915,274.0885524986931
0.7876278611187046,253.01035383289667
0.8185467307069019,233.45605018640134
0.850679341636415,215.31701910444866
0.8840733401525058,198.49648933467597
0.9187782428863317,182.90873138137147
0.9548455102782278,168.47251959554606
0.9923286228832539,155.11100807553012
1.0312831606721837,142.7515869479725
1.0717668854455022,131.3253402360574
1.1138398264826193,120.76691948741315
1.1575643695533022,111.01502656643409
1.2030053494233226,102.01225115080399
1.2502301459914542,93.70486556862961
1.299308784200415,86.04263279347668
1.3503140378698726,78.9786677346066
1.4033215376054824,72.46920667263318
1.4584098829439835,66.47339059217057
1.5156607589006013,60.95310107739129
1.575159057091621,55.87280315489787
1.6369930016117014,51.199379019914396
1.7012542798525885,46.901948572615105
1.7680381784572046,42.951792466223594
1.8374437246107238,39.322232536251185
1.9095738328780953,35.988501534490304
1.9845354578058014,32.92761978565394
2.0624397525140905,30.118279900865282
2.143402233514853,27.5407366946816
2.227542951999554,25.176700548885528
2.314986671851158,23.00923929608823
2.405863054644063,21.022686017575264
2.5003068519063225,19.202551316910608
2.598458104929248,17.53543167395712
2.7004623524206774,16.008940765874467
2.806470846309834,14.611646320937469
2.916640776023701,13.333001595393036
3.031135501567576,12.16328113754214
3.150124795755327,11.093520434496886
3.2737850959485697,10.11545888837371
3.4022997656780634,9.221489188096246
3.5358593665351745,8.404609025237798
3.6746619407366854,7.658375602780589
3.8189133047818515,6.976863295338435
3.968827354637162,6.354623246210069
4.1246263829013445,5.786646425110125
4.286541408420921,5.268331834176138
4.4548125188449825,4.795455008357126
4.629689226627261,4.364138576023767
4.811430839003257,3.970824927096081
5.000306842491082,3.61225017694739
5.196597302486189,3.285421324859468
5.400593278542364,2.9875954129411952
5.612597255954967,2.7162594491549945
5.8329235942862,2.469111843010892
6.06189899349756,2.244045248077633
6.29986297838068,2.039130674679704
6.547168402004727,1.8526030128425055
6.804181968927091,1.682847621186616
7.071284778942991,1.5283879262564826
7.348872892180382,1.387873998502491
7.637357916378006,1.2600716360325228
7.937167617217536,1.1438524398202345
8.248746552614573,1.0381858758415037
8.572556731909314,0.9421311238295221
8.909078300934132,0.8548294651851921
9.258810253973934,0.7754973404086125
9.622271173675122,0.7034206930110555
9.999999999999984,0.6379486747335122
