k [1/Mpc],P(k) [Mpc^3]
0.0001,193.3348252491746
0.00010392556829367125,199.76575529169955
0.00010800523745162529,206.4104859772852
0.00011224505680853065,213.27610137708925
0.00011665131316981963,220.3699254303122
0.00012123054013376525,227.69953222396074
0.00012598952777950273,235.27274576411392
0.00013093533273536104,243.09763939252173
0.00013607528864243335,251.18254865280002
0.00014141701702890234,259.5360873712552
0.00014696843861124463,268.1671611099382
0.00015273778503907136,277.0849691692879
0.00015873361110102093,286.29899757562106
0.00016496480740980205,295.8190323316421
0.0001714406135851971,305.65518154921386
0.00017817063195457305,315.81789133940373
0.00018516484179121546,326.31795157423335
0.000192433614111598,337.16650407942785
0.00019998772705352857,348.3750537622925
0.0002078383818579757,359.9554786907089
0.00021599721947827182,371.92002758920495
0.0002244763378413224,384.28134142412813
0.0002332883097864157,397.05246945133933
0.00024244620170823283,410.24688071194595
0.0002519635929317015,423.87847837348033
0.0002618545958474233,437.96160030597065
0.0002721338768375308,452.5110377782502
0.0002828166780230032,467.54205167122257
0.0002939188398646886,483.0703774275213
0.0003054568246515432,499.1122502411692
0.00031744774091091926,515.6844186517881
0.00032990936877709396,532.8041603480814
0.00034286018635565856,550.489289054277
0.00035631939712285854,568.7581256124648
0.000370306958400514,587.6295480468781
0.00038484361094874304,607.1230146275232
0.0003999509097203664,627.2585768971512
0.00041565125582259895,648.0569027212281
0.00043196792973341727,669.5392721025638
0.0004489251258218605,691.7276056955027
0.0004665479882234472,714.6444590371883
0.000484862648123908,738.312993930209
0.000503896262506515,762.7570512678802
0.0005236770544204653,788.0011376031772
0.0005442343548300266,814.0704493553986
0.0005655986461065005,840.9909094258163
0.0005878016072274912,868.7891593787479
0.0006108761607505036,897.492597834512
0.0006348565216305217,927.1293099859962
0.0006597782479539537,957.7280566823159
0.0006856782936641739,989.3183774082803
0.0007125950633568407,1021.9305604474482
0.0007405684692262436,1055.595689299617
0.0007696399902471156,1090.3456164685426
0.0007998527336796708,1126.2129171968932
0.000831251498989063,1163.230983812603
0.0008638828442740447,1201.4339316086728
0.000897795155303332,1240.8566455015439
0.0009330387172620361,1281.5348012268723
0.0009696657893145519,1323.5047477734588
0.001007730682094461,1366.8036352251227
0.0010472898382363582,1411.4692866109392
0.0010884019160690055,1457.5401863945447
0.0011311278765939214,1505.0555738902306
0.001175531073878369,1554.0552326424547
0.0012216773489967915,1604.5796345916601
0.0012696351276599736,1656.6697731050704
0.0013194755216767058,1710.3669970044532
0.0013712724343984,1765.7132520769098
0.0014251026703029975,1822.7507680169822
0.0014810460488806749,1881.5221709324726
0.0015391855229902056,1942.0703622164508
0.001599607301861487,2004.4380743818353
0.0016624009789266115,2068.668287708167
0.0017276596646690358,2134.803959052392
0.0017954801246878305,2202.887997036386
0.0018659629231817451,2272.9631858529965
0.001939212572065829,2345.0712982554846
0.0020153376859417325,2419.253683216798
0.002094451143151469,2495.5510901796797
0.002176670253153458,2574.0034447989997
0.002262116930469025,2654.6499547373633
0.002350917875457286,2737.5280066925748
0.002443204762186487,2822.6735921807176
0.0025391144336803463,2910.121197456441
0.002638789104828933,2999.90317205483
0.002742376573264949,3092.0501737178647
0.0028500304385181063,3186.5900631736795
0.0029619103297725525,3283.547970936868
0.0030781821425650787,3382.9464576497176
0.003199018284775064,3484.804515918423
0.0033245979322709396,3589.138096851657
0.003455107294592217,3695.9589988719385
0.0035907398910610534,3805.274438362273
0.0037316968377327513,3917.0875791248554
0.0038781871456107214,4031.3959758113706
0.0040304280305680515,4148.192198222057
0.00418864523543527,4267.46288709341
0.004353073364731888,4389.187519464928
0.00452395623253805,4513.339566885904
0.004701547224022131,4639.884530188926
0.004886109671160325,4768.780326611602
0.005077917243205399,4899.976685262713
0.005277254352483535,5033.41238556683
0.005484416576121017,5169.017585320102
0.005699711094326071,5306.712836726303
0.005923457145875801,5446.408808732062
0.006155986501483508,5588.004727841309
0.006397643955748424,5731.379702126358
0.0066487878384172625,5876.399155243605
0.0069097905457156435,6022.926057148773
0.007181039092537346,6170.825231287842
0.007462935686310132,6319.945932922283
0.007755898323389004,6470.074222195585
0.00806036140886134,6620.956146901832
0.008376776400682916,6772.339433482737
0.008705612479099857,6923.999572677461
0.009047357242349292,7075.702681613436
0.00940251742967013,7227.157475283942
0.009771619672696168,7378.023288893062
0.010155211276345676,7527.949203495754
0.010553861030365234,7676.598108526028
0.010968160052731372,7823.625222523946
0.011398722666160517,7968.640857598223
0.011846187309026826,8111.203436279627
0.012311217482038896,8250.850900023197
0.012794502732078732,8387.089051066074
0.013296759674662111,8519.40281453078
0.013818733056536317,8647.2528772709
0.014361196859990781,8770.067312838286
0.014924955450518284,8887.260010702423
0.015510844769528393,8998.213762162792
0.016119733573881575,9102.291585383125
0.01675252472408214,9198.840619305229
0.017410156523040152,9287.168433110699
0.018093604107387147,9366.578592009937
0.01880388089340914,9436.359118187218
0.019542040079740527,9495.788318395927
0.02030917620904734,9544.156624537072
0.021106426791015535,9580.744782791719
0.021934973989050584,9604.855792077451
0.02279604637318978,9615.819798028215
0.023690920741826323,9612.99475012738
0.02462092401494623,9595.794285284357
0.02558743520168586,9563.692189841055
0.02659188744512693,9516.234470207926
0.027635770147361564,9453.06304740199
0.028720631177978267,9373.940103928311
0.029848079169243254,9278.734156694883
0.03101978590138095,9167.489893917469
0.03223748878149028,9040.413704151206
0.0335029934197723,8897.85795331501
0.03481817630688963,8740.4415051686
0.03618498759642746,8568.914780345887
0.037605453996581675,8384.298448807429
0.03908168177536263,8187.904042174741
0.04061585988376978,7981.1176481751845
0.04221026320156896,7765.61209399796
0.04386725591048496,7543.131687495651
0.0455892949998106,7315.69651487545
0.047378933909631396,7085.879297671877
0.049238826317067365,6856.072275699149
0.05117173007114603,6628.11383741123
0.05318051128214196,6403.439477374734
0.05526814857144601,6183.728749974901
0.057437737488265785,5971.772055493373
0.0596924950997073,5770.176420378655
0.0620357647610427,5580.2851092493665
0.06447102107323864,5402.543384300722
0.06700187503509585,5236.878222132812
0.06963207939763882,5082.5705749265
0.0723655342286965,4938.468100221497
0.07520629269592405,4802.692138976243
0.07815856707684081,4673.042320917151
0.08122673500479707,4546.867022687368
0.08441534596012978,4421.114458041018
0.0877291280161335,4292.4106915761395
0.09117299484984914,4157.1241105280415
0.09475205302806537,4011.9530971850463
0.09847160957933764,3854.357627996832
0.1023371798632519,3683.0743156741546
0.10635449574860109,3499.412172392581
0.11052951411260206,3307.055349451133
0.1148684256737553,3109.8394997360892
0.1193776641714435,2913.1104199444817
0.1240639159058831,2722.84821386455
0.12893412965257148,2545.099304070849
0.13399552696593373,2385.3726107058924
0.1392556128874462,2247.5503181040094
0.14472218707411338,2132.90092916588
0.15040335536380234,2039.2418033739675
0.15630754179458153,1960.9507874622818
0.16244350109588662,1890.087768629504
0.16882033167003618,1818.0374844615428
0.17544748908334581,1737.3892073417228
0.1823348000868439,1643.8620794674055
0.189492477187382,1537.6907979042194
0.19693113379074215,1423.6708015528288
0.20466179993919872,1309.8717994444955
0.21269593866686892,1205.6187679008192
0.22104546299710207,1118.5420091958013
0.22972275360711503,1051.1599186102073
0.23874067718606454,999.6403864589768
0.2481126055137766,955.7258953497427
0.25785243528842716,909.7270738788259
0.26797460873256895,854.4595035995975
0.27849413500806414,789.9358731706312
0.28942661247167484,723.1346722822898
0.3007882518043098,662.9065021305415
0.31259590004822796,615.1667540795033
0.324867065587837,579.3322925382639
0.3376199441111335,548.6397977703014
0.35087344559027084,515.029503842864
0.36464722232127456,475.7211418467667
0.37896169806447155,435.2442700314892
0.3938380983288488,400.075806598555
0.4092984818452433,372.7595882575339
0.4253657732750382,349.68951032333916
0.44206379720285277,325.4731731936079
0.45941731346364734,299.06841271462184
0.47745205385661277,274.3220452588544
0.4961947603002895,253.95747666500677
0.5156732244854959,236.40104912171017
0.5359163290848509,218.5423438306207
0.556954090580013,200.55401270436147
0.5788177037701272,184.65116148578406
0.6015395880274836,170.9084249898421
0.6251534353689703,157.6324261564404
0.6496942604146115,144.7134576017837
0.6751984523072497,133.191912034758
0.7017038286703824,122.77743945150286
0.7292496916841444,112.77893772151235
0.7578768863625915,103.56833016677662
0.7876278611187046,95.23472426330501
0.8185467307069019,87.40930563416116
0.850679341636415,80.1950064033596
0.8840733401525058,73.56645796443053
0.9187782428863317,67.45933807682549
0.9548455102782278,61.83367085569376
0.9923286228832539,56.652586603745746
1.0312831606721837,51.88227816194254
1.0717668854455022,47.49263432906915
1.1138398264826193,43.45588453183417
1.1575643695533022,39.74598204003326
1.2030053494233226,36.338530715160886
1.2502301459914542,33.2107112103672
1.299308784200415,30.341110879114296
1.3503140378698726,27.709552676460536
1.4033215376054824,25.29728824037635
1.4584098829439835,23.086947826081083
1.5156607589006013,21.062448331712858
1.575159057091621,19.20890730785414
1.6369930016117014,17.51258273194696
1.7012542798525885,15.960790656169126
1.7680381784572046,14.541802338719428
1.8374437246107238,13.244777878634817
1.9095738328780953,12.059705436301435
1.9845354578058014,10.977342429744052
2.0624397525140905,9.989149587314524
2.143402233514853,9.087251713748607
2.227542951999554,8.264398965479634
2.314986671851158,7.513920669039207
2.405863054644063,6.829682105633399
2.5003068519063225,6.206044541336592
2.598458104929248,5.637828503105654
2.7004623524206774,5.120277430096921
2.806470846309834,4.649024865867352
2.916640776023701,4.2200643641595
3.031135501567576,3.8297215119218593
3.150124795755327,3.474626967272855
3.2737850959485697,3.1516919901520923
3.4022997656780634,2.858088227688263
3.5358593665351745,2.591227035110194
3.6746619407366854,2.348740107638689
3.8189133047818515,2.1284615617541855
3.968827354637162,1.9284110949755504
4.1246263829013445,1.7467789004342769
4.286541408420921,1.5819119265081225
4.4548125188449825,1.4323008560137593
4.629689226627261,1.2965680989161483
4.811430839003257,1.1734566965691708
5.000306842491082,1.0618199393307937
5.196597302486189,0.9606122668666465
5.400593278542364,0.8688807844349772
5.612597255954967,0.7857573280235918
5.8329235942862,0.7104511794725684
6.06189899349756,0.6422423441485046
6.29986297838068,0.5804753658338613
6.547168402004727,0.5245538306464996
6.804181968927091,0.4739352290447903
7.071284778942991,0.4281262251751918
7.348872892180382,0.38667832374838906
7.637357916378006,0.3491837880858572
7.937167617217536,0.31527202618529493
8.248746552614573,0.2846064769129063
8.572556731909314,0.2568815723599742
8.909078300934132,0.2318199496598258
9.258810253973934,0.2091699262623958
9.622271173675122,0.1887033800491593
9.999999999999984,0.17021346076858346
