k [1/Mpc],P(k) [Mpc^3]
0.0001,12898.646777497592
0.00010392556829367125,13325.747274220963
0.00010800523745162529,13766.823923815007
0.00011224505680853065,14222.315908738323
0.00011665131316981963,14692.673944550821
0.00012123054013376525,15178.358659304726
0.00012598952777950273,15679.843003437865
0.00013093533273536104,16197.612165322294
0.00013607528864243335,16732.163889301923
0.00014141701702890234,17284.0083172363
0.00014696843861124463,17853.66505442516
0.00015273778503907136,18441.66584882091
0.00015873361110102093,19048.55339908807
0.00016496480740980205,19674.880526310728
0.0001714406135851971,20321.21234014352
0.00017817063195457305,20988.12353081565
0.00018516484179121546,21676.199956202327
0.000192433614111598,22386.036127161035
0.00019998772705352857,23118.23050422607
0.0002078383818579757,23873.39126974464
0.00021599721947827182,24652.133773382644
0.0002244763378413224,25455.080982263604
0.0002332883097864157,26282.862310224486
0.00024244620170823283,27136.10540233122
0.0002519635929317015,28015.442573053097
0.0002618545958474233,28921.5063387012
0.0002721338768375308,29854.927384270093
0.0002828166780230032,30816.3375524696
0.0002939188398646886,31806.359123946233
0.0003054568246515432,32825.61005993679
0.00031744774091091926,33874.70197140814
0.00032990936877709396,34954.23458695343
0.00034286018635565856,36064.799793385915
0.00035631939712285854,37206.96656445456
0.000370306958400514,38381.28390083275
0.00038484361094874304,39588.2845815024
0.0003999509097203664,40828.47784982753
0.00041565125582259895,42102.35238781377
0.00043196792973341727,43410.361408745135
0.0004489251258218605,44752.919387471906
0.0004665479882234472,46130.408552741894
0.000484862648123908,47543.16499514846
0.000503896262506515,48991.48404247582
0.0005236770544204653,50475.60975127294
0.0005442343548300266,51995.724552045984
0.0005655986461065005,53551.95714224066
0.0005878016072274912,55144.35633146761
0.0006108761607505036,56772.897707043674
0.0006348565216305217,58437.47759152188
0.0006597782479539537,60137.88686037366
0.0006856782936641739,61873.83074960774
0.0007125950633568407,63644.89469774352
0.0007405684692262436,65450.5429361756
0.0007696399902471156,67290.12756509805
0.0007998527336796708,69162.84531249553
0.000831251498989063,71067.76439429427
0.0008638828442740447,73003.79968968303
0.000897795155303332,74969.69546116407
0.0009330387172620361,76964.05249869292
0.0009696657893145519,78985.3054544717
0.001007730682094461,81031.72999706642
0.0010472898382363582,83101.42512169901
0.0010884019160690055,85192.28272821609
0.0011311278765939214,87302.0182228635
0.001175531073878369,89428.1251666894
0.0012216773489967915,91567.88448250869
0.0012696351276599736,93718.41701254522
0.0013194755216767058,95876.73837711914
0.0013712724343984,98039.70649263746
0.0014251026703029975,100203.98529581235
0.0014810460488806749,102366.04253300687
0.0015391855229902056,104522.14496346272
0.001599607301861487,106668.21487993609
0.0016624009789266115,108799.9355318941
0.0017276596646690358,110912.89163263192
0.0017954801246878305,113002.63992510622
0.0018659629231817451,115064.60569847497
0.001939212572065829,117094.05365978985
0.0020153376859417325,119086.109847862
0.002094451143151469,121035.79137486289
0.002176670253153458,122938.02214801237
0.002262116930469025,124787.64834076399
0.002350917875457286,126579.4752050519
0.002443204762186487,128308.28507649191
0.0025391144336803463,129968.83094829544
0.002638789104828933,131555.82566987321
0.002742376573264949,133063.9882780344
0.0028500304385181063,134488.06625225645
0.0029619103297725525,135822.8533496926
0.0030781821425650787,137063.2281729131
0.003199018284775064,138204.1707722396
0.0033245979322709396,139240.7924106516
0.003455107294592217,140167.7972618174
0.0035907398910610534,140978.70816968684
0.0037316968377327513,141667.23176184445
0.0038781871456107214,142230.35419727198
0.0040304280305680515,142667.7818835487
0.00418864523543527,142977.41172722133
0.004353073364731888,143148.6539301567
0.00452395623253805,143169.18860822203
0.004701547224022131,143031.26087093152
0.004886109671160325,142732.7852695832
0.005077917243205399,142272.43510943063
0.005277254352483535,141648.65774219937
0.005484416576121017,140860.168694102
0.005699711094326071,139904.75611001806
0.005923457145875801,138777.80872148636
0.006155986501483508,137475.11417764897
0.006397643955748424,135992.1425326797
0.0066487878384172625,134324.61293670864
0.0069097905457156435,132469.0868872903
0.007181039092537346,130422.2465073605
0.007462935686310132,128181.98607712338
0.007755898323389004,125746.44714193392
0.00806036140886134,123114.15152843698
0.008376776400682916,120284.71558267684
0.008705612479099857,117255.14199147982
0.009047357242349292,114023.60205867968
0.00940251742967013,110590.12368488713
0.009771619672696168,106956.03525506156
0.010155211276345676,103125.58614643832
0.010553861030365234,99100.29435579799
0.010968160052731372,94883.13550923599
0.011398722666160517,90481.04617524806
0.011846187309026826,85902.22430319969
0.012311217482038896,81160.52121608931
0.012794502732078732,76263.48694580024
0.013296759674662111,71217.48932153812
0.013818733056536317,66044.15876311045
0.014361196859990781,60787.207697474405
0.014924955450518284,55498.84943377072
0.015510844769528393,50179.2178418054
0.016119733573881575,44781.07253543433
0.01675252472408214,39331.67461106615
0.017410156523040152,34054.32727183152
0.018093604107387147,29176.186309124983
0.01880388089340914,24593.087596110618
0.019542040079740527,19827.841394803192
0.02030917620904734,14873.509664134353
0.021106426791015535,10704.104791479725
0.021934973989050584,7977.183541979634
0.02279604637318978,6104.851571269981
0.023690920741826323,3391.439766371995
0.02462092401494623,907.6885670969268
0.02558743520168586,158.38980117815416
0.02659188744512693,59.08470843510449
0.027635770147361564,127.81983860573753
0.028720631177978267,835.7849245166493
0.029848079169243254,4374.7992355108745
0.03101978590138095,8710.344261131833
0.03223748878149028,10084.730845380293
0.0335029934197723,11543.718323554069
0.03481817630688963,14992.695573622235
0.03618498759642746,19487.648352946155
0.037605453996581675,23042.204815495355
0.03908168177536263,25274.18244138031
0.04061585988376978,26802.251332862197
0.04221026320156896,27789.07648100285
0.04386725591048496,27818.36207524682
0.0455892949998106,26682.053611004
0.047378933909631396,24545.591111508358
0.049238826317067365,21584.501194391534
0.05117173007114603,17907.158056900633
0.05318051128214196,13925.364110034576
0.05526814857144601,10178.337653458679
0.057437737488265785,6615.078323187383
0.0596924950997073,3547.2622377303924
0.0620357647610427,1788.0800681655078
0.06447102107323864,527.0311513973944
0.06700187503509585,34.042953915107944
0.06963207939763882,26.43216199776424
0.0723655342286965,384.21517861565115
0.07520629269592405,646.5723722140795
0.07815856707684081,574.5182399106762
0.08122673500479707,454.1935665352434
0.08441534596012978,157.6300304431687
0.0877291280161335,23.01529683828484
0.09117299484984914,63.746007636375694
0.09475205302806537,766.120704895312
0.09847160957933764,1318.605366098427
0.1023371798632519,1976.8189814141701
0.10635449574860109,2277.7143171935063
0.11052951411260206,2008.0482837708437
0.1148684256737553,1480.603325394166
0.1193776641714435,599.9762528245383
0.1240639159058831,293.1568088569431
0.12893412965257148,0.39204761717128034
0.13399552696593373,52.98358136603787
0.1392556128874462,93.3782501051581
0.14472218707411338,73.40738875762422
0.15040335536380234,2.355934804656394
0.15630754179458153,80.13909433653194
0.16244350109588662,276.0405959593383
0.16882033167003618,472.19831692821185
0.17544748908334581,421.9826884818332
0.1823348000868439,213.85107986848823
0.189492477187382,48.072459756784916
0.19693113379074215,0.29161786333655143
0.20466179993919872,10.483279542850973
0.21269593866686892,0.0007649502144518489
0.22104546299710207,75.44713453606619
0.22972275360711503,108.48175390383342
0.23874067718606454,127.30084352233081
0.2481126055137766,64.67569671429055
0.25785243528842716,8.630645306396062
0.26797460873256895,0.05783992521033062
0.27849413500806414,0.11652477981937515
0.28942661247167484,15.571141325146503
0.3007882518043098,40.144923148424425
0.31259590004822796,28.74282675510596
0.324867065587837,5.911282846615484
0.3376199441111335,0.7062918915541743
0.35087344559027084,3.8148297607971484
0.36464722232127456,13.680743961122346
0.37896169806447155,12.458676875911848
0.3938380983288488,3.6501515614324966
0.4092984818452433,1.6792542313107126
0.4253657732750382,4.691925566731218
0.44206379720285277,6.59989217174695
0.45941731346364734,3.1017055502939894
0.47745205385661277,1.8752234117114444
0.4961947603002895,2.9955203020079035
0.5156732244854959,3.122729304768929
0.5359163290848509,1.8586090257453818
0.556954090580013,1.2224627298733632
0.5788177037701272,0.9824259309497656
0.6015395880274836,0.9154879718587792
0.6251534353689703,0.9360642272095022
0.6496942604146115,0.9937345251857147
0.6751984523072497,1.0364739195060644
0.7017038286703824,1.0172307131459253
0.7292496916841444,0.9434307771534021
0.7578768863625915,0.8401425095910335
0.7876278611187046,0.7299129651459192
0.8185467307069019,0.6286186314168715
0.850679341636415,0.5451949238939352
0.8840733401525058,0.4799710863260559
0.9187782428863317,0.42760413919746254
0.9548455102782278,0.3840053711860046
0.9923286228832539,0.3462631643645147
1.0312831606721837,0.3122870004181735
1.0717668854455022,0.2806899000492529
1.1138398264826193,0.2512892037826979
1.1575643695533022,0.22430819223385282
1.2030053494233226,0.19984697215077393
1.2502301459914542,0.1779049428016728
1.299308784200415,0.15840658931182702
1.3503140378698726,0.1411835792111464
1.4033215376054824,0.125943368878831
1.4584098829439835,0.1124167345055198
1.5156607589006013,0.10037730555250814
1.575159057091621,0.08963412374449356
1.6369930016117014,0.08002602367299312
1.7012542798525885,0.07142688162818489
1.7680381784572046,0.06373676923729646
1.8374437246107238,0.05686504393508683
1.9095738328780953,0.050729054023593026
1.9845354578058014,0.04525361459807981
2.0624397525140905,0.04037018332184104
2.143402233514853,0.03601494184173742
2.227542951999554,0.032130214219777305
2.314986671851158,0.028664723661958973
2.405863054644063,0.025572869388941214
2.5003068519063225,0.02281408517843768
2.598458104929248,0.020352342558934033
2.7004623524206774,0.018155692786533756
2.806470846309834,0.016195640919518004
2.916640776023701,0.014446750126896668
3.031135501567576,0.012886313926949047
3.150124795755327,0.01149406453561973
3.2737850959485697,0.010251926510683847
3.4022997656780634,0.009143772710438904
3.5358593665351745,0.00815520007729983
3.6746619407366854,0.007273346116752743
3.8189133047818515,0.006486725218483572
3.968827354637162,0.005785078035690393
4.1246263829013445,0.005159227379535181
4.286541408420921,0.0046009825096064655
4.4548125188449825,0.004103039537087706
4.629689226627261,0.00365888505962931
4.811430839003257,0.003262710365295921
5.000306842491082,0.0029093386669369167
5.196597302486189,0.0025941575516225087
5.400593278542364,0.0023130506760688494
5.612597255954967,0.002062343928298799
5.8329235942862,0.00183875810034943
6.06189899349756,0.0016393665051950782
6.29986297838068,0.0014615562439356036
6.547168402004727,0.0013029953526513102
6.804181968927091,0.0011616034628423846
7.071284778942991,0.0010355247054762136
7.348872892180382,0.000923103515700146
7.637357916378006,0.0008228628206959091
7.937167617217536,0.0007334843250738606
8.248746552614573,0.0006537922277289872
8.572556731909314,0.0005827380089935197
8.909078300934132,0.0005193866367675051
9.258810253973934,0.00046290427886006697
9.622271173675122,0.00041254765647396143
9.999999999999984,0.00036765421009780214
