k [1/Mpc],P(k) [Mpc^3]
0.0001,206.3544814211313
0.00010392556829367125,215.07004804682
0.00010800523745162529,224.1532870197225
0.00011224505680853065,233.6196555818946
0.00011665131316981963,243.48525667585642
0.00012123054013376525,253.76686024142285
0.00012598952777950273,264.48193166681796
0.00013093533273536104,275.64866186916163
0.00013607528864243335,287.2859907729028
0.00014141701702890234,299.41364336105397
0.00014696843861124463,312.05215583756177
0.00015273778503907136,325.2229061434309
0.00015873361110102093,338.9481550131798
0.00016496480740980205,353.25107525874034
0.0001714406135851971,368.15579252741264
0.00017817063195457305,383.6874135549206
0.00018516484179121546,399.87205035663465
0.000192433614111598,416.7368802786076
0.00019998772705352857,434.3101816340134
0.0002078383818579757,452.62137937458584
0.00021599721947827182,471.7010871796985
0.0002244763378413224,491.5811290600532
0.0002332883097864157,512.2946080022151
0.00024244620170823283,533.8759303256244
0.0002519635929317015,556.3608469170988
0.0002618545958474233,579.7865287942113
0.0002721338768375308,604.1915824058068
0.0002828166780230032,629.6161265435509
0.0002939188398646886,656.1018316800221
0.0003054568246515432,683.6919421273346
0.00031744774091091926,712.4313760719197
0.00032990936877709396,742.3667119182453
0.00034286018635565856,773.5462660923407
0.00035631939712285854,806.020182739014
0.000370306958400514,839.8404458128654
0.00038484361094874304,875.0609848819213
0.0003999509097203664,911.7376337636007
0.00041565125582259895,949.9281652274005
0.00043196792973341727,989.6924463134013
0.0004489251258218605,1031.0924090134743
0.0004665479882234472,1074.1921725736277
0.000484862648123908,1119.0580389820584
0.000503896262506515,1165.7584511370603
0.0005236770544204653,1214.3641900723394
0.0005442343548300266,1264.9482798135678
0.0005655986461065005,1317.5860915283783
0.0005878016072274912,1372.3554261715997
0.0006108761607505036,1429.336390802624
0.0006348565216305217,1488.6116101790353
0.0006597782479539537,1550.266098978105
0.0006856782936641739,1614.38726541529
0.0007125950633568407,1681.065079748366
0.0007405684692262436,1750.3917741320959
0.0007696399902471156,1822.4620820808236
0.0007998527336796708,1897.3731599276655
0.000831251498989063,1975.2244004091972
0.0008638828442740447,2056.1176960453677
0.000897795155303332,2140.1569159616733
0.0009330387172620361,2227.448054803755
0.0009696657893145519,2318.099235973338
0.001007730682094461,2412.2200630444027
0.0010472898382363582,2509.9221264628372
0.0010884019160690055,2611.318416931297
0.0011311278765939214,2716.5231474764596
0.001175531073878369,2825.651955572312
0.0012216773489967915,2938.8206235789708
0.0012696351276599736,3056.1456722674193
0.0013194755216767058,3177.743976243133
0.0013712724343984,3303.732069328362
0.0014251026703029975,3434.2266235517263
0.0014810460488806749,3569.343300480348
0.0015391855229902056,3709.196799069651
0.001599607301861487,3853.900313121648
0.0016624009789266115,4003.5636686858015
0.0017276596646690358,4158.294416560501
0.0017954801246878305,4318.1966177341355
0.0018659629231817451,4483.37030236378
0.001939212572065829,4653.911574952291
0.0020153376859417325,4829.910600680543
0.002094451143151469,5011.452079690018
0.002176670253153458,5198.613969087276
0.002262116930469025,5391.4659959888595
0.002350917875457286,5590.070361477878
0.002443204762186487,5794.4798120462365
0.0025391144336803463,6004.737432499782
0.002638789104828933,6220.875527900885
0.002742376573264949,6442.912860154331
0.0028500304385181063,6670.855860172967
0.0029619103297725525,6904.69694615976
0.0030781821425650787,7144.41363464443
0.003199018284775064,7389.967995001817
0.0033245979322709396,7641.303084491802
0.003455107294592217,7898.343973513258
0.0035907398910610534,8160.996594773556
0.0037316968377327513,8429.14614675359
0.0038781871456107214,8702.657169016898
0.0040304280305680515,8981.369592730358
0.00418864523543527,9265.099213770625
0.004353073364731888,9553.639714001425
0.00452395623253805,9846.763944580764
0.004701547224022131,10144.219813048594
0.004886109671160325,10445.709971263937
0.005077917243205399,10750.89177758189
0.005277254352483535,11059.40997121984
0.005484416576121017,11370.962127256453
0.005699711094326071,11685.245649723032
0.005923457145875801,12001.813528629245
0.006155986501483508,12320.008314013328
0.006397643955748424,12639.135507857249
0.0066487878384172625,12958.664244055803
0.0069097905457156435,13278.139047670044
0.007181039092537346,13597.007540949957
0.007462935686310132,13914.50089771526
0.007755898323389004,14229.791936619353
0.00806036140886134,14542.168024109746
0.008376776400682916,14851.016982567497
0.008705612479099857,15155.678927050032
0.009047357242349292,15455.319342865052
0.00940251742967013,15749.037348139374
0.009771619672696168,16035.900436835225
0.010155211276345676,16314.944853329025
0.010553861030365234,16585.190849937284
0.010968160052731372,16845.66964552286
0.011398722666160517,17095.41548523321
0.011846187309026826,17333.445080141344
0.012311217482038896,17558.74379577529
0.012794502732078732,17770.295337721687
0.013296759674662111,17967.066681816843
0.013818733056536317,18148.01935942553
0.014361196859990781,18312.132676796384
0.014924955450518284,18458.40370671364
0.015510844769528393,18585.861684042044
0.016119733573881575,18693.575250744438
0.01675252472408214,18780.659304837252
0.017410156523040152,18846.28613893071
0.018093604107387147,18889.695573534125
0.01880388089340914,18910.20109124093
0.019542040079740527,18907.21472868966
0.02030917620904734,18880.274715868927
0.021106426791015535,18829.021694978663
0.021934973989050584,18753.260475637417
0.02279604637318978,18652.94453939101
0.023690920741826323,18528.167670614177
0.02462092401494623,18379.25983466556
0.02558743520168586,18206.6843562796
0.02659188744512693,18011.129387839977
0.027635770147361564,17793.522019722182
0.028720631177978267,17554.90559284597
0.029848079169243254,17296.608329643692
0.03101978590138095,17020.088811788937
0.03223748878149028,16726.929006835966
0.0335029934197723,16418.910682663012
0.03481817630688963,16097.830489511063
0.03618498759642746,15765.600554342278
0.037605453996581675,15424.175624874026
0.03908168177536263,15075.371919873141
0.04061585988376978,14720.710944112818
0.04221026320156896,14361.60686697333
0.04386725591048496,13999.549210668243
0.0455892949998106,13636.099722560088
0.047378933909631396,13272.539632834108
0.049238826317067365,12908.955442319102
0.05117173007114603,12545.048060645184
0.05318051128214196,12179.944485642256
0.05526814857144601,11811.722880164718
0.057437737488265785,11438.792455782212
0.0596924950997073,11061.623838529493
0.0620357647610427,10681.867139145152
0.06447102107323864,10300.781919442115
0.06700187503509585,9918.564360862581
0.06963207939763882,9535.348833581535
0.0723655342286965,9151.978366657502
0.07520629269592405,8769.784776219729
0.07815856707684081,8391.617388001901
0.08122673500479707,8022.3186413551175
0.08441534596012978,7665.254754086102
0.0877291280161335,7321.5286021314505
0.09117299484984914,6991.492946280562
0.09475205302806537,6674.901070169198
0.09847160957933764,6371.787516460547
0.1023371798632519,6082.042597252322
0.10635449574860109,5803.3285087706245
0.11052951411260206,5532.007615296691
0.1148684256737553,5263.896863699052
0.1193776641714435,4997.471268573274
0.1240639159058831,4733.445001894959
0.12893412965257148,4474.310375225221
0.13399552696593373,4224.043154210169
0.1392556128874462,3987.0335421944715
0.14472218707411338,3764.7232060510096
0.15040335536380234,3554.6375859916257
0.15630754179458153,3355.3268428807673
0.16244350109588662,3166.7434673401335
0.16882033167003618,2986.925494937179
0.17544748908334581,2811.679931699145
0.1823348000868439,2642.096148988063
0.189492477187382,2480.876285306388
0.19693113379074215,2327.5293802256847
0.20466179993919872,2183.013838046636
0.21269593866686892,2047.8085532360344
0.22104546299710207,1919.6120483364198
0.22972275360711503,1797.6443635837338
0.23874067718606454,1681.891659472055
0.2481126055137766,1572.3689714197817
0.25785243528842716,1469.1976568840437
0.26797460873256895,1372.0871670274148
0.27849413500806414,1280.8045388319156
0.28942661247167484,1194.6547979976951
0.3007882518043098,1113.6130215277012
0.31259590004822796,1037.4298550043795
0.324867065587837,965.9857809576633
0.3376199441111335,898.886336044606
0.35087344559027084,836.0220614564532
0.36464722232127456,777.055516577332
0.37896169806447155,721.8962186217606
0.3938380983288488,670.2856483966633
0.4092984818452433,622.022621403522
0.4253657732750382,576.9518320794995
0.44206379720285277,534.8890288437487
0.45941731346364734,495.6531094620792
0.47745205385661277,459.08150945678216
0.4961947603002895,425.02207001086964
0.5156732244854959,393.3203583582996
0.5359163290848509,363.8238232755207
0.556954090580013,336.3902842704581
0.5788177037701272,310.8860797465182
0.6015395880274836,287.18624855601735
0.6251534353689703,265.1776634930356
0.6496942604146115,244.74570635128507
0.6751984523072497,225.7982845601061
0.7017038286703824,208.2379777210826
0.7292496916841444,191.97207162172407
0.7578768863625915,176.9147136332724
0.7876278611187046,162.98313473228276
0.8185467307069019,150.09134315445274
0.850679341636415,138.16796411559488
0.8840733401525058,127.14255836308539
0.9187782428863317,116.95505876814121
0.9548455102782278,107.5494467817966
0.9923286228832539,98.8685762076352
1.0312831606721837,90.85958250530129
1.0717668854455022,83.47319353559601
1.1138398264826193,76.6634985087135
1.1575643695533022,70.38774138668046
1.2030053494233226,64.6061337474913
1.2502301459914542,59.2817271806454
1.299308784200415,54.38017824283264
1.3503140378698726,49.86954406865923
1.4033215376054824,45.720131592144604
1.4584098829439835,41.9043548969702
1.5156607589006013,38.396596539920516
1.575159057091621,35.173066529400245
1.6369930016117014,32.21169966684667
1.7012542798525885,29.49204758293507
1.7680381784572046,26.995169592876575
1.8374437246107238,24.703530028181888
1.9095738328780953,22.600902011090028
1.9845354578058014,20.672277357411915
2.0624397525140905,18.90378061843093
2.143402233514853,17.282589234152006
2.227542951999554,15.796858962969859
2.314986671851158,14.435654043994626
2.405863054644063,13.188874042583878
2.5003068519063225,12.047186437144495
2.598458104929248,11.001989709661348
2.7004623524206774,10.045361417211542
2.806470846309834,9.170006950330606
2.916640776023701,8.369212029276717
3.031135501567576,7.636803809397972
3.150124795755327,6.967110431863738
3.2737850959485697,6.3549134017391555
3.4022997656780634,5.795412392805198
3.5358593665351745,5.2841933899064415
3.6746619407366854,4.817198867617529
3.8189133047818515,4.3906950529746815
3.968827354637162,4.001248408963525
4.1246263829013445,3.6457087931770644
4.286541408420921,3.3211870889775903
4.4548125188449825,3.025034221710759
4.629689226627261,2.7548219857171854
4.811430839003257,2.508327366815312
5.000306842491082,2.2835144646384906
5.196597302486189,2.0785173101993593
5.400593278542364,1.8916261405092083
5.612597255954967,1.7212747762846312
5.8329235942862,1.5660287961362693
6.06189899349756,1.42457363691236
6.29986297838068,1.295705923089485
6.547168402004727,1.178325092243048
6.804181968927091,1.0714248334463872
7.071284778942991,0.9740852116534731
7.348872892180382,0.885465416404965
7.637357916378006,0.8047970609909725
7.937167617217536,0.7313781533152482
8.248746552614573,0.6645675147656996
8.572556731909314,0.6037796278477308
8.909078300934132,0.5484799089687874
9.258810253973934,0.4981805373115894
9.622271173675122,0.45243678827284206
9.999999999999984,0.41084277831747806
