k [1/Mpc],P(k) [Mpc^3]
0.0001,132.58416373796865
0.00010392556829367125,138.18531034076872
0.00010800523745162529,144.02291686073661
0.00011224505680853065,150.10693931556492
0.00011665131316981963,156.44775104276144
0.00012123054013376525,163.05616613652177
0.00012598952777950273,169.9434564411252
0.00013093533273536104,177.1213630575621
0.00013607528864243335,184.60210657248874
0.00014141701702890234,192.39841591606915
0.00014696843861124463,200.52355217179925
0.00015273778503907136,208.99133066035813
0.00015873361110102093,217.81614259079996
0.00016496480740980205,227.01297555978147
0.0001714406135851971,236.5974403149082
0.00017817063195457305,246.58579137036153
0.00018516484179121546,256.9949496029482
0.000192433614111598,267.84253611299727
0.00019998772705352857,279.1468947845956
0.0002078383818579757,290.9271246501581
0.00021599721947827182,303.2031081689725
0.0002244763378413224,315.99553496123383
0.0002332883097864157,329.32594368413885
0.00024244620170823283,343.21675308503677
0.0002519635929317015,357.6912979962424
0.0002618545958474233,372.7738558817581
0.0002721338768375308,388.48964762841564
0.0002828166780230032,404.864906513966
0.0002939188398646886,421.9269286834351
0.0003054568246515432,439.70411496306656
0.00031744774091091926,458.2260035907608
0.00032990936877709396,477.5232684656391
0.00034286018635565856,497.6277903233984
0.00035631939712285854,518.5727025610516
0.000370306958400514,540.3924238207699
0.00038484361094874304,563.1227222205891
0.0003999509097203664,586.8007026206911
0.00041565125582259895,611.4648780207694
0.00043196792973341727,637.1552439709405
0.0004489251258218605,663.9133107858719
0.0004665479882234472,691.7821735787737
0.000484862648123908,720.8064658187045
0.000503896262506515,751.0324138493223
0.0005236770544204653,782.5079710327888
0.0005442343548300266,815.2828734344557
0.0005655986461065005,849.4086973785086
0.0005878016072274912,884.9387524614722
0.0006108761607505036,921.9280623346067
0.0006348565216305217,960.4335982909766
0.0006597782479539537,1000.5143538263138
0.0006856782936641739,1042.2314001388577
0.0007125950633568407,1085.6478190177083
0.0007405684692262436,1130.828618237664
0.0007696399902471156,1177.8409555912197
0.0007998527336796708,1226.754062207623
0.000831251498989063,1277.6393285258407
0.0008638828442740447,1330.570356949968
0.000897795155303332,1385.622808909162
0.0009330387172620361,1442.874620891295
0.0009696657893145519,1502.4058263478755
0.001007730682094461,1564.2985544437063
0.0010472898382363582,1628.6372016344835
0.0010884019160690055,1695.5081310715204
0.0011311278765939214,1764.9999036821368
0.001175531073878369,1837.2029631788644
0.0012216773489967915,1912.2093541202773
0.0012696351276599736,1990.1131608022845
0.0013194755216767058,2071.010072120272
0.0013712724343984,2154.997537943245
0.0014251026703029975,2242.1745152565386
0.0014810460488806749,2332.6407954667975
0.0015391855229902056,2426.497594153624
0.001599607301861487,2523.847041645054
0.0016624009789266115,2624.7921385846303
0.0017276596646690358,2729.4365725015123
0.0017954801246878305,2837.8834238197683
0.0018659629231817451,2950.2359288229904
0.001939212572065829,3066.5969322742985
0.0020153376859417325,3187.0684883565173
0.002094451143151469,3311.751935841313
0.002176670253153458,3440.746185082472
0.002262116930469025,3574.1482772498052
0.002350917875457286,3712.0529955033703
0.002443204762186487,3854.5519893299384
0.0025391144336803463,4001.7340182759663
0.002638789104828933,4153.683073736039
0.002742376573264949,4310.478442696052
0.0028500304385181063,4472.194478909225
0.0029619103297725525,4638.899072706259
0.0030781821425650787,4810.654094727259
0.003199018284775064,4987.513531524752
0.0033245979322709396,5169.5228999861565
0.003455107294592217,5356.71909311415
0.0035907398910610534,5549.1275090691715
0.0037316968377327513,5746.763020582211
0.0038781871456107214,5949.628121917466
0.0040304280305680515,6157.7114090784835
0.00418864523543527,6370.988131112747
0.004353073364731888,6589.416030781839
0.00452395623253805,6812.936342927632
0.004701547224022131,7041.472621028251
0.004886109671160325,7274.927903926007
0.005077917243205399,7513.186302863107
0.005277254352483535,7756.109056981528
0.005484416576121017,8003.5345937214515
0.005699711094326071,8255.274061674152
0.005923457145875801,8511.097880615107
0.006155986501483508,8770.748232345928
0.006397643955748424,9033.961637078217
0.0066487878384172625,9300.470327731382
0.0069097905457156435,9569.962964366705
0.007181039092537346,9841.997573005448
0.007462935686310132,10116.062973595532
0.007755898323389004,10391.641006826007
0.00806036140886134,10668.226451480472
0.008376776400682916,10945.285385453297
0.008705612479099857,11222.250718590147
0.009047357242349292,11498.523244607684
0.00940251742967013,11773.443712400205
0.009771619672696168,12046.254090748354
0.010155211276345676,12316.148360366811
0.010553861030365234,12582.25442559071
0.010968160052731372,12843.642006629465
0.011398722666160517,13099.336626444656
0.011846187309026826,13348.299960672222
0.012311217482038896,13589.455513187762
0.012794502732078732,13821.671111276082
0.013296759674662111,14043.759349002421
0.013818733056536317,14254.5008061377
0.014361196859990781,14452.592309811134
0.014924955450518284,14636.698101280068
0.015510844769528393,14805.450737909774
0.016119733573881575,14957.437837393907
0.01675252472408214,15091.256419881784
0.017410156523040152,15205.47818213382
0.018093604107387147,15298.688847056372
0.01880388089340914,15369.513761408527
0.019542040079740527,15416.600908527702
0.02030917620904734,15438.682605378252
0.021106426791015535,15434.58368859098
0.021934973989050584,15403.243353458773
0.02279604637318978,15343.759574279502
0.023690920741826323,15255.438034546234
0.02462092401494623,15137.779583005435
0.02558743520168586,14990.571797891787
0.02659188744512693,14813.918539439463
0.027635770147361564,14608.183674944765
0.028720631177978267,14374.238334741527
0.029848079169243254,14113.261519732501
0.03101978590138095,13826.847797367936
0.03223748878149028,13517.185960120838
0.0335029934197723,13186.650596018768
0.03481817630688963,12838.334450997781
0.03618498759642746,12475.678836557532
0.037605453996581675,12102.264597642104
0.03908168177536263,11722.271341118047
0.04061585988376978,11339.728573794533
0.04221026320156896,10959.235466141203
0.04386725591048496,10585.74576662511
0.0455892949998106,10223.462552297498
0.047378933909631396,9875.299358065728
0.049238826317067365,9543.565201381687
0.05117173007114603,9231.692164173755
0.05318051128214196,8944.677583218254
0.05526814857144601,8686.033067027623
0.057437737488265785,8453.442707370301
0.0596924950997073,8242.986633891744
0.0620357647610427,8050.929224390853
0.06447102107323864,7873.662948429213
0.06700187503509585,7706.531319868269
0.06963207939763882,7543.991296169988
0.0723655342286965,7379.673134107553
0.07520629269592405,7206.383720164983
0.07815856707684081,7014.374484890859
0.08122673500479707,6794.554256164183
0.08441534596012978,6541.347311100665
0.0877291280161335,6253.590241525725
0.09117299484984914,5934.899443172167
0.09475205302806537,5594.069383779066
0.09847160957933764,5242.699759710644
0.1023371798632519,4893.5077484696785
0.10635449574860109,4559.451108294376
0.11052951411260206,4253.334414556367
0.1148684256737553,3986.39639385563
0.1193776641714435,3766.4034822310086
0.1240639159058831,3594.8833171542547
0.12893412965257148,3465.0763019862347
0.13399552696593373,3363.2037299407093
0.1392556128874462,3270.907129551049
0.14472218707411338,3169.0309028122406
0.15040335536380234,3042.0735596676386
0.15630754179458153,2882.536702184019
0.16244350109588662,2693.0482721756425
0.16882033167003618,2485.4521003374675
0.17544748908334581,2278.7737536082846
0.1823348000868439,2095.2191438988734
0.189492477187382,1950.9922781775922
0.19693113379074215,1847.6236085192518
0.20466179993919872,1773.355703794853
0.21269593866686892,1709.952072170737
0.22104546299710207,1636.7500112489745
0.22972275360711503,1539.8346553383155
0.23874067718606454,1422.611692634538
0.2481126055137766,1301.8717242907462
0.25785243528842716,1196.6194643762426
0.26797460873256895,1117.5636353284278
0.27849413500806414,1060.6721051648292
0.28942661247167484,1010.6330211052126
0.3007882518043098,951.282763393688
0.31259590004822796,880.2830612333541
0.324867065587837,807.9281464471402
0.3376199441111335,746.9194895051473
0.35087344559027084,700.5799386321316
0.36464722232127456,660.1570172037459
0.37896169806447155,616.2739614674896
0.3938380983288488,568.5638062108721
0.4092984818452433,524.7458578390189
0.4253657732750382,488.6960585232692
0.44206379720285277,456.7402544239195
0.45941731346364734,423.8541867223828
0.47745205385661277,391.2745481682625
0.4961947603002895,362.49445962499686
0.5156732244854959,336.99418109016113
0.5359163290848509,312.2239835888447
0.556954090580013,288.4253154195452
0.5788177037701272,266.9898770997007
0.6015395880274836,247.26031501905422
0.6251534353689703,228.4406202890938
0.6496942604146115,211.05706514477868
0.6751984523072497,195.0876556129595
0.7017038286703824,180.0939539581559
0.7292496916841444,166.2169755943492
0.7578768863625915,153.41170156495804
0.7876278611187046,141.51086662336095
0.8185467307069019,130.46539626238206
0.850679341636415,120.22701573155456
0.8840733401525058,110.74826169652155
0.9187782428863317,101.98271518062825
0.9548455102782278,93.88272300941892
0.9923286228832539,86.39966315525557
1.0312831606721837,79.48812222351359
1.0717668854455022,73.10596166759711
1.1138398264826193,67.21408201061192
1.1575643695533022,61.7763254389408
1.2030053494233226,56.759756092933976
1.2502301459914542,52.13383892541163
1.299308784200415,47.87003216138949
1.3503140378698726,43.94167951763425
1.4033215376054824,40.32390405266626
1.4584098829439835,36.993425371307914
1.5156607589006013,33.92847069929327
1.575159057091621,31.10881034766712
1.6369930016117014,28.515665918621952
1.7012542798525885,26.13161459653598
1.7680381784572046,23.940501786954012
1.8374437246107238,21.92736674614469
1.9095738328780953,20.078348376688485
1.9845354578058014,18.380605326829293
2.0624397525140905,16.822246804072304
2.143402233514853,15.39226735711387
2.227542951999554,14.080479841746413
2.314986671851158,12.877458971933844
2.405863054644063,11.774496490587985
2.5003068519063225,10.763550468440318
2.598458104929248,9.837197319358568
2.7004623524206774,8.988586930541654
2.806470846309834,8.211400640630268
2.916640776023701,7.499812503624951
3.031135501567576,6.848453007890176
3.150124795755327,6.252375170008048
3.2737850959485697,5.707022924447105
3.4022997656780634,5.208200356533448
3.5358593665351745,4.752044680684945
3.6746619407366854,4.335002904339957
3.8189133047818515,3.9538081599789354
3.968827354637162,3.605457624115612
4.1246263829013445,3.2871919650959454
4.286541408420921,2.9964761035222502
4.4548125188449825,2.730982047740904
4.629689226627261,2.4885727472015136
4.811430839003257,2.267287006225476
5.000306842491082,2.065325526698701
5.196597302486189,1.881037808301734
5.400593278542364,1.7129102883323883
5.612597255954967,1.5595556309098129
5.8329235942862,1.4197025535676526
6.06189899349756,1.292186424702395
6.29986297838068,1.1759405518773354
6.547168402004727,1.06998806193188
6.804181968927091,0.9734347296171952
7.071284778942991,0.8854622442325619
7.348872892180382,0.8053219430365824
7.637357916378006,0.732329037040611
7.937167617217536,0.6658571079888583
8.248746552614573,0.6053332905478201
8.572556731909314,0.5502340595332522
8.909078300934132,0.5000810902469659
9.258810253973934,0.45443744275169956
9.622271173675122,0.41290417698404425
9.999999999999984,0.3751174801427863
