k [1/Mpc],P(k) [Mpc^3]
0.0001,933.0050428108711
0.00010392556829367125,966.8111583045563
0.00010800523745162529,1001.8402585796492
0.00011224505680853065,1038.1363609667176
0.00011665131316981963,1075.745042640165
0.00012123054013376525,1114.7134670991227
0.00012598952777950273,1155.0904646709591
0.00013093533273536104,1196.9265943784917
0.00013607528864243335,1240.2742030594336
0.00014141701702890234,1285.187483362992
0.00014696843861124463,1331.722494730155
0.00015273778503907136,1379.937253894764
0.00015873361110102093,1429.8917647671053
0.00016496480740980205,1481.64803829042
0.0001714406135851971,1535.2702417793894
0.00017817063195457305,1590.8248177446621
0.00018516484179121546,1648.380547716857
0.000192433614111598,1708.0085396078023
0.00019998772705352857,1769.7821740733148
0.0002078383818579757,1833.7773145899332
0.00021599721947827182,1900.0723159506604
0.0002244763378413224,1968.7481052834091
0.0002332883097864157,2039.8883475643886
0.00024244620170823283,2113.579539428794
0.0002519635929317015,2189.911090502286
0.0002618545958474233,2268.975202463135
0.0002721338768375308,2350.866857093688
0.0002828166780230032,2435.684106194755
0.0002939188398646886,2523.5279657156802
0.0003054568246515432,2614.5026125566574
0.00031744774091091926,2708.7154922132113
0.00032990936877709396,2806.277318282938
0.00034286018635565856,2907.302255210742
0.00035631939712285854,3011.9076548602
0.000370306958400514,3120.2142249189405
0.00038484361094874304,3232.3461917195086
0.0003999509097203664,3348.431009237726
0.00041565125582259895,3468.599782732478
0.00043196792973341727,3592.9872158297803
0.0004489251258218605,3721.731652835215
0.0004665479882234472,3854.9751883802273
0.000484862648123908,3992.863004465712
0.000503896262506515,4135.543916684589
0.0005236770544204653,4283.170388538481
0.0005442343548300266,4435.8983732539455
0.0005655986461065005,4593.887633459391
0.0005878016072274912,4757.301015552636
0.0006108761607505036,4926.304795762623
0.0006348565216305217,5101.068703850461
0.0006597782479539537,5281.765322366332
0.0006856782936641739,5468.570721860089
0.0007125950633568407,5661.663782157291
0.0007405684692262436,5861.226231910636
0.0007696399902471156,6067.442643438642
0.0007998527336796708,6280.498832559434
0.000831251498989063,6500.583010160213
0.0008638828442740447,6727.885226872702
0.000897795155303332,6962.596954711908
0.0009330387172620361,7204.911308351388
0.0009696657893145519,7455.020214738157
0.001007730682094461,7713.115716408189
0.0010472898382363582,7979.38947659701
0.0010884019160690055,8254.031242093599
0.0011311278765939214,8537.229986777666
0.001175531073878369,8829.170037692615
0.0012216773489967915,9130.031777296843
0.0012696351276599736,9439.992131172125
0.0013194755216767058,9759.221779911764
0.0013712724343984,10087.886771906584
0.0014251026703029975,10426.145226714178
0.0014810460488806749,10774.146554594967
0.0015391855229902056,11132.032120865459
0.001599607301861487,11499.930018498757
0.0016624009789266115,11877.95752875018
0.0017276596646690358,12266.21834363593
0.0017954801246878305,12664.799910041233
0.0018659629231817451,13073.775589339737
0.001939212572065829,13493.199534004623
0.0020153376859417325,13923.10772016454
0.002094451143151469,14363.515703467456
0.002176670253153458,14814.413561668607
0.002262116930469025,15275.769320310452
0.002350917875457286,15747.523997299926
0.002443204762186487,16229.591203014232
0.0025391144336803463,16721.855993028166
0.002638789104828933,17224.16684575054
0.002742376573264949,17736.34031431607
0.0028500304385181063,18258.15655042724
0.0029619103297725525,18789.35709625985
0.0030781821425650787,19329.646324896552
0.003199018284775064,19878.68273945987
0.0033245979322709396,20436.082664761692
0.003455107294592217,21001.415649414248
0.0035907398910610534,21574.198883691162
0.0037316968377327513,22153.902615755214
0.0038781871456107214,22739.937467383363
0.0040304280305680515,23331.658697103037
0.00418864523543527,23928.363550244463
0.004353073364731888,24529.277277922978
0.00452395623253805,25133.568031455943
0.004701547224022131,25740.340719831198
0.004886109671160325,26348.638034212832
0.005077917243205399,26957.424956943203
0.005277254352483535,27565.520919136623
0.005484416576121017,28171.66296752802
0.005699711094326071,28774.618059863515
0.005923457145875801,29373.21335206062
0.006155986501483508,29966.16730654698
0.006397643955748424,30551.68415809279
0.0066487878384172625,31127.70713877692
0.0069097905457156435,31692.220561641745
0.007181039092537346,32243.37492844311
0.007462935686310132,32779.29812264029
0.007755898323389004,33298.06719225137
0.00806036140886134,33797.720084981986
0.008376776400682916,34276.152186050516
0.008705612479099857,34730.8932753236
0.009047357242349292,35159.37908856435
0.00940251742967013,35558.918482338864
0.009771619672696168,35926.713528011845
0.010155211276345676,36259.9267071254
0.010553861030365234,36555.53180981465
0.010968160052731372,36810.48356875964
0.011398722666160517,37021.645463304085
0.011846187309026826,37185.75068148206
0.012311217482038896,37299.59221973729
0.012794502732078732,37359.73433649811
0.013296759674662111,37362.765124337515
0.013818733056536317,37305.306764926776
0.014361196859990781,37183.82384379025
0.014924955450518284,36995.052325273035
0.015510844769528393,36735.69319729601
0.016119733573881575,36402.63363737535
0.01675252472408214,35993.13416213195
0.017410156523040152,35504.42104936955
0.018093604107387147,34934.34661766627
0.01880388089340914,34281.11319781155
0.019542040079740527,33543.37270517843
0.02030917620904734,32720.734198419275
0.021106426791015535,31813.205733506755
0.021934973989050584,30821.908016007095
0.02279604637318978,29748.992178277775
0.023690920741826323,28597.485384336178
0.02462092401494623,27371.98987807239
0.02558743520168586,26078.19942672012
0.02659188744512693,24723.264464688466
0.027635770147361564,23315.93740239972
0.028720631177978267,21866.273162750545
0.029848079169243254,20385.758210372354
0.03101978590138095,18887.30545891546
0.03223748878149028,17384.78918521369
0.0335029934197723,15892.833029671689
0.03481817630688963,14427.304728091305
0.03618498759642746,13003.293779627074
0.037605453996581675,11636.006681212106
0.03908168177536263,10339.902273366937
0.04061585988376978,9126.769196192117
0.04221026320156896,8009.483685863285
0.04386725591048496,6996.614897724558
0.0455892949998106,6092.911218785765
0.047378933909631396,5300.932241994349
0.049238826317067365,4618.99717562867
0.05117173007114603,4048.9078428708485
0.05318051128214196,3589.4366613470847
0.05526814857144601,3232.1894216518454
0.057437737488265785,2966.4083924495267
0.0596924950997073,2782.8002916916043
0.0620357647610427,2674.367451401312
0.06447102107323864,2634.0814814973673
0.06700187503509585,2654.8571737879042
0.06963207939763882,2727.1878550048405
0.0723655342286965,2838.66702648026
0.07520629269592405,2971.18908330188
0.07815856707684081,3101.8063618287993
0.08122673500479707,3203.7068073375567
0.08441534596012978,3250.856448544626
0.0877291280161335,3220.2197802622513
0.09117299484984914,3096.4953671594194
0.09475205302806537,2876.754853450584
0.09847160957933764,2571.1749711120283
0.1023371798632519,2204.652160729152
0.10635449574860109,1813.671629063419
0.11052951411260206,1439.4131630218812
0.1148684256737553,1117.324851530653
0.1193776641714435,868.867494119779
0.1240639159058831,700.2923212253141
0.12893412965257148,607.4777181967446
0.13399552696593373,582.1323331292376
0.1392556128874462,614.7884379168997
0.14472218707411338,692.5439596470856
0.15040335536380234,792.9271429318649
0.15630754179458153,880.3006818092975
0.16244350109588662,913.6399597838458
0.16882033167003618,866.1952430967385
0.17544748908334581,743.1082092664615
0.1823348000868439,580.0274545214585
0.189492477187382,424.24752869165656
0.19693113379074215,312.0819725068136
0.20466179993919872,256.4155939410098
0.21269593866686892,252.6225468889104
0.22104546299710207,288.0924831925008
0.22972275360711503,339.033382762571
0.23874067718606454,368.0823248424744
0.2481126055137766,345.6000314594138
0.25785243528842716,277.61767360633746
0.26797460873256895,201.91765901015742
0.27849413500806414,152.72087902738485
0.28942661247167484,140.18552033506245
0.3007882518043098,156.0677795891494
0.31259590004822796,177.07143845593518
0.324867065587837,174.65165419832152
0.3376199441111335,143.130231395952
0.35087344559027084,107.26548399625615
0.36464722232127456,89.91919026268458
0.37896169806447155,92.9466018758539
0.3938380983288488,100.68572398456952
0.4092984818452433,94.18357056981442
0.4253657732750382,75.41635316950685
0.44206379720285277,62.14601690986998
0.45941731346364734,61.077597919189266
0.47745205385661277,62.56318855468619
0.4961947603002895,55.876918084602
0.5156732244854959,46.13995844299767
0.5359163290848509,42.45092388812785
0.556954090580013,42.00680126194578
0.5788177037701272,37.84728976236122
0.6015395880274836,32.53414990800838
0.6251534353689703,30.496172384493775
0.6496942604146115,28.708041647520417
0.6751984523072497,25.591792196831708
0.7017038286703824,23.04933836745836
0.7292496916841444,20.95159185255215
0.7578768863625915,19.157645758930688
0.7876278611187046,17.56303455968632
0.8185467307069019,16.08996242731718
0.850679341636415,14.690786185720063
0.8840733401525058,13.370045364637221
0.9187782428863317,12.140293995475892
0.9548455102782278,11.008918958238946
0.9923286228832539,9.979067502679753
1.0312831606721837,9.050523362738247
1.0717668854455022,8.217107752617487
1.1138398264826193,7.466504886714577
1.1575643695533022,6.787752019831777
1.2030053494233226,6.171659861429466
1.2502301459914542,5.610512805463759
1.299308784200415,5.09790359924488
1.3503140378698726,4.629492385415655
1.4033215376054824,4.202122792810509
1.4584098829439835,3.8127696986211563
1.5156607589006013,3.4585315159149173
1.575159057091621,3.1366429941784117
1.6369930016117014,2.844438739331206
1.7012542798525885,2.579214566634657
1.7680381784572046,2.3384502862384675
1.8374437246107238,2.119868752235045
1.9095738328780953,1.9214113434665532
1.9845354578058014,1.7412161543847897
2.0624397525140905,1.5776129656335884
2.143402233514853,1.4291116029421589
2.227542951999554,1.2943541125102815
2.314986671851158,1.1721001992681324
2.405863054644063,1.0612175555360224
2.5003068519063225,0.9606727563319564
2.598458104929248,0.869520644266243
2.7004623524206774,0.7868983232137922
2.806470846309834,0.712020559575946
2.916640776023701,0.6441730216421444
3.031135501567576,0.582706022901589
3.150124795755327,0.52702872626551
3.2737850959485697,0.4766036385104446
3.4022997656780634,0.43094223877388343
3.5358593665351745,0.3896007425157628
3.6746619407366854,0.3521760751262837
3.8189133047818515,0.3183022017609068
3.968827354637162,0.28764692831629546
4.1246263829013445,0.25990893528610254
4.286541408420921,0.2348146457868797
4.4548125188449825,0.21211568484895407
4.629689226627261,0.19158660755682316
4.811430839003257,0.17302282029949495
5.000306842491082,0.15623858696216011
5.196597302486189,0.1410653688461974
5.400593278542364,0.1273503694962786
5.612597255954967,0.11495509061061468
5.8329235942862,0.10375401427889751
6.06189899349756,0.0936334054630397
6.29986297838068,0.08449022603444714
6.547168402004727,0.07623113921122993
6.804181968927091,0.06877160745737725
7.071284778942991,0.0620350749516386
7.348872892180382,0.0559522247573558
7.637357916378006,0.05046030246105309
7.937167617217536,0.04550250209255762
8.248746552614573,0.04102741356378593
8.572556731909314,0.03698851747587542
8.909078300934132,0.03334372597426211
9.258810253973934,0.030054966779298444
9.622271173675122,0.027087818822434793
9.999999999999984,0.02441116204903048
