k [1/Mpc],P(k) [Mpc^3]
0.0001,117.26349993965837
0.00010392556829367125,121.16405259114507
0.00010800523745162529,125.19427064272071
0.00011224505680853065,129.35846489781696
0.00011665131316981963,133.6610859926707
0.00012123054013376525,138.10672527679472
0.00012598952777950273,142.70012460725846
0.00013093533273536104,147.4461777571941
0.00013607528864243335,152.34993647674446
0.00014141701702890234,157.41662066112605
0.00014696843861124463,162.65162946415032
0.00015273778503907136,168.060541640328
0.00015873361110102093,173.6491158446887
0.00016496480740980205,179.42329572116765
0.0001714406135851971,185.3892191415527
0.00017817063195457305,191.55322076699858
0.00018516484179121546,197.92184095021443
0.000192433614111598,204.50183380544235
0.00019998772705352857,211.30017400821689
0.0002078383818579757,218.32406331734094
0.00021599721947827182,225.58093070128052
0.0002244763378413224,233.0784418827016
0.0002332883097864157,240.824511593018
0.00024244620170823283,248.82731246144226
0.0002519635929317015,257.09528183557643
0.0002618545958474233,265.63712057780606
0.0002721338768375308,274.4618003492793
0.0002828166780230032,283.5785782613718
0.0002939188398646886,292.99699602158637
0.0003054568246515432,302.7268956574395
0.00031744774091091926,312.7784317737718
0.00032990936877709396,323.16208065439343
0.00034286018635565856,333.88864775969796
0.00035631939712285854,344.9692501264614
0.000370306958400514,356.41533595492103
0.00038484361094874304,368.2387099931957
0.0003999509097203664,380.4515445863663
0.00041565125582259895,393.0663881292756
0.00043196792973341727,406.09614179473056
0.0004489251258218605,419.5540684947894
0.0004665479882234472,433.4538286066079
0.000484862648123908,447.80947971285974
0.000503896262506515,462.6354960169682
0.0005236770544204653,477.9467626206865
0.0005442343548300266,493.7585730048845
0.0005655986461065005,510.0866604462865
0.0005878016072274912,526.9471657106639
0.0006108761607505036,544.3566663714699
0.0006348565216305217,562.3321906830732
0.0006597782479539537,580.8911945176599
0.0006856782936641739,600.0516071498884
0.0007125950633568407,619.8318096116669
0.0007405684692262436,640.2506456510347
0.0007696399902471156,661.3274438016903
0.0007998527336796708,683.0819634216082
0.000831251498989063,705.5344506284004
0.0008638828442740447,728.7055983330265
0.000897795155303332,752.6165172500881
0.0009330387172620361,777.288814261905
0.0009696657893145519,802.7445519398241
0.001007730682094461,829.0062779440049
0.0010472898382363582,856.096983731534
0.0010884019160690055,884.0400034822538
0.0011311278765939214,912.8591290481637
0.001175531073878369,942.5784686875267
0.0012216773489967915,973.2224606127539
0.0012696351276599736,1004.8159497495557
0.0013194755216767058,1037.384066040909
0.0013712724343984,1070.95230841725
0.0014251026703029975,1105.5463512861759
0.0014810460488806749,1141.1919388075498
0.0015391855229902056,1177.9150669169
0.001599607301861487,1215.7417197704149
0.0016624009789266115,1254.6979799040857
0.0017276596646690358,1294.8099457565795
0.0017954801246878305,1336.103481426878
0.0018659629231817451,1378.60444063951
0.001939212572065829,1422.3383171369912
0.0020153376859417325,1467.330260290766
0.002094451143151469,1513.6051329731997
0.002176670253153458,1561.1870787336557
0.002262116930469025,1610.0997839440408
0.002350917875457286,1660.36608439821
0.002443204762186487,1712.0077560328189
0.0025391144336803463,1765.0458020077315
0.002638789104828933,1819.4999183607001
0.002742376573264949,1875.3886746394278
0.0028500304385181063,1932.7292369389247
0.0029619103297725525,1991.5368461754804
0.0030781821425650787,2051.825250095045
0.003199018284775064,2113.60604959209
0.0033245979322709396,2176.8887225264384
0.003455107294592217,2241.680638354015
0.0035907398910610534,2307.986294921145
0.0037316968377327513,2375.8077449304824
0.0038781871456107214,2445.1439054517227
0.0040304280305680515,2515.990250913854
0.00418864523543527,2588.339144106023
0.004353073364731888,2662.1786926132904
0.00452395623253805,2737.493209062178
0.004701547224022131,2814.2627212329626
0.004886109671160325,2892.462129958878
0.005077917243205399,2972.0619073563953
0.005277254352483535,3053.026258517982
0.005484416576121017,3135.313481352419
0.005699711094326071,3218.8764641240896
0.005923457145875801,3303.6616532325042
0.006155986501483508,3389.609586987644
0.006397643955748424,3476.6509205257776
0.0066487878384172625,3564.705772963514
0.0069097905457156435,3653.6888730635615
0.007181039092537346,3743.51690591015
0.007462935686310132,3834.103189526918
0.007755898323389004,3925.3375933189627
0.00806036140886134,4017.073066265437
0.008376776400682916,4109.1520042224065
0.008705612479099857,4201.43129685997
0.009047357242349292,4293.773872707872
0.00940251742967013,4386.024440146493
0.009771619672696168,4477.987570897422
0.010155211276345676,4569.452777887651
0.010553861030365234,4660.214309516102
0.010968160052731372,4750.071734485919
0.011398722666160517,4838.811969662916
0.011846187309026826,4926.185713820701
0.012311217482038896,5011.925983050973
0.012794502732078732,5095.750784092149
0.013296759674662111,5177.360151857201
0.013818733056536317,5256.444941351928
0.014361196859990781,5332.683710022146
0.014924955450518284,5405.746444794835
0.015510844769528393,5475.291271892386
0.016119733573881575,5540.9539366439285
0.01675252472408214,5602.364540293923
0.017410156523040152,5659.141458092416
0.018093604107387147,5710.894951041608
0.01880388089340914,5757.235607427452
0.019542040079740527,5797.7647780058805
0.02030917620904734,5832.088925156513
0.021106426791015535,5859.820201228835
0.021934973989050584,5880.576974002154
0.02279604637318978,5893.996585403726
0.023690920741826323,5899.736892918616
0.02462092401494623,5897.482184507544
0.02558743520168586,5886.9533704465575
0.02659188744512693,5867.917781672647
0.027635770147361564,5840.185752278149
0.028720631177978267,5803.639608939503
0.029848079169243254,5758.229504192331
0.03101978590138095,5703.970882519046
0.03223748878149028,5640.998149829458
0.0335029934197723,5569.510344392592
0.03481817630688963,5489.825254725629
0.03618498759642746,5402.393328663757
0.037605453996581675,5307.720672854471
0.03908168177536263,5206.487157723354
0.04061585988376978,5099.442627397138
0.04221026320156896,4987.427257876552
0.04386725591048496,4871.461493333304
0.0455892949998106,4752.5502820967995
0.047378933909631396,4631.744248982502
0.049238826317067365,4510.093625359866
0.05117173007114603,4388.602708747217
0.05318051128214196,4268.318987137205
0.05526814857144601,4150.21840756217
0.057437737488265785,4035.2621045795327
0.0596924950997073,3924.4060302409034
0.0620357647610427,3818.331167099676
0.06447102107323864,3716.8897682001675
0.06700187503509585,3619.6943976070106
0.06963207939763882,3525.9980949031865
0.0723655342286965,3434.87568723009
0.07520629269592405,3345.2035136448094
0.07815856707684081,3255.745583324903
0.08122673500479707,3165.1509397496875
0.08441534596012978,3072.0345436727916
0.0877291280161335,2974.9128546294237
0.09117299484984914,2872.456735157622
0.09475205302806537,2763.656725208709
0.09847160957933764,2648.2291673051022
0.1023371798632519,2526.8519180036596
0.10635449574860109,2401.4804620180867
0.11052951411260206,2275.09836453118
0.1148684256737553,2150.640415875121
0.1193776641714435,2030.7041526149496
0.1240639159058831,1918.036813127146
0.12893412965257148,1814.929991768016
0.13399552696593373,1722.921795376228
0.1392556128874462,1642.4236274634686
0.14472218707411338,1572.0797925585694
0.15040335536380234,1508.7871088986815
0.15630754179458153,1448.2940328513782
0.16244350109588662,1386.279668326504
0.16882033167003618,1319.5332657459421
0.17544748908334581,1246.8355178691686
0.1823348000868439,1169.3806908157912
0.189492477187382,1090.465534463529
0.19693113379074215,1014.3934751072384
0.20466179993919872,945.2186305068062
0.21269593866686892,885.7064866280131
0.22104546299710207,836.1699832164085
0.22972275360711503,793.8158222314012
0.23874067718606454,754.0363420686468
0.2481126055137766,712.7184910137628
0.25785243528842716,667.6556826926058
0.26797460873256895,619.7790878429872
0.27849413500806414,573.1185354930527
0.28942661247167484,531.6882994372488
0.3007882518043098,496.9411421351455
0.31259590004822796,467.38442641333415
0.324867065587837,439.5574861763298
0.3376199441111335,410.6004018767723
0.35087344559027084,380.2893929295293
0.36464722232127456,351.16281846926233
0.37896169806447155,325.68172308127504
0.3938380983288488,303.8406250889245
0.4092984818452433,283.5915469737707
0.4253657732750382,263.21968805467316
0.44206379720285277,243.04777280804663
0.45941731346364734,224.60276456716733
0.47745205385661277,208.41146730276714
0.4961947603002895,193.38450234700147
0.5156732244854959,178.73983719465312
0.5359163290848509,164.8546700166395
0.556954090580013,152.32385766980278
0.5788177037701272,140.8402394646032
0.6015395880274836,129.92069077935352
0.6251534353689703,119.70527414122023
0.6496942604146115,110.38051512602408
0.6751984523072497,101.72322187294307
0.7017038286703824,93.62352752056019
0.7292496916841444,86.15526916433953
0.7578768863625915,79.264076011278
0.7876278611187046,72.85950460519213
0.8185467307069019,66.94962372958425
0.850679341636415,61.494425385584584
0.8840733401525058,56.45451622327776
0.9187782428863317,51.80344122313797
0.9548455102782278,47.51387362229701
0.9923286228832539,43.56012341379436
1.0312831606721837,39.91806789407281
1.0717668854455022,36.56502793301052
1.1138398264826193,33.47970328897901
1.1575643695533022,30.642191682092083
1.2030053494233226,28.03391956203146
1.2502301459914542,25.63756850932346
1.299308784200415,23.437003320892774
1.3503140378698726,21.417196262440683
1.4033215376054824,19.564168064017135
1.4584098829439835,17.864930530840454
1.5156607589006013,16.307425449229157
1.575159057091621,14.880466273020923
1.6369930016117014,13.573680806598237
1.7012542798525885,12.377454412801786
1.7680381784572046,11.282887279349504
1.8374437246107238,10.281748441801037
1.9095738328780953,9.366430377766969
1.9845354578058014,8.5299061614327
2.0624397525140905,7.765687153488962
2.143402233514853,7.067784872684817
2.227542951999554,6.430679013657321
2.314986671851158,5.849283973830247
2.405863054644063,5.318917182639138
2.5003068519063225,4.835269396853131
2.598458104929248,4.394376153691277
2.7004623524206774,3.992592635478506
2.806470846309834,3.6265703216952563
2.916640776023701,3.293234419702772
3.031135501567576,2.989762846488444
3.150124795755327,2.7135663407524215
3.2737850959485697,2.462269322802096
3.4022997656780634,2.233694618064312
3.5358593665351745,2.0258481969868085
3.6746619407366854,1.836904523440393
3.8189133047818515,1.6651929973195783
3.968827354637162,1.5091853487795523
4.1246263829013445,1.3674840309872864
4.286541408420921,1.238811668050904
4.4548125188449825,1.1220011799589902
4.629689226627261,1.0159866581822643
4.811430839003257,0.9197949346172514
5.000306842491082,0.8325375650793243
5.196597302486189,0.7534038816522957
5.400593278542364,0.6816546919459864
5.612597255954967,0.6166162041442832
5.8329235942862,0.557674438428167
6.06189899349756,0.5042700896417952
6.29986297838068,0.4558937967891532
6.547168402004727,0.4120818520963263
6.804181968927091,0.37241224777160653
7.071284778942991,0.3365010406663754
7.348872892180382,0.3039990212804481
7.637357916378006,0.2745885810496051
7.937167617217536,0.2479808717565571
8.248746552614573,0.2239134515531272
8.572556731909314,0.20214795381265657
8.909078300934132,0.18246793129330427
9.258810253973934,0.1646768968234409
9.622271173675122,0.14859668180748595
9.999999999999984,0.1340657074357786
