k [1/Mpc],P(k) [Mpc^3]
0.0001,94.01211466625399
0.00010392556829367125,97.70165236389573
0.00010800523745162529,101.53590295287488
0.00011224505680853065,105.52054016144045
0.00011665131316981963,109.66145909250436
0.00012123054013376525,113.9647729304619
0.00012598952777950273,118.4368262545688
0.00013093533273536104,123.08421419298828
0.00013607528864243335,127.91379910184583
0.00014141701702890234,132.93271229242123
0.00014696843861124463,138.14835447943543
0.00015273778503907136,143.56840687839824
0.00015873361110102093,149.2008495566604
0.00016496480740980205,155.05397694734327
0.0001714406135851971,161.1364066942171
0.00017817063195457305,167.45708621605118
0.00018516484179121546,174.0253034679185
0.000192433614111598,180.8507043546093
0.00019998772705352857,187.94330204806897
0.0002078383818579757,195.31349348742663
0.00021599721947827182,202.9720769443776
0.0002244763378413224,210.9302683754589
0.0002332883097864157,219.19971432930794
0.00024244620170823283,227.7924919172753
0.0002519635929317015,236.72112863395083
0.0002618545958474233,245.99862828311686
0.0002721338768375308,255.6384860710153
0.0002828166780230032,265.65470940391674
0.0002939188398646886,276.06183637021434
0.0003054568246515432,286.8749551294549
0.00031744774091091926,298.10971752452303
0.00032990936877709396,309.78232340056235
0.00034286018635565856,321.9095638886488
0.00035631939712285854,334.50886116861045
0.000370306958400514,347.59829528831165
0.00038484361094874304,361.19661565834997
0.0003999509097203664,375.3232219032103
0.00041565125582259895,389.9982015751006
0.00043196792973341727,405.24236848830014
0.0004489251258218605,421.07727246271753
0.0004665479882234472,437.52523902321644
0.000484862648123908,454.6093699231371
0.000503896262506515,472.35356870402603
0.0005236770544204653,490.7825759843948
0.0005442343548300266,509.92194594949007
0.0005655986461065005,529.798110033433
0.0005878016072274912,550.4383964563337
0.0006108761607505036,571.8710451930563
0.0006348565216305217,594.1252517003871
0.0006597782479539537,617.2311197134844
0.0006856782936641739,641.2197238030221
0.0007125950633568407,666.1231417803356
0.0007405684692262436,691.9744404457688
0.0007696399902471156,718.8077473292717
0.0007998527336796708,746.6582048158264
0.000831251498989063,775.5620071135628
0.0008638828442740447,805.5564367537647
0.000897795155303332,836.6797668954364
0.0009330387172620361,868.9713851722154
0.0009696657893145519,902.4717776929748
0.001007730682094461,937.2225281180365
0.0010472898382363582,973.2663653891055
0.0010884019160690055,1010.6469638334045
0.0011311278765939214,1049.4090806525064
0.001175531073878369,1089.5985329434966
0.0012216773489967915,1131.2620869521359
0.0012696351276599736,1174.4476041427356
0.0013194755216767058,1219.2037555831132
0.0013712724343984,1265.5801008045235
0.0014251026703029975,1313.6271379042598
0.0014810460488806749,1363.3960378512595
0.0015391855229902056,1414.9388500210491
0.001599607301861487,1468.3081314766378
0.0016624009789266115,1523.556867031597
0.0017276596646690358,1580.7386909908523
0.0017954801246878305,1639.9075297652107
0.0018659629231817451,1701.1177554895949
0.001939212572065829,1764.4237793755872
0.0020153376859417325,1829.8796707765018
0.002094451143151469,1897.5395431396616
0.002176670253153458,1967.4569030666723
0.002262116930469025,2039.6847784342203
0.002350917875457286,2114.2756162545347
0.002443204762186487,2191.280705820665
0.0025391144336803463,2270.7504688349777
0.002638789104828933,2352.733484575303
0.002742376573264949,2437.276365426034
0.0028500304385181063,2524.4240507522186
0.0029619103297725525,2614.219067151791
0.0030781821425650787,2706.7017190140627
0.003199018284775064,2801.9091289673843
0.0033245979322709396,2899.874618667551
0.003455107294592217,3000.6282409083274
0.0035907398910610534,3104.195739647659
0.0037316968377327513,3210.5986741199185
0.0038781871456107214,3319.8537942042976
0.0040304280305680515,3431.9719485289397
0.00418864523543527,3546.9586540984287
0.004353073364731888,3664.812578663991
0.00452395623253805,3785.52545785238
0.004701547224022131,3909.0818531977593
0.004886109671160325,4035.4571021984552
0.005077917243205399,4164.618416916315
0.005277254352483535,4296.523788093901
0.005484416576121017,4431.121371277438
0.005699711094326071,4568.348589895795
0.005923457145875801,4708.124687602561
0.006155986501483508,4850.354978116717
0.006397643955748424,4994.94221371284
0.0066487878384172625,5141.79358192796
0.0069097905457156435,5290.8028075164675
0.007181039092537346,5441.803104156645
0.007462935686310132,5594.583352715562
0.007755898323389004,5748.93160101325
0.00806036140886134,5904.6695914408165
0.008376776400682916,6061.612546430972
0.008705612479099857,6219.5203926829845
0.009047357242349292,6378.098315972726
0.00940251742967013,6537.0390066893015
0.009771619672696168,6696.056726032101
0.010155211276345676,6854.86125636402
0.010553861030365234,7013.12138071686
0.010968160052731372,7170.452486356605
0.011398722666160517,7326.447180412177
0.011846187309026826,7480.66915284975
0.012311217482038896,7632.659077202144
0.012794502732078732,7781.936201976105
0.013296759674662111,7927.994482679663
0.013818733056536317,8070.310697275555
0.014361196859990781,8208.335576167332
0.014924955450518284,8341.49864978621
0.015510844769528393,8469.21252027721
0.016119733573881575,8590.857463667238
0.01675252472408214,8705.80235006101
0.017410156523040152,8813.404368688602
0.018093604107387147,8913.011222400442
0.01880388089340914,9003.973244690003
0.019542040079740527,9085.63729817808
0.02030917620904734,9157.359902724871
0.021106426791015535,9218.51782287631
0.021934973989050584,9268.513920516018
0.02279604637318978,9306.784207282742
0.023690920741826323,9332.819471611825
0.02462092401494623,9346.1642668052
0.02558743520168586,9346.429958047627
0.02659188744512693,9333.333713490303
0.027635770147361564,9306.663782413007
0.028720631177978267,9266.34616068873
0.029848079169243254,9212.441331301192
0.03101978590138095,9145.106512130867
0.03223748878149028,9064.713115996732
0.0335029934197723,8971.734685332287
0.03481817630688963,8866.828446796855
0.03618498759642746,8750.887334820278
0.037605453996581675,8624.859351980467
0.03908168177536263,8489.872375460807
0.04061585988376978,8347.126708490236
0.04221026320156896,8197.978074148723
0.04386725591048496,8044.159526331109
0.0455892949998106,7887.335322087719
0.047378933909631396,7728.4840275283095
0.049238826317067365,7568.074497909758
0.05117173007114603,7406.942911224643
0.05318051128214196,7247.41803331077
0.05526814857144601,7091.965715124637
0.057437737488265785,6941.238055085446
0.0596924950997073,6793.878872486718
0.0620357647610427,6648.479643266374
0.06447102107323864,6503.558199419406
0.06700187503509585,6357.6856422256815
0.06963207939763882,6209.334251677882
0.0723655342286965,6056.989705009363
0.07520629269592405,5899.2097600383195
0.07815856707684081,5734.633744145585
0.08122673500479707,5561.649171055988
0.08441534596012978,5378.87346962315
0.0877291280161335,5186.388394686242
0.09117299484984914,4985.257936220393
0.09475205302806537,4777.549181219454
0.09847160957933764,4566.515229078806
0.1023371798632519,4356.3190774349705
0.10635449574860109,4151.698074252765
0.11052951411260206,3956.7481561076206
0.1148684256737553,3774.705353223295
0.1193776641714435,3607.728356664804
0.1240639159058831,3456.529768966566
0.12893412965257148,3319.330265712892
0.13399552696593373,3191.8316659097322
0.1392556128874462,3067.5984364187357
0.14472218707411338,2940.4426021249915
0.15040335536380234,2806.4787000930687
0.15630754179458153,2665.0357744069574
0.16244350109588662,2518.5252612498543
0.16882033167003618,2371.6349881327583
0.17544748908334581,2229.97899180695
0.1823348000868439,2098.4777635661526
0.189492477187382,1980.4831266935244
0.19693113379074215,1876.9034102667695
0.20466179993919872,1784.371143955123
0.21269593866686892,1695.7747878827754
0.22104546299710207,1605.255268440641
0.22972275360711503,1511.4435800139695
0.23874067718606454,1416.157195493782
0.2481126055137766,1323.8050080972698
0.25785243528842716,1239.3888550542913
0.26797460873256895,1164.387619617139
0.27849413500806414,1096.753721823684
0.28942661247167484,1032.429091861514
0.3007882518043098,968.112923839406
0.31259590004822796,904.1479388313899
0.324867065587837,843.1133928745601
0.3376199441111335,787.4206571632217
0.35087344559027084,736.795082279395
0.36464722232127456,689.2297863169629
0.37896169806447155,642.9693630970586
0.3938380983288488,598.5908461861218
0.4092984818452433,557.2136222054392
0.4253657732750382,519.159259953024
0.44206379720285277,483.46821339627616
0.45941731346364734,449.48391538198683
0.47745205385661277,417.5352839891985
0.4961947603002895,387.8450702449872
0.5156732244854959,360.1747457683972
0.5359163290848509,334.1385762836273
0.556954090580013,309.8017504004734
0.5788177037701272,287.1481537264393
0.6015395880274836,265.9969265469955
0.6251534353689703,246.25841370128524
0.6496942604146115,227.87108822110773
0.6751984523072497,210.75510010360173
0.7017038286703824,194.82493333750622
0.7292496916841444,180.01119270589658
0.7578768863625915,166.24311056671309
0.7876278611187046,153.45853682439363
0.8185467307069019,141.59825213346366
0.850679341636415,130.59637364477894
0.8840733401525058,120.39420662680273
0.9187782428863317,110.93975351194409
0.9548455102782278,102.18374845373611
0.9923286228832539,94.0795820567429
1.0312831606721837,86.58321420657911
1.0717668854455022,79.65284525036193
1.1138398264826193,73.24883934816319
1.1575643695533022,67.33401730135479
1.2030053494233226,61.873557989267994
1.2502301459914542,56.83487393162455
1.299308784200415,52.18749483163928
1.3503140378698726,47.90298344429581
1.4033215376054824,43.954795732003376
1.4584098829439835,40.318149449204775
1.5156607589006013,36.969924608000966
1.575159057091621,33.888568157534316
1.6369930016117014,31.05399313382584
1.7012542798525885,28.447469809556246
1.7680381784572046,26.051579020378714
1.8374437246107238,23.850139641586008
1.9095738328780953,21.828129577783525
1.9845354578058014,19.971610951359445
2.0624397525140905,18.267660177681567
2.143402233514853,16.70430119639716
2.227542951999554,15.270440793302958
2.314986671851158,13.955809089742242
2.405863054644063,12.75090361917148
2.5003068519063225,11.646936118411487
2.598458104929248,10.63577694155102
2.7004623524206774,9.709913404026311
2.806470846309834,8.862411482525875
2.916640776023701,8.086874253603332
3.031135501567576,7.3774029326236645
3.150124795755327,6.728560267670976
3.2737850959485697,6.135335952861328
3.4022997656780634,5.593115920788932
3.5358593665351745,5.097653056704234
3.6746619407366854,4.645039606681648
3.8189133047818515,4.231681497246479
3.968827354637162,3.8542738297490295
4.1246263829013445,3.5097784737457958
4.286541408420921,3.1954047829679206
4.4548125188449825,2.9085904898411
4.629689226627261,2.646983849593048
4.811430839003257,2.4084270626349555
5.000306842491082,2.1909404828709773
5.196597302486189,1.9927087636009673
5.400593278542364,1.8120682167656605
5.612597255954967,1.647494635646653
5.8329235942862,1.4975920350456724
6.06189899349756,1.361082244741527
6.29986297838068,1.2367952733537484
6.547168402004727,1.1236605275649771
6.804181968927091,1.0206986778741538
7.071284778942991,0.927014137209168
7.348872892180382,0.8417881319097263
7.637357916378006,0.7642720806879834
7.937167617217536,0.6937815749380721
8.248746552614573,0.6296915641784854
8.572556731909314,0.5714314120721248
8.909078300934132,0.5184802794605722
9.258810253973934,0.4703629134834284
9.622271173675122,0.42664621698751326
9.999999999999984,0.3869354305489174
