k [1/Mpc],P(k) [Mpc^3]
0.0001,380.20553675287636
0.00010392556829367125,396.2541803809498
0.00010800523745162529,412.97865989505834
0.00011224505680853065,430.4072214231748
0.00011665131316981963,448.5692565493561
0.00012123054013376525,467.4953773788808
0.00012598952777950273,487.21748870195313
0.00013093533273536104,507.76881200030283
0.00013607528864243335,529.1838474504036
0.00014141701702890234,551.498424309225
0.00014696843861124463,574.7498338005901
0.00015273778503907136,598.9769320015857
0.00015873361110102093,624.220166284065
0.00016496480740980205,650.5215554616843
0.0001714406135851971,677.9247215657136
0.00017817063195457305,706.4750236821925
0.00018516484179121546,736.2196126054262
0.000192433614111598,767.2075072229218
0.00019998772705352857,799.4895973700553
0.0002078383818579757,833.1186367923075
0.00021599721947827182,868.1494192344722
0.0002244763378413224,904.6388493105122
0.0002332883097864157,942.6460230602021
0.00024244620170823283,982.2322370222179
0.0002519635929317015,1023.4609106744762
0.0002618545958474233,1066.397810690793
0.0002721338768375308,1111.1110745487642
0.0002828166780230032,1157.6712864830342
0.0002939188398646886,1206.1515785413799
0.0003054568246515432,1256.6275439073054
0.00031744774091091926,1309.1774347525075
0.00032990936877709396,1363.88208780323
0.00034286018635565856,1420.8249077843086
0.00035631939712285854,1480.0921265716465
0.000370306958400514,1541.7727077895154
0.00038484361094874304,1605.9585110188157
0.0003999509097203664,1672.744207957153
0.00041565125582259895,1742.2271017579208
0.00043196792973341727,1814.5074934280756
0.0004489251258218605,1889.688526848444
0.0004665479882234472,1967.876306783991
0.000484862648123908,2049.1798897751282
0.000503896262506515,2133.710918615269
0.0005236770544204653,2221.584027738821
0.0005442343548300266,2312.916600497051
0.0005655986461065005,2407.8287655354893
0.0005878016072274912,2506.4435097949645
0.0006108761607505036,2608.886076591518
0.0006348565216305217,2715.284371197251
0.0006597782479539537,2825.7686468793304
0.0006856782936641739,2940.471239582374
0.0007125950633568407,3059.5268144685424
0.0007405684692262436,3183.071235834721
0.0007696399902471156,3311.2419973154797
0.0007998527336796708,3444.177907296653
0.000831251498989063,3582.0182483044982
0.0008638828442740447,3724.9033631971934
0.000897795155303332,3872.9729824808774
0.0009330387172620361,4026.3663825943477
0.0009696657893145519,4185.222155662853
0.001007730682094461,4349.676136400928
0.0010472898382363582,4519.86266586107
0.0010884019160690055,4695.912984772983
0.0011311278765939214,4877.954704286361
0.001175531073878369,5066.111916221784
0.0012216773489967915,5260.502284351296
0.0012696351276599736,5461.238214021649
0.0013194755216767058,5668.426481249485
0.0013712724343984,5882.167353244028
0.0014251026703029975,6102.553666969699
0.0014810460488806749,6329.665565320462
0.0015391855229902056,6563.571985889991
0.001599607301861487,6804.330832676646
0.0016624009789266115,7051.987121704175
0.0017276596646690358,7306.573050704677
0.0017954801246878305,7568.103990795255
0.0018659629231817451,7836.578314162336
0.001939212572065829,8111.977407147631
0.0020153376859417325,8394.262924033741
0.002094451143151469,8683.377229327907
0.002176670253153458,8979.239699509362
0.002262116930469025,9281.745470229678
0.002350917875457286,9590.766241585608
0.002443204762186487,9906.14744695911
0.0025391144336803463,10227.708463637013
0.002638789104828933,10555.239674492672
0.002742376573264949,10888.500303254796
0.0028500304385181063,11227.219467400342
0.0029619103297725525,11571.09124217412
0.0030781821425650787,11919.775998359331
0.003199018284775064,12272.897958938103
0.0033245979322709396,12630.040736664572
0.003455107294592217,12990.751490776072
0.0035907398910610534,13354.534623382588
0.0037316968377327513,13720.853352422018
0.0038781871456107214,14089.13229514886
0.0040304280305680515,14458.7549863025
0.00418864523543527,14829.06404717886
0.004353073364731888,15199.309836046315
0.00452395623253805,15568.650116523911
0.004701547224022131,15936.233289128004
0.004886109671160325,16301.33848098697
0.005077917243205399,16663.26208694414
0.005277254352483535,17020.990947577255
0.005484416576121017,17373.081190190813
0.005699711094326071,17718.036907029527
0.005923457145875801,18054.605855441463
0.006155986501483508,18381.632183312187
0.006397643955748424,18697.922026640295
0.0066487878384172625,19002.228845627287
0.0069097905457156435,19293.27055236301
0.007181039092537346,19569.541986392716
0.007462935686310132,19829.390339239264
0.007755898323389004,20071.114222782322
0.00806036140886134,20292.901716461998
0.008376776400682916,20492.924073999053
0.008705612479099857,20669.250541521895
0.009047357242349292,20819.871469751433
0.00940251742967013,20942.78981599472
0.009771619672696168,21035.920503979698
0.010155211276345676,21097.22265830887
0.010553861030365234,21124.559035357957
0.010968160052731372,21115.653093818946
0.011398722666160517,21068.333625222705
0.011846187309026826,20980.25186565102
0.012311217482038896,20849.1595151633
0.012794502732078732,20672.92135740545
0.013296759674662111,20449.37909213703
0.013818733056536317,20176.72786913497
0.014361196859990781,19853.079299947123
0.014924955450518284,19476.792661803098
0.015510844769528393,19046.673151871433
0.016119733573881575,18561.574851623718
0.01675252472408214,18021.136570803894
0.017410156523040152,17425.279703015032
0.018093604107387147,16774.4591759024
0.01880388089340914,16070.194724872741
0.019542040079740527,15314.247796652284
0.02030917620904734,14509.743136063678
0.021106426791015535,13660.639764423628
0.021934973989050584,12771.657220657873
0.02279604637318978,11849.332417330457
0.023690920741826323,10900.613487765684
0.02462092401494623,9934.131815524232
0.02558743520168586,8959.601769227553
0.02659188744512693,7986.921327479481
0.027635770147361564,7027.9841786958
0.028720631177978267,6094.622108891485
0.029848079169243254,5199.382865361509
0.03101978590138095,4354.476004769616
0.03223748878149028,3569.3831542573653
0.0335029934197723,2854.5631015507815
0.03481817630688963,2219.712066279246
0.03618498759642746,1672.2347065179138
0.037605453996581675,1214.5057760291793
0.03908168177536263,841.098202820322
0.04061585988376978,548.4859185363315
0.04221026320156896,333.60651153250376
0.04386725591048496,188.2642773902943
0.0455892949998106,97.1097534785924
0.047378933909631396,42.78187507574963
0.049238826317067365,15.157435704372105
0.05117173007114603,5.553058188701949
0.05318051128214196,3.2893520905846048
0.05526814857144601,3.800958088594037
0.057437737488265785,8.125871880023736
0.0596924950997073,23.210468760855107
0.0620357647610427,56.87508472822067
0.06447102107323864,114.28349575753633
0.06700187503509585,203.62680728286063
0.06963207939763882,323.1583174910302
0.0723655342286965,460.9815159828965
0.07520629269592405,601.0771531525966
0.07815856707684081,720.0490833453597
0.08122673500479707,794.7932917172229
0.08441534596012978,804.5691181349802
0.0877291280161335,739.4104839237912
0.09117299484984914,616.8785309614568
0.09475205302806537,445.93545679141636
0.09847160957933764,280.37201505214335
0.1023371798632519,158.74942413869397
0.10635449574860109,43.76246144959603
0.11052951411260206,27.441587769192846
0.1148684256737553,0.2456243957693914
0.1193776641714435,0.00016979984823298764
0.1240639159058831,0.3298934044351985
0.12893412965257148,6.912944899719538
0.13399552696593373,34.735876873821915
0.1392556128874462,88.02248228772285
0.14472218707411338,153.66010414010185
0.15040335536380234,197.80497197611055
0.15630754179458153,195.17234781336572
0.16244350109588662,144.83502496300719
0.16882033167003618,76.64452926653273
0.17544748908334581,26.031261151206404
0.1823348000868439,4.829635971326379
0.189492477187382,0.8610986600597413
0.19693113379074215,2.5674883931587433
0.20466179993919872,14.660398438826912
0.21269593866686892,41.48486139372019
0.22104546299710207,65.72747304898304
0.22972275360711503,63.3365018369066
0.23874067718606454,37.13331028761576
0.2481126055137766,12.610191882637052
0.25785243528842716,3.2411169417729715
0.26797460873256895,3.1375772988412627
0.27849413500806414,10.277911730194385
0.28942661247167484,22.94152478136514
0.3007882518043098,26.60450080845433
0.31259590004822796,16.219332975123077
0.324867065587837,5.9586250415194915
0.3376199441111335,3.2719420488243154
0.35087344559027084,6.139887805729947
0.36464722232127456,11.603633283158665
0.37896169806447155,11.402893285968004
0.3938380983288488,6.011013792289361
0.4092984818452433,3.2903093520672506
0.4253657732750382,4.413030688268554
0.44206379720285277,6.592753202110273
0.45941731346364734,5.458670350238849
0.47745205385661277,3.1808076819850744
0.4961947603002895,3.0286469133767
0.5156732244854959,3.965676797116623
0.5359163290848509,3.4147570802320093
0.556954090580013,2.3926902297046455
0.5788177037701272,2.4930160518662334
0.6015395880274836,2.5593687577419835
0.6251534353689703,2.405400870694981
0.6496942604146115,2.201489519972605
0.6751984523072497,1.9767205002181947
0.7017038286703824,1.7540772328227046
0.7292496916841444,1.549538154883799
0.7578768863625915,1.3727177715013923
0.7876278611187046,1.2264176731785905
0.8185467307069019,1.1045105250689533
0.850679341636415,1.0008324862799318
0.8840733401525058,0.9107491358119318
0.9187782428863317,0.8307450133772533
0.9548455102782278,0.7581502753119191
0.9923286228832539,0.6913511754631296
1.0312831606721837,0.6299268746959005
1.0717668854455022,0.5735830282745602
1.1138398264826193,0.5220160698431746
1.1575643695533022,0.47491903671808916
1.2030053494233226,0.43198581234084016
1.2502301459914542,0.39289050299201117
1.299308784200415,0.35729322146495207
1.3503140378698726,0.3248818341004504
1.4033215376054824,0.2953722509451703
1.4584098829439835,0.2685058655546534
1.5156607589006013,0.2440473412971367
1.575159057091621,0.22178414761110482
1.6369930016117014,0.20152364211597737
1.7012542798525885,0.18308959220153498
1.7680381784572046,0.1663207871190999
1.8374437246107238,0.1510698143306096
1.9095738328780953,0.13720184593382462
1.9845354578058014,0.12459299277194957
2.0624397525140905,0.1131299558237017
2.143402233514853,0.1027095605107005
2.227542951999554,0.09323785965441395
2.314986671851158,0.08462931165703905
2.405863054644063,0.07680610992604434
2.5003068519063225,0.06969777850628034
2.598458104929248,0.06324014759610241
2.7004623524206774,0.057374663840003774
2.806470846309834,0.05204791553203138
2.916640776023701,0.04721119612645487
3.031135501567576,0.042820024475861494
3.150124795755327,0.0388336548508538
3.2737850959485697,0.03521500519515081
3.4022997656780634,0.03193037876649341
3.5358593665351745,0.028949155193651255
3.6746619407366854,0.02624351028730566
3.8189133047818515,0.023788214802422252
3.968827354637162,0.021560424509479332
4.1246263829013445,0.019539351829563602
4.286541408420921,0.017706072867468614
4.4548125188449825,0.01604336446642987
4.629689226627261,0.014535553942561882
4.811430839003257,0.01316834973639597
5.000306842491082,0.011928725535035739
5.196597302486189,0.010804853523641262
5.400593278542364,0.009785997050876134
5.612597255954967,0.008862410287145836
5.8329235942862,0.008025248394433025
6.06189899349756,0.007266500870261648
6.29986297838068,0.006578904454801255
6.547168402004727,0.005955859458588147
6.804181968927091,0.005391369846455359
7.071284778942991,0.0048799889850373555
7.348872892180382,0.004416768891786316
7.637357916378006,0.003997207503098543
7.937167617217536,0.0036172162183704406
8.248746552614573,0.003273087157812877
8.572556731909314,0.0029614579099664223
8.909078300934132,0.002679279499887932
9.258810253973934,0.0024237883274750094
9.622271173675122,0.0021924827158958473
9.999999999999984,0.0019830942231348105
