k [1/Mpc],P(k) [Mpc^3]
0.0001,94.4273779994016
0.00010392556829367125,97.85023838490747
0.00010800523745162529,101.39708808749435
0.00011224505680853065,105.07240844449106
0.00011665131316981963,108.88084277135643
0.00012123054013376525,112.82720471008776
0.00012598952777950273,116.91648345126923
0.00013093533273536104,121.15384392560762
0.00013607528864243335,125.54462383218538
0.00014141701702890234,130.09434950763597
0.00014696843861124463,134.8087510602029
0.00015273778503907136,139.69377009884596
0.00015873361110102093,144.75556095358286
0.00016496480740980205,150.00049460846463
0.0001714406135851971,155.4351687117809
0.00017817063195457305,161.06641163151693
0.00018516484179121546,166.9012871335097
0.000192433614111598,172.9471096990762
0.00019998772705352857,179.21145771212238
0.0002078383818579757,185.70218109856847
0.00021599721947827182,192.42740154378515
0.0002244763378413224,199.39550988018286
0.0002332883097864157,206.6151896811461
0.00024244620170823283,214.09543863101936
0.0002519635929317015,221.8455788578895
0.0002618545958474233,229.8752559802788
0.0002721338768375308,238.19443175206422
0.0002828166780230032,246.81340905130827
0.0002939188398646886,255.7428406376971
0.0003054568246515432,264.99373700168115
0.00031744774091091926,274.57748670058515
0.00032990936877709396,284.50586343687564
0.00034286018635565856,294.7910417031349
0.00035631939712285854,305.4456021143836
0.000370306958400514,316.4825309228724
0.00038484361094874304,327.9152495608695
0.0003999509097203664,339.75761757752963
0.00041565125582259895,352.02394869948034
0.00043196792973341727,364.72902042635053
0.0004489251258218605,377.88805041788464
0.0004665479882234472,391.5167429953863
0.000484862648123908,405.6313099938078
0.000503896262506515,420.2484845038602
0.0005236770544204653,435.38552692855075
0.0005442343548300266,451.06017157936435
0.0005655986461065005,467.290679872939
0.0005878016072274912,484.0958709109302
0.0006108761607505036,501.495125124013
0.0006348565216305217,519.508408727606
0.0006597782479539537,538.1562267118165
0.0006856782936641739,557.459653281322
0.0007125950633568407,577.4403604288516
0.0007405684692262436,598.1205808668918
0.0007696399902471156,619.5231663920221
0.0007998527336796708,641.6715510499698
0.000831251498989063,664.5897537180058
0.0008638828442740447,688.3024211157033
0.000897795155303332,712.8347438822134
0.0009330387172620361,738.2125272096347
0.0009696657893145519,764.462163217045
0.001007730682094461,791.6105850787717
0.0010472898382363582,819.6853397519246
0.0010884019160690055,848.7144181958143
0.0011311278765939214,878.7263216824509
0.001175531073878369,909.7500853100103
0.0012216773489967915,941.8151489748074
0.0012696351276599736,974.951473014637
0.0013194755216767058,1009.1893370103554
0.0013712724343984,1044.5593259864888
0.0014251026703029975,1081.0923937237694
0.0014810460488806749,1118.8195129851567
0.0015391855229902056,1157.7718940325033
0.001599607301861487,1197.9808669001275
0.0016624009789266115,1239.4777443108433
0.0017276596646690358,1282.2939436001514
0.0017954801246878305,1326.4605427940048
0.0018659629231817451,1372.0084202142793
0.001939212572065829,1418.9681668743633
0.0020153376859417325,1467.3697076154017
0.002094451143151469,1517.2425776762846
0.002176670253153458,1568.615420190794
0.002262116930469025,1621.5159610643263
0.002350917875457286,1675.971089248964
0.002443204762186487,1732.0062727073935
0.0025391144336803463,1789.6458464737084
0.002638789104828933,1848.912576500325
0.002742376573264949,1909.8273777470686
0.0028500304385181063,1972.4095284000819
0.0029619103297725525,2036.6758678810297
0.0030781821425650787,2102.6410245094557
0.003199018284775064,2170.317049362708
0.0033245979322709396,2239.71271686398
0.003455107294592217,2310.8340221135227
0.0035907398910610534,2383.683289265153
0.0037316968377327513,2458.259176156026
0.0038781871456107214,2534.556524549687
0.0040304280305680515,2612.565095512875
0.00418864523543527,2692.270322837402
0.004353073364731888,2773.652415469191
0.00452395623253805,2856.6859736309025
0.004701547224022131,2941.340217803574
0.004886109671160325,3027.5768710284733
0.005077917243205399,3115.3511771345106
0.005277254352483535,3204.6116497644216
0.005484416576121017,3295.299265413883
0.005699711094326071,3387.347564869766
0.005923457145875801,3480.6765500106358
0.006155986501483508,3575.1946365453928
0.006397643955748424,3670.8059242233435
0.0066487878384172625,3767.417799149024
0.0069097905457156435,3864.930809571217
0.007181039092537346,3963.2063509267946
0.007462935686310132,4062.066279819706
0.007755898323389004,4161.325697229387
0.00806036140886134,4260.8226154798085
0.008376776400682916,4360.395551394534
0.008705612479099857,4459.849341908964
0.009047357242349292,4558.941707183929
0.00940251742967013,4657.417039166354
0.009771619672696168,4755.030027940097
0.010155211276345676,4851.536064992498
0.010553861030365234,4946.665509653832
0.010968160052731372,5040.101487091079
0.011398722666160517,5131.509365375343
0.011846187309026826,5220.530938108051
0.012311217482038896,5306.787628807767
0.012794502732078732,5389.886235983244
0.013296759674662111,5469.40644371021
0.013818733056536317,5544.915785567107
0.014361196859990781,5615.961036160326
0.014924955450518284,5682.06629647908
0.015510844769528393,5742.748349496199
0.016119733573881575,5797.489862959119
0.01675252472408214,5845.7635018127085
0.017410156523040152,5887.035257744485
0.018093604107387147,5920.753224038753
0.01880388089340914,5946.377864376199
0.019542040079740527,5963.359869611741
0.02030917620904734,5971.157995342153
0.021106426791015535,5969.257773432933
0.021934973989050584,5957.15360113493
0.02279604637318978,5934.38616730591
0.023690920741826323,5900.539412151149
0.02462092401494623,5855.248334545596
0.02558743520168586,5798.227186423043
0.02659188744512693,5729.273003171569
0.027635770147361564,5648.278362644408
0.028720631177978267,5555.258350135377
0.029848079169243254,5450.366829279451
0.03101978590138095,5333.879166400925
0.03223748878149028,5206.2677123964395
0.0335029934197723,5068.1541175565835
0.03481817630688963,4920.321149661826
0.03618498759642746,4763.817205224207
0.037605453996581675,4599.774015153108
0.03908168177536263,4429.560873761324
0.04061585988376978,4254.713223874673
0.04221026320156896,4076.8033749617684
0.04386725591048496,3897.7697519291005
0.0455892949998106,3719.484475605073
0.047378933909631396,3543.748969045202
0.049238826317067365,3372.331087740164
0.05117173007114603,3206.796904341445
0.05318051128214196,3049.063425826856
0.05526814857144601,2900.9563233866106
0.057437737488265785,2763.8806247660586
0.0596924950997073,2638.8800400124182
0.0620357647610427,2526.5801098397114
0.06447102107323864,2426.879938425989
0.06700187503509585,2339.402850814967
0.06963207939763882,2263.204412883926
0.0723655342286965,2197.1093548961585
0.07520629269592405,2139.3956176111465
0.07815856707684081,2088.012996260879
0.08122673500479707,2040.3373347900701
0.08441534596012978,1993.2019288791423
0.0877291280161335,1943.147771570522
0.09117299484984914,1887.0633920660068
0.09475205302806537,1821.8308728902748
0.09847160957933764,1744.87524306312
0.1023371798632519,1655.5278043909295
0.10635449574860109,1554.8377735003332
0.11052951411260206,1445.5975061964048
0.1148684256737553,1331.86683617716
0.1193776641714435,1218.7553649882934
0.1240639159058831,1111.733472946509
0.12893412965257148,1015.9092359154254
0.13399552696593373,935.2999958468057
0.1392556128874462,872.0281587046242
0.14472218707411338,825.9789740485561
0.15040335536380234,794.8704379125173
0.15630754179458153,774.4338943574403
0.16244350109588662,758.6960981420839
0.16882033167003618,740.6990882479676
0.17544748908334581,714.0111616204046
0.1823348000868439,674.6948183143487
0.189492477187382,622.8621856193525
0.19693113379074215,563.1397994474946
0.20466179993919872,503.4328482820813
0.21269593866686892,451.82926229908685
0.22104546299710207,413.4488113260158
0.22972275360711503,389.36106500930686
0.23874067718606454,376.5385594459561
0.2481126055137766,368.0035347938141
0.25785243528842716,355.3310282878485
0.26797460873256895,333.30888876938263
0.27849413500806414,302.62516750728753
0.28942661247167484,269.4211445007737
0.3007882518043098,241.57094619201933
0.31259590004822796,223.59035110496959
0.324867065587837,214.083445790885
0.3376199441111335,206.72885725489326
0.35087344559027084,195.1189843600929
0.36464722232127456,177.6244060297157
0.37896169806447155,158.70603913038133
0.3938380983288488,144.28902079514003
0.4092984818452433,135.77919023790568
0.4253657732750382,129.39740937513068
0.44206379720285277,120.50863026441584
0.45941731346364734,108.98449518039287
0.47745205385661277,98.70536425197496
0.4961947603002895,91.88003917623145
0.5156732244854959,86.43911999608976
0.5359163290848509,79.6272762354537
0.556954090580013,72.20675334508195
0.5788177037701272,66.41652652809788
0.6015395880274836,61.91829448136242
0.6251534353689703,56.9923085448719
0.6496942604146115,51.93774668024492
0.6751984523072497,47.874778149871744
0.7017038286703824,44.24855696147035
0.7292496916841444,40.47329087470934
0.7578768863625915,37.12521341617495
0.7876278611187046,34.19220726916246
0.8185467307069019,31.42405251412812
0.850679341636415,28.820211492421727
0.8840733401525058,26.395450847252324
0.9187782428863317,24.157690158659832
0.9548455102782278,22.10892551790964
0.9923286228832539,20.239139717951417
1.0312831606721837,18.52985976486153
1.0717668854455022,16.96453306278665
1.1138398264826193,15.528710872714543
1.1575643695533022,14.20975645980415
1.2030053494233226,12.99669884098212
1.2502301459914542,11.881203389900337
1.299308784200415,10.856509583836756
1.3503140378698726,9.916187300957887
1.4033215376054824,9.054119683396848
1.4584098829439835,8.264508791896963
1.5156607589006013,7.541843494840158
1.575159057091621,6.880691943122424
1.6369930016117014,6.275922543401168
1.7012542798525885,5.722826490096401
1.7680381784572046,5.217083733246737
1.8374437246107238,4.754730886230085
1.9095738328780953,4.332140640140776
1.9845354578058014,3.9460232533165356
2.0624397525140905,3.5933591814995856
2.143402233514853,3.2713644359652894
2.227542951999554,2.9774737713718364
2.314986671851158,2.70932491031349
2.405863054644063,2.464741031277237
2.5003068519063225,2.241712781108824
2.598458104929248,2.03839439806136
2.7004623524206774,1.8530927231377028
2.806470846309834,1.6842551215650217
2.916640776023701,1.530458312702956
3.031135501567576,1.390398628717722
3.150124795755327,1.262882753784671
3.2737850959485697,1.1468175574858657
3.4022997656780634,1.0412019116387703
3.5358593665351745,0.9451192887692019
3.6746619407366854,0.8577309102597617
3.8189133047818515,0.778269031379243
3.968827354637162,0.7060311675401758
4.1246263829013445,0.6403753294878269
4.286541408420921,0.5807150299704544
4.4548125188449825,0.5265146450829856
4.629689226627261,0.47728514719767395
4.811430839003257,0.43258018160815315
5.000306842491082,0.3919924598458824
5.196597302486189,0.3551504457128528
5.400593278542364,0.3217153120059831
5.612597255954967,0.2913781465639376
5.8329235942862,0.2638573872951302
6.06189899349756,0.2388964627606288
6.29986297838068,0.216261642000441
6.547168402004727,0.1957400624858014
6.804181968927091,0.17713791705978774
7.071284778942991,0.1602787931252599
7.348872892180382,0.14500213485021857
7.637357916378006,0.13116177723123346
7.937167617217536,0.118624771191334
8.248746552614573,0.10727025582782547
8.572556731909314,0.09698838179377496
8.909078300934132,0.08767932821433706
9.258810253973934,0.07925243536168702
9.622271173675122,0.0716254515533368
9.999999999999984,0.06472366396069786
