k [1/Mpc],P(k) [Mpc^3]
0.0001,42.760218087075934
0.00010392556829367125,44.43847862269531
0.00010800523745162529,46.18258139718413
0.00011224505680853065,47.99510969999305
0.00011665131316981963,49.87874413575022
0.00012123054013376525,51.83626716211698
0.00012598952777950273,53.870570345990366
0.00013093533273536104,55.984660610108826
0.00013607528864243335,58.18166285627659
0.00014141701702890234,60.46482297037175
0.00014696843861124463,62.83751234241615
0.00015273778503907136,65.30323357965673
0.00015873361110102093,67.86562492905513
0.00016496480740980205,70.52846601205897
0.0001714406135851971,73.29568385721177
0.00017817063195457305,76.17135881679037
0.00018516484179121546,79.15972962432573
0.000192433614111598,82.26519586640839
0.00019998772705352857,85.49232570164195
0.0002078383818579757,88.8458639433671
0.00021599721947827182,92.33073855507908
0.0002244763378413224,95.95206800629498
0.0002332883097864157,99.71516887743137
0.00024244620170823283,103.6255633916688
0.0002519635929317015,107.68898521060522
0.0002618545958474233,111.91138228187869
0.0002721338768375308,116.29892936191837
0.0002828166780230032,120.85803506971332
0.0002939188398646886,125.595349927225
0.0003054568246515432,130.5177781631337
0.00031744774091091926,135.63248692723076
0.00032990936877709396,140.94691629181207
0.00034286018635565856,146.46878531188287
0.00035631939712285854,152.20609888624816
0.000370306958400514,158.16716233062857
0.00038484361094874304,164.36057824105598
0.0003999509097203664,170.7952627276834
0.00041565125582259895,177.48046700913514
0.00043196792973341727,184.42579363582234
0.0004489251258218605,191.64120307863482
0.0004665479882234472,199.1370042629262
0.000484862648123908,206.9238681938986
0.000503896262506515,215.0128539988445
0.0005236770544204653,223.41541479909884
0.0005442343548300266,232.14341716926884
0.0005655986461065005,241.20914192010187
0.0005878016072274912,250.62529250580317
0.0006108761607505036,260.40502297146475
0.0006348565216305217,270.5619420984114
0.0006597782479539537,281.1101344336815
0.0006856782936641739,292.0641536208788
0.0007125950633568407,303.4390115938211
0.0007405684692262436,315.25023029108775
0.0007696399902471156,327.51385768372637
0.0007998527336796708,340.2464844419897
0.000831251498989063,353.4652349566952
0.0008638828442740447,367.1877307179197
0.000897795155303332,381.43215614040685
0.0009330387172620361,396.21726385531
0.0009696657893145519,411.56238898732545
0.001007730682094461,427.4874617062465
0.0010472898382363582,444.0129566452302
0.0010884019160690055,461.15995321126417
0.0011311278765939214,478.95011221692164
0.001175531073878369,497.4056617218721
0.0012216773489967915,516.5494535678
0.0012696351276599736,536.4048857038603
0.0013194755216767058,556.9959568888697
0.0013712724343984,578.3472375139118
0.0014251026703029975,600.4837898238463
0.0014810460488806749,623.4312751372671
0.0015391855229902056,647.215859998338
0.001599607301861487,671.8642426175971
0.0016624009789266115,697.403631867461
0.0017276596646690358,723.8615564907352
0.0017954801246878305,751.2660266862866
0.0018659629231817451,779.6454441766311
0.001939212572065829,809.0285751675054
0.0020153376859417325,839.4445668452204
0.002094451143151469,870.9226684501401
0.002176670253153458,903.49238130587
0.002262116930469025,937.183331410155
0.002350917875457286,972.0251300691706
0.002443204762186487,1008.0474943781938
0.0025391144336803463,1045.279917482057
0.002638789104828933,1083.7517512897384
0.002742376573264949,1123.492109231759
0.0028500304385181063,1164.5295770600833
0.0029619103297725525,1206.8923895916046
0.0030781821425650787,1250.6080464435886
0.003199018284775064,1295.7032891202398
0.0033245979322709396,1342.204084183073
0.003455107294592217,1390.1351714405907
0.0035907398910610534,1439.5202554233822
0.0037316968377327513,1490.3815400484903
0.0038781871456107214,1542.7395273171526
0.0040304280305680515,1596.613153883167
0.00418864523543527,1652.019157447963
0.004353073364731888,1708.9722534893735
0.00452395623253805,1767.4847109046989
0.004701547224022131,1827.5658857823641
0.004886109671160325,1889.222491405749
0.005077917243205399,1952.4577171008416
0.005277254352483535,2017.2713495957353
0.005484416576121017,2083.659498998835
0.005699711094326071,2151.613753994649
0.005923457145875801,2221.12168811177
0.006155986501483508,2292.166172052678
0.006397643955748424,2364.725239880358
0.0066487878384172625,2438.7714871201033
0.0069097905457156435,2514.2696826748847
0.007181039092537346,2591.1785659646957
0.007462935686310132,2669.454601939556
0.007755898323389004,2749.0525925396582
0.00806036140886134,2829.91912481552
0.008376776400682916,2911.9773742306024
0.008705612479099857,2995.1364056287985
0.009047357242349292,3079.301971839885
0.00940251742967013,3164.3806136624517
0.009771619672696168,3250.2722756008984
0.010155211276345676,3336.870682733753
0.010553861030365234,3424.0627749546184
0.010968160052731372,3511.723465246189
0.011398722666160517,3599.7082765134337
0.011846187309026826,3687.8618651979396
0.012311217482038896,3776.018204890958
0.012794502732078732,3864.0008869512612
0.013296759674662111,3951.6240355539458
0.013818733056536317,4038.691354653408
0.014361196859990781,4124.997487497362
0.014924955450518284,4210.326253899314
0.015510844769528393,4294.45043017533
0.016119733573881575,4377.134036110838
0.01675252472408214,4458.127895081479
0.017410156523040152,4537.173824012761
0.018093604107387147,4614.006907581684
0.01880388089340914,4688.355806931717
0.019542040079740527,4759.94492349795
0.02030917620904734,4828.493914250598
0.021106426791015535,4893.719771218571
0.021934973989050584,4955.339069861294
0.02279604637318978,5013.068999376913
0.023690920741826323,5066.629862307648
0.02462092401494623,5115.751068180278
0.02558743520168586,5160.1724328860355
0.02659188744512693,5199.644629688569
0.027635770147361564,5233.938007307328
0.028720631177978267,5262.838001789849
0.029848079169243254,5286.155493323595
0.03101978590138095,5303.731643936057
0.03223748878149028,5315.429830078135
0.0335029934197723,5321.1577542017685
0.03481817630688963,5320.853431998709
0.03618498759642746,5314.488705845183
0.037605453996581675,5302.081485706253
0.03908168177536263,5283.67677267133
0.04061585988376978,5259.3796764925255
0.04221026320156896,5229.338732798686
0.04386725591048496,5193.708410826365
0.0455892949998106,5152.625540508709
0.047378933909631396,5106.235719062385
0.049238826317067365,5054.667850191134
0.05117173007114603,4998.037623193232
0.05318051128214196,4936.566017587972
0.05526814857144601,4870.887213778775
0.057437737488265785,4801.726025655509
0.0596924950997073,4729.367366483172
0.0620357647610427,4653.5345152900945
0.06447102107323864,4573.946712656635
0.06700187503509585,4490.363317329511
0.06963207939763882,4402.588507481387
0.0723655342286965,4310.644709571769
0.07520629269592405,4214.933022994988
0.07815856707684081,4115.900117407366
0.08122673500479707,4014.0127727477197
0.08441534596012978,3909.7436724968707
0.0877291280161335,3803.473495657562
0.09117299484984914,3695.395393285677
0.09475205302806537,3585.7345628620214
0.09847160957933764,3474.950108358797
0.1023371798632519,3363.674285941034
0.10635449574860109,3253.2809387416823
0.11052951411260206,3144.9851293812912
0.1148684256737553,3038.3145926976026
0.1193776641714435,2932.487961914384
0.1240639159058831,2827.1223745324146
0.12893412965257148,2722.180741141529
0.13399552696593373,2617.904010199932
0.1392556128874462,2514.5175967126124
0.14472218707411338,2412.072801422776
0.15040335536380234,2310.505247536172
0.15630754179458153,2210.0851350943285
0.16244350109588662,2111.414575141249
0.16882033167003618,2015.1965350034795
0.17544748908334581,1921.9963641722945
0.1823348000868439,1832.0866672614236
0.189492477187382,1745.2849642678618
0.19693113379074215,1661.1271304252837
0.20466179993919872,1579.3049818977045
0.21269593866686892,1499.7606149236208
0.22104546299710207,1422.3410738846562
0.22972275360711503,1347.272579619425
0.23874067718606454,1275.2499092656367
0.2481126055137766,1206.4601707780919
0.25785243528842716,1140.4185450965476
0.26797460873256895,1076.9764970026204
0.27849413500806414,1016.1458482817853
0.28942661247167484,957.8857573221268
0.3007882518043098,902.2011389730817
0.31259590004822796,848.9978677339534
0.324867065587837,798.3429667436249
0.3376199441111335,750.1864762285023
0.35087344559027084,704.337304011603
0.36464722232127456,660.6944461990918
0.37896169806447155,619.3458390278577
0.3938380983288488,580.1658992870944
0.4092984818452433,543.0027351722875
0.4253657732750382,507.89846147311346
0.44206379720285277,474.7139902316919
0.45941731346364734,443.36343069046376
0.47745205385661277,413.844660802604
0.4961947603002895,385.9979796814
0.5156732244854959,359.81750478186905
0.5359163290848509,335.1907729465803
0.556954090580013,312.05789305831036
0.5788177037701272,290.3463339630504
0.6015395880274836,269.9764924239198
0.6251534353689703,250.8861382559547
0.6496942604146115,233.00590653663858
0.6751984523072497,216.26650618442318
0.7017038286703824,200.62199530909947
0.7292496916841444,185.99511371727567
0.7578768863625915,172.34895386156572
0.7876278611187046,159.62044550122337
0.8185467307069019,147.75319862675136
0.850679341636415,136.70277705096726
0.8840733401525058,126.41603141953436
0.9187782428863317,116.84133256820976
0.9548455102782278,107.93970313653284
0.9923286228832539,99.66779665814893
1.0312831606721837,91.98712922501274
1.0717668854455022,84.86083338697522
1.1138398264826193,78.25269131482179
1.1575643695533022,72.1276241591492
1.2030053494233226,66.45294665634492
1.2502301459914542,61.19852737054859
1.299308784200415,56.33601057673358
1.3503140378698726,51.83867257845615
1.4033215376054824,47.68135590268796
1.4584098829439835,43.84038857545456
1.5156607589006013,40.29344313235425
1.575159057091621,37.01955815296278
1.6369930016117014,33.999115915732446
1.7012542798525885,31.213770760324785
1.7680381784572046,28.64637997561497
1.8374437246107238,26.28094667812923
1.9095738328780953,24.102555132383937
1.9845354578058014,22.097293452214462
2.0624397525140905,20.252194752183627
2.143402233514853,18.555181892833584
2.227542951999554,16.995009896392137
2.314986671851158,15.561200143707104
2.405863054644063,14.244014412840578
2.5003068519063225,13.034415406502381
2.598458104929248,11.924021129646672
2.7004623524206774,10.905061710860782
2.806470846309834,9.97033734798321
2.916640776023701,9.113180463603653
3.031135501567576,8.32742124438191
3.150124795755327,7.607353505939338
3.2737850959485697,6.947702538147864
3.4022997656780634,6.343595190712215
3.5358593665351745,5.790532092315503
3.6746619407366854,5.284360117678223
3.8189133047818515,4.821247380610772
3.968827354637162,4.3976600780305874
4.1246263829013445,4.010340586609403
4.286541408420921,3.656283993968409
4.4548125188449825,3.332721431134021
4.629689226627261,3.0371056045001663
4.811430839003257,2.767094014475968
5.000306842491082,2.5205332812765624
5.196597302486189,2.2954450476327954
5.400593278542364,2.090012952059505
5.612597255954967,1.9025688201714357
5.8329235942862,1.7315809552999886
6.06189899349756,1.575643496650355
6.29986297838068,1.4334664816399216
6.547168402004727,1.303866109763837
6.804181968927091,1.185756845302621
7.071284778942991,1.0781440363908388
7.348872892180382,0.9801165973627988
7.637357916378006,0.8908402437378995
7.937167617217536,0.809550990750899
8.248746552614573,0.7355492901791988
8.572556731909314,0.6681952871178762
8.909078300934132,0.606903937034275
9.258810253973934,0.5511404473971802
9.622271173675122,0.5004162058692719
9.999999999999984,0.45428556087213284
