k [1/Mpc],P(k) [Mpc^3]
0.0001,1636.7050348771456
0.00010392556829367125,1691.134195365068
0.00010800523745162529,1747.3713672530605
0.00011224505680853065,1805.476398450503
0.00011665131316981963,1865.5111051261617
0.00012123054013376525,1927.5392841056173
0.00012598952777950273,1991.62671119584
0.00013093533273536104,2057.8412990976894
0.00013607528864243335,2126.253259539702
0.00014141701702890234,2196.9351635218663
0.00014696843861124463,2269.9619230062676
0.00015273778503907136,2345.4107536774004
0.00015873361110102093,2423.3613453200414
0.00016496480740980205,2503.895949584906
0.0001714406135851971,2587.09945332148
0.00017817063195457305,2673.0594561802313
0.00018516484179121546,2761.8661768977913
0.000192433614111598,2853.6126346615074
0.00019998772705352857,2948.3949399875605
0.0002078383818579757,3046.3125429945394
0.00021599721947827182,3147.468093325413
0.0002244763378413224,3251.9670260089424
0.0002332883097864157,3359.9177359736577
0.00024244620170823283,3471.432039861028
0.0002519635929317015,3586.6253986666047
0.0002618545958474233,3705.6169173103513
0.0002721338768375308,3828.5291652885157
0.0002828166780230032,3955.488193100312
0.0002939188398646886,4086.623879960392
0.0003054568246515432,4222.069923008506
0.00031744774091091926,4361.964018930227
0.00032990936877709396,4506.447820633348
0.00034286018635565856,4655.6667927177905
0.00035631939712285854,4809.770641714952
0.000370306958400514,4968.91325988621
0.00038484361094874304,5133.252874953517
0.0003999509097203664,5302.952082508022
0.00041565125582259895,5478.177338494271
0.00043196792973341727,5659.09958805931
0.0004489251258218605,5845.894246930161
0.0004665479882234472,6038.741208443703
0.000484862648123908,6237.825125225
0.000503896262506515,6443.334875839241
0.0005236770544204653,6655.464005625169
0.0005442343548300266,6874.410546560474
0.0005655986461065005,7100.376471595883
0.0005878016072274912,7333.56856418845
0.0006108761607505036,7574.198088451536
0.0006348565216305217,7822.480947275364
0.0006597782479539537,8078.637599788852
0.0006856782936641739,8342.891830953675
0.0007125950633568407,8615.471866620002
0.0007405684692262436,8896.609918911223
0.0007696399902471156,9186.54193991235
0.0007998527336796708,9485.508184422875
0.000831251498989063,9793.751890529531
0.0008638828442740447,10111.519972193926
0.000897795155303332,10439.062091279739
0.0009330387172620361,10776.628974516208
0.0009696657893145519,11124.474352816333
0.001007730682094461,11482.85358921687
0.0010472898382363582,11852.023830556442
0.0010884019160690055,12232.243363950496
0.0011311278765939214,12623.767609967328
0.001175531073878369,13026.852139148692
0.0012216773489967915,13441.751224222977
0.0012696351276599736,13868.716883772286
0.0013194755216767058,14307.999465359508
0.0013712724343984,14759.841096418728
0.0014251026703029975,15224.478705902851
0.0014810460488806749,15702.144376567094
0.0015391855229902056,16193.063001825993
0.001599607301861487,16697.453451938603
0.0016624009789266115,17215.521061329106
0.0017276596646690358,17747.4584255433
0.0017954801246878305,18293.44704661353
0.0018659629231817451,18853.651314628816
0.001939212572065829,19428.222005740634
0.0020153376859417325,20017.290848654695
0.002094451143151469,20620.967922671953
0.002176670253153458,21239.34478666215
0.002262116930469025,21872.486582792033
0.002350917875457286,22520.434768430747
0.002443204762186487,23183.203367108403
0.0025391144336803463,23860.77216189796
0.002638789104828933,24553.092397408203
0.002742376573264949,25260.07944958602
0.0028500304385181063,25981.61291827228
0.0029619103297725525,26717.534987156578
0.0030781821425650787,27467.638156106794
0.003199018284775064,28231.673176613946
0.0033245979322709396,29009.340566543604
0.003455107294592217,29800.28673869992
0.0035907398910610534,30604.109326616996
0.0037316968377327513,31420.344150064437
0.0038781871456107214,32248.470746329014
0.0040304280305680515,33087.90578463083
0.00418864523543527,33937.99192922208
0.004353073364731888,34798.00903071329
0.00452395623253805,35667.15289105863
0.004701547224022131,36544.54002462985
0.004886109671160325,37429.21509532114
0.005077917243205399,38320.13796243552
0.005277254352483535,39216.19244179729
0.005484416576121017,40116.121972305176
0.005699711094326071,41018.51692062172
0.005923457145875801,41921.909336770506
0.006155986501483508,42824.923080839115
0.006397643955748424,43726.17738984323
0.0066487878384172625,44623.935387427184
0.0069097905457156435,45515.83269596328
0.007181039092537346,46399.36614085638
0.007462935686310132,47272.36972942293
0.007755898323389004,48132.887751557224
0.00806036140886134,48978.72750849207
0.008376776400682916,49807.03245778854
0.008705612479099857,50614.74267533967
0.009047357242349292,51398.96666669127
0.00940251742967013,52157.02526282865
0.009771619672696168,52886.126466760325
0.010155211276345676,53582.92761322825
0.010553861030365234,54243.85620243402
0.010968160052731372,54865.17732919323
0.011398722666160517,55442.90661710163
0.011846187309026826,55973.02195643096
0.012311217482038896,56451.40758819647
0.012794502732078732,56873.92433686604
0.013296759674662111,57236.36853311169
0.013818733056536317,57534.20492785487
0.014361196859990781,57762.94252197535
0.014924955450518284,57917.97734660433
0.015510844769528393,57994.629014017206
0.016119733573881575,57988.401991455175
0.01675252472408214,57894.66210471351
0.017410156523040152,57709.016868654086
0.018093604107387147,57427.280498165135
0.01880388089340914,57045.35067894292
0.019542040079740527,56559.684894899096
0.02030917620904734,55967.00154311178
0.021106426791015535,55264.57281397033
0.021934973989050584,54450.45217972883
0.02279604637318978,53523.27349071242
0.023690920741826323,52482.70604029499
0.02462092401494623,51329.44696720757
0.02558743520168586,50065.2912005359
0.02659188744512693,48693.38711853359
0.027635770147361564,47218.4333665786
0.028720631177978267,45646.504063044
0.029848079169243254,43985.394645252905
0.03101978590138095,42244.783918509325
0.03223748878149028,40435.48685973932
0.0335029934197723,38570.83530721964
0.03481817630688963,36665.37295988777
0.03618498759642746,34734.46517977687
0.037605453996581675,32795.70647180467
0.03908168177536263,30865.928506696466
0.04061585988376978,28964.383424925192
0.04221026320156896,27111.320469371865
0.04386725591048496,25323.707764220766
0.0455892949998106,23616.84472841149
0.047378933909631396,22002.739299819397
0.049238826317067365,20495.392674684277
0.05117173007114603,19113.010287110745
0.05318051128214196,17867.787154172143
0.05526814857144601,16763.72267012
0.057437737488265785,15800.72531929197
0.0596924950997073,14974.738741255402
0.0620357647610427,14279.497263663861
0.06447102107323864,13704.99338693897
0.06700187503509585,13238.335419094632
0.06963207939763882,12865.139677496805
0.0723655342286965,12568.996500442288
0.07520629269592405,12324.606441492802
0.07815856707684081,12101.551996534408
0.08122673500479707,11864.883304880223
0.08441534596012978,11579.856998408875
0.0877291280161335,11215.40949180191
0.09117299484984914,10749.947347989895
0.09475205302806537,10174.558667917288
0.09847160957933764,9494.008383505874
0.1023371798632519,8726.566332372258
0.10635449574860109,7902.760212623271
0.11052951411260206,7063.882508630416
0.1148684256737553,6257.4277517388955
0.1193776641714435,5531.842092734739
0.1240639159058831,4926.102901879672
0.12893412965257148,4462.110745788044
0.13399552696593373,4142.961347388341
0.1392556128874462,3954.5762590162703
0.14472218707411338,3868.4039632929193
0.15040335536380234,3843.0450869475267
0.15630754179458153,3826.6972665604876
0.16244350109588662,3764.118598405401
0.16882033167003618,3609.36578599879
0.17544748908334581,3342.6438273347057
0.1823348000868439,2984.6109434239297
0.189492477187382,2592.9738037461348
0.19693113379074215,2235.4311835399567
0.20466179993919872,1961.443249695995
0.21269593866686892,1793.363491581581
0.22104546299710207,1724.0459381018404
0.22972275360711503,1714.048389406028
0.23874067718606454,1703.278210625427
0.2481126055137766,1637.6339640715241
0.25785243528842716,1495.064776585413
0.26797460873256895,1302.6205327982334
0.27849413500806414,1119.4235377158627
0.28942661247167484,994.2229006871147
0.3007882518043098,937.7723024840367
0.31259590004822796,921.3059950751209
0.324867065587837,895.9131783730222
0.3376199441111335,826.6215599197332
0.35087344559027084,724.7035298758185
0.36464722232127456,632.5440440591203
0.37896169806447155,579.7391903168459
0.3938380983288488,557.335203177404
0.4092984818452433,531.8481297068066
0.4253657732750382,482.5905133394469
0.44206379720285277,425.0527578330713
0.45941731346364734,385.1078662651469
0.47745205385661277,363.72491107723664
0.4961947603002895,340.52837145677137
0.5156732244854959,306.4224588444378
0.5359163290848509,274.97404721366183
0.556954090580013,254.95885438164592
0.5788177037701272,236.95271231765466
0.6015395880274836,214.3241735684369
0.6251534353689703,194.26553723524023
0.6496942604146115,179.54097964495756
0.6751984523072497,164.3070168416132
0.7017038286703824,148.9136341660337
0.7292496916841444,136.39846578361826
0.7578768863625915,124.81714006539313
0.7876278611187046,113.94855815662439
0.8185467307069019,103.857464829583
0.850679341636415,94.57694634991957
0.8840733401525058,86.1143104118086
0.9187782428863317,78.43587758756571
0.9548455102782278,71.45907605127726
0.9923286228832539,65.106440971965
1.0312831606721837,59.31098739797146
1.0717668854455022,54.01466792956764
1.1138398264826193,49.16765077761878
1.1575643695533022,44.73276475873403
1.2030053494233226,40.679777960027785
1.2502301459914542,36.979981959304325
1.299308784200415,33.60615631620486
1.3503140378698726,30.532597341150765
1.4033215376054824,27.73463249231248
1.4584098829439835,25.187968750032184
1.5156607589006013,22.87020765486606
1.575159057091621,20.760961747537024
1.6369930016117014,18.841670012666054
1.7012542798525885,17.09544137494175
1.7680381784572046,15.507064054686714
1.8374437246107238,14.062768000665136
1.9095738328780953,12.74992960328458
1.9845354578058014,11.556977834122822
2.0624397525140905,10.473312629215963
2.143402233514853,9.489217929816427
2.227542951999554,8.595766112924005
2.314986671851158,7.784797428610372
2.405863054644063,7.048867384638916
2.5003068519063225,6.381185982522587
2.598458104929248,5.775562104522728
2.7004623524206774,5.226356963889683
2.806470846309834,4.7284354867659255
2.916640776023701,4.277116841453465
3.031135501567576,3.868135396031168
3.150124795755327,3.4976051987270327
3.2737850959485697,3.161986794149551
3.4022997656780634,2.8580552342658008
3.5358593665351745,2.5828755880823002
3.6746619407366854,2.3337786677487973
3.8189133047818515,2.1083376115137313
3.968827354637162,1.9043464643214016
4.1246263829013445,1.7198006827135104
4.286541408420921,1.5528792291505982
4.4548125188449825,1.4019280470226212
4.629689226627261,1.265445120408009
4.811430839003257,1.1420668425988039
5.000306842491082,1.0305555408834108
5.196597302486189,0.9297879520062616
5.400593278542364,0.8387450551788945
5.612597255954967,0.7565027173615602
5.8329235942862,0.6822230481522739
6.06189899349756,0.6151465216268931
6.29986297838068,0.5545847960384046
6.547168402004727,0.499914176570151
6.804181968927091,0.4505696738135991
7.071284778942991,0.4060395882729014
7.348872892180382,0.36586058179404113
7.637357916378006,0.3296131810033739
7.937167617217536,0.29691758539473107
8.248746552614573,0.267430070859952
8.572556731909314,0.24083971049689248
8.909078300934132,0.21686529605699542
9.258810253973934,0.19525254198553277
9.622271173675122,0.17577162418630787
9.999999999999984,0.15821496019727288
