k [1/Mpc],P(k) [Mpc^3]
0.0001,229.5921771172585
0.00010392556829367125,239.97537686303136
0.00010800523745162529,250.8271645292101
0.00011224505680853065,262.16857131153677
0.00011665131316981963,274.02157346346587
0.00012123054013376525,286.4091130002283
0.00012598952777950273,299.35509543061187
0.00013093533273536104,312.8844652307254
0.00013607528864243335,327.02327834767397
0.00014141701702890234,341.79875681957367
0.00014696843861124463,357.2393162158853
0.00015273778503907136,373.37457390029186
0.00015873361110102093,390.2354215395069
0.00016496480740980205,407.85408177297785
0.0001714406135851971,426.2641470576184
0.00017817063195457305,445.50065770588924
0.00018516484179121546,465.60013948016916
0.000192433614111598,486.6006710977639
0.00019998772705352857,508.5419490719629
0.0002078383818579757,531.4653210724358
0.00021599721947827182,555.4138804025037
0.0002244763378413224,580.4324696996323
0.0002332883097864157,606.567741261514
0.00024244620170823283,633.8682773564944
0.0002519635929317015,662.3846114624747
0.0002618545958474233,692.1693397519135
0.0002721338768375308,723.2771556821181
0.0002828166780230032,755.764889548937
0.0002939188398646886,789.6916372266536
0.0003054568246515432,825.1186842781559
0.00031744774091091926,862.1096529946446
0.00032990936877709396,900.7306171653304
0.00034286018635565856,941.0501264336638
0.00035631939712285854,983.1393379813437
0.000370306958400514,1027.0718700480732
0.00038484361094874304,1072.9239105715171
0.0003999509097203664,1120.7744044517071
0.00041565125582259895,1170.7050068870867
0.00043196792973341727,1222.8002577066632
0.0004489251258218605,1277.1474556927105
0.0004665479882234472,1333.8366673804296
0.000484862648123908,1392.9609492603736
0.000503896262506515,1454.6161468440762
0.0005236770544204653,1518.9011116598324
0.0005442343548300266,1585.917674051656
0.0005655986461065005,1655.7705437599636
0.0005878016072274912,1728.5675213672675
0.0006108761607505036,1804.419079453234
0.0006348565216305217,1883.4385431386195
0.0006597782479539537,1965.7421257171525
0.0006856782936641739,2051.448560700813
0.0007125950633568407,2140.6794415669347
0.0007405684692262436,2233.558757790295
0.0007696399902471156,2330.21286679484
0.0007998527336796708,2430.7704660174113
0.000831251498989063,2535.361449585327
0.0008638828442740447,2644.1175955235517
0.000897795155303332,2757.1720610387483
0.0009330387172620361,2874.6589620674354
0.0009696657893145519,2996.7135646433694
0.001007730682094461,3123.470450421792
0.0010472898382363582,3255.0641240116956
0.0010884019160690055,3391.6285824502147
0.0011311278765939214,3533.2961783975124
0.001175531073878369,3680.1981638715397
0.0012216773489967915,3832.4624231020275
0.0012696351276599736,3990.2135401615615
0.0013194755216767058,4153.573360901632
0.0013712724343984,4322.660358138586
0.0014251026703029975,4497.589016102842
0.0014810460488806749,4678.466049972184
0.0015391855229902056,4865.389508009713
0.001599607301861487,5058.450252717305
0.0016624009789266115,5257.730089446066
0.0017276596646690358,5463.301764963159
0.0017954801246878305,5675.227473543675
0.0018659629231817451,5893.557429380405
0.001939212572065829,6118.329679703427
0.0020153376859417325,6349.566827144978
0.002094451143151469,6587.276140738781
0.002176670253153458,6831.448559782509
0.002262116930469025,7082.056388480143
0.002350917875457286,7339.053606804142
0.002443204762186487,7602.37289771895
0.0025391144336803463,7871.9249597212
0.002638789104828933,8147.597895461426
0.002742376573264949,8429.254157895855
0.0028500304385181063,8716.731218544704
0.0029619103297725525,9009.839599960247
0.0030781821425650787,9308.361642887472
0.003199018284775064,9612.050592841191
0.0033245979322709396,9920.624621882253
0.003455107294592217,10233.769355740498
0.0035907398910610534,10551.135550777064
0.0037316968377327513,10872.336209737383
0.0038781871456107214,11196.949980511661
0.0040304280305680515,11524.51967277542
0.00418864523543527,11854.552522715727
0.004353073364731888,12186.498178647049
0.00452395623253805,12519.715711221656
0.004701547224022131,12853.521530625369
0.004886109671160325,13187.300643476367
0.005077917243205399,13520.492168162875
0.005277254352483535,13852.414719041937
0.005484416576121017,14181.984081727056
0.005699711094326071,14507.97423376182
0.005923457145875801,14829.266833582118
0.006155986501483508,15144.893917744897
0.006397643955748424,15453.868469742001
0.0066487878384172625,15755.16802329185
0.0069097905457156435,16047.744181501408
0.007181039092537346,16330.426330356933
0.007462935686310132,16601.844316355404
0.007755898323389004,16860.57960698122
0.00806036140886134,17105.126888247054
0.008376776400682916,17333.930273765625
0.008705612479099857,17545.3888546867
0.009047357242349292,17737.799582661744
0.00940251742967013,17909.454171934933
0.009771619672696168,18058.611178508967
0.010155211276345676,18183.521134420356
0.010553861030365234,18282.428368444118
0.010968160052731372,18353.382677520243
0.011398722666160517,18394.45920838199
0.011846187309026826,18403.70913332757
0.012311217482038896,18379.15158146076
0.012794502732078732,18318.94380889836
0.013296759674662111,18221.209562302673
0.013818733056536317,18084.236182235574
0.014361196859990781,17906.427039918995
0.014924955450518284,17686.18099135808
0.015510844769528393,17422.25357281509
0.016119733573881575,17113.54428314666
0.01675252472408214,16759.30076792315
0.017410156523040152,16359.228440814888
0.018093604107387147,15913.261654442305
0.01880388089340914,15422.004875338669
0.019542040079740527,14886.548630359059
0.02030917620904734,14308.569764726559
0.021106426791015535,13690.593395016727
0.021934973989050584,13035.755825743972
0.02279604637318978,12348.065341065421
0.023690920741826323,11632.375227057704
0.02462092401494623,10894.284754670229
0.02558743520168586,10140.17429073787
0.02659188744512693,9377.2931638307
0.027635770147361564,8613.312717950317
0.028720631177978267,7856.366910825165
0.029848079169243254,7115.068678573309
0.03101978590138095,6397.43032421121
0.03223748878149028,5712.085568432355
0.0335029934197723,5066.763891279631
0.03481817630688963,4467.8043988986465
0.03618498759642746,3921.768133514885
0.037605453996581675,3432.169152209374
0.03908168177536263,3001.455026759506
0.04061585988376978,2630.6625882500243
0.04221026320156896,2318.3966902453685
0.04386725591048496,2063.9862760740343
0.0455892949998106,1865.610154906137
0.047378933909631396,1720.348293667352
0.049238826317067365,1625.707628246966
0.05117173007114603,1578.7182218033422
0.05318051128214196,1573.342958739107
0.05526814857144601,1605.3942087064265
0.057437737488265785,1671.231346998333
0.0596924950997073,1766.1712733411005
0.0620357647610427,1880.0012710185754
0.06447102107323864,1998.8601902896082
0.06700187503509585,2105.09582783385
0.06963207939763882,2179.5602013626985
0.0723655342286965,2204.1461585365228
0.07520629269592405,2165.8189808718944
0.07815856707684081,2058.200259702689
0.08122673500479707,1883.3077560121721
0.08441534596012978,1652.5064842487418
0.0877291280161335,1387.1946806451344
0.09117299484984914,1117.953903837933
0.09475205302806537,874.0568265688437
0.09847160957933764,676.2135495988836
0.1023371798632519,533.6958394686957
0.10635449574860109,446.55888898592957
0.11052951411260206,410.5573698542329
0.1148684256737553,419.7357830334076
0.1193776641714435,466.67183329635105
0.1240639159058831,540.2380968355608
0.12893412965257148,620.2543406443465
0.13399552696593373,676.4566992853569
0.1392556128874462,679.5539868351493
0.14472218707411338,619.3153253313316
0.15040335536380234,511.75567654514066
0.15630754179458153,389.2719728864187
0.16244350109588662,284.85890672291066
0.16882033167003618,219.28798536669368
0.17544748908334581,195.72625752267106
0.1823348000868439,207.40759983711663
0.189492477187382,242.64010491219344
0.19693113379074215,278.8053743605349
0.20466179993919872,287.8142496876394
0.21269593866686892,256.62496934828084
0.22104546299710207,200.50643294704687
0.22972275360711503,149.55907830843492
0.23874067718606454,122.47580642176621
0.2481126055137766,121.40471337542193
0.25785243528842716,136.04700624881067
0.26797460873256895,146.486454917376
0.27849413500806414,136.4164280258597
0.28942661247167484,110.36836638237764
0.3007882518043098,87.69170338231265
0.31259590004822796,79.66164473698966
0.324867065587837,83.11036284295864
0.3376199441111335,85.064221849223
0.35087344559027084,76.46634067989042
0.36464722232127456,63.338712797686426
0.37896169806447155,56.110922021368445
0.3938380983288488,55.53008701571766
0.4092984818452433,54.088109425998546
0.4253657732750382,47.89628484916573
0.44206379720285277,41.81984372262166
0.45941731346364734,39.44594040868266
0.47745205385661277,37.68836275018301
0.4961947603002895,33.91635107611998
0.5156732244854959,30.471494589127825
0.5359163290848509,28.598114550933502
0.556954090580013,26.45480589057758
0.5788177037701272,23.910085034749972
0.6015395880274836,22.03881439877471
0.6251534353689703,20.42643389878563
0.6496942604146115,18.841697947866724
0.6751984523072497,17.300069720789967
0.7017038286703824,15.833217789316283
0.7292496916841444,14.463627173527561
0.7578768863625915,13.205812800277856
0.7876278611187046,12.067430651313394
0.8185467307069019,11.042513045810379
0.850679341636415,10.115200347037833
0.8840733401525058,9.271774746647868
0.9187782428863317,8.500831863219844
0.9548455102782278,7.7928893218420106
0.9923286228832539,7.140243184782475
1.0312831606721837,6.538353519210728
1.0717668854455022,5.984248544962454
1.1138398264826193,5.474985975109911
1.1575643695533022,5.007660729832045
1.2030053494233226,4.5794320304379
1.2502301459914542,4.187482883569981
1.299308784200415,3.8287906456031475
1.3503140378698726,3.5004697809089924
1.4033215376054824,3.1998981426942605
1.4584098829439835,2.9246914569172673
1.5156607589006013,2.6726803037224838
1.575159057091621,2.441907742341316
1.6369930016117014,2.2306367967129206
1.7012542798525885,2.0372756498216433
1.7680381784572046,1.8603557434014137
1.8374437246107238,1.6985229826362152
1.9095738328780953,1.5505294257362534
1.9845354578058014,1.4152216106175304
2.0624397525140905,1.2915326723470741
2.143402233514853,1.1784829656273021
2.227542951999554,1.0751737404590016
2.314986671851158,0.9807806203038368
2.405863054644063,0.8945476015377108
2.5003068519063225,0.8157816884137268
2.598458104929248,0.7438476996701593
2.7004623524206774,0.6781633753292807
2.806470846309834,0.6181950679603352
2.916640776023701,0.5634537814563287
3.031135501567576,0.5134915425954871
3.150124795755327,0.4678981743442638
3.2737850959485697,0.42629806907809376
3.4022997656780634,0.3883472560540835
3.5358593665351745,0.35373080154906117
3.6746619407366854,0.32216041698125975
3.8189133047818515,0.2933722183524311
3.968827354637162,0.26712459053139903
4.1246263829013445,0.24319650474274937
4.286541408420921,0.22138585005928096
4.4548125188449825,0.20150784433502894
4.629689226627261,0.18339357581954358
4.811430839003257,0.16688868539036233
5.000306842491082,0.15185215601844543
5.196597302486189,0.13815513258205553
5.400593278542364,0.12567988573827646
5.612597255954967,0.11431886953736785
5.8329235942862,0.10397385654037668
6.06189899349756,0.0945551261219291
6.29986297838068,0.08598074056227681
6.547168402004727,0.07817590867985404
6.804181968927091,0.0710723742012314
7.071284778942991,0.06460785364343878
7.348872892180382,0.05872552076766149
7.637357916378006,0.053373524440961925
7.937167617217536,0.04850456571723614
8.248746552614573,0.04407551373860073
8.572556731909314,0.04004704349925201
8.909078300934132,0.036383304391249045
9.258810253973934,0.03305162143840573
9.622271173675122,0.03002223931625578
9.999999999999984,0.027268043323372713
