k [1/Mpc],P(k) [Mpc^3]
0.0001,255.55137687607044
0.00010392556829367125,265.58057573523166
0.00010800523745162529,276.0031765527236
0.00011224505680853065,286.8345711960339
0.00011665131316981963,298.09075007934314
0.00012123054013376525,309.78833651707623
0.00012598952777950273,321.9446073471515
0.00013093533273536104,334.5775109814936
0.00013607528864243335,347.7056893358632
0.00014141701702890234,361.3485092272472
0.00014696843861124463,375.5260881978894
0.00015273778503907136,390.2593237667528
0.00015873361110102093,405.5699217357886
0.00016496480740980205,421.48041418584137
0.0001714406135851971,438.0142020243325
0.00017817063195457305,455.1955968731234
0.00018516484179121546,473.04985790528707
0.000192433614111598,491.60321927576024
0.00019998772705352857,510.8829044963541
0.0002078383818579757,530.9171761287902
0.00021599721947827182,551.7353820202425
0.0002244763378413224,573.3679929903765
0.0002332883097864157,595.8466487633439
0.00024244620170823283,619.2041881287283
0.0002519635929317015,643.4746973051732
0.0002618545958474233,668.6935504956482
0.0002721338768375308,694.8974197621244
0.0002828166780230032,722.1243591463757
0.0002939188398646886,750.413877256184
0.0003054568246515432,779.8069932368753
0.00031744774091091926,810.3462594433701
0.00032990936877709396,842.0757136217978
0.00034286018635565856,875.0409988808987
0.00035631939712285854,909.2894717080519
0.000370306958400514,944.8702734008135
0.00038484361094874304,981.8343658536178
0.0003999509097203664,1020.2344982048479
0.00041565125582259895,1060.1253030766907
0.00043196792973341727,1101.5633789376056
0.0004489251258218605,1144.6072919544977
0.0004665479882234472,1189.3177085181967
0.000484862648123908,1235.7574052400378
0.000503896262506515,1283.991337670316
0.0005236770544204653,1334.0867547999453
0.0005442343548300266,1386.1132122791098
0.0005655986461065005,1440.1426892508705
0.0005878016072274912,1496.2495100371323
0.0006108761607505036,1554.5103218009738
0.0006348565216305217,1615.0043615390075
0.0006597782479539537,1677.813506081667
0.0006856782936641739,1743.022367415279
0.0007125950633568407,1810.718249829355
0.0007405684692262436,1880.9910303434042
0.0007696399902471156,1953.9334501358294
0.0007998527336796708,2029.6410368605582
0.000831251498989063,2108.212199568773
0.0008638828442740447,2189.7483365928365
0.000897795155303332,2274.3536478467527
0.0009330387172620361,2362.1354043649076
0.0009696657893145519,2453.203776885848
0.001007730682094461,2547.6717952091153
0.0010472898382363582,2645.6556100903094
0.0010884019160690055,2747.2740737719796
0.0011311278765939214,2852.649046034817
0.001175531073878369,2961.905215554619
0.0012216773489967915,3075.1697171585784
0.0012696351276599736,3192.572646028852
0.0013194755216767058,3314.2463667706
0.0013712724343984,3440.325702793616
0.0014251026703029975,3570.9480093693924
0.0014810460488806749,3706.252381742059
0.0015391855229902056,3846.380280140344
0.001599607301861487,3991.4746833518902
0.0016624009789266115,4141.679878649004
0.0017276596646690358,4297.141823616709
0.0017954801246878305,4458.0066146051895
0.0018659629231817451,4624.421264786024
0.001939212572065829,4796.533198676002
0.0020153376859417325,4974.48948608298
0.002094451143151469,5158.437318374993
0.002176670253153458,5348.521632887831
0.002262116930469025,5544.8856586598895
0.002350917875457286,5747.671102351907
0.002443204762186487,5957.016855321831
0.0025391144336803463,6173.059467586888
0.002638789104828933,6395.930523318377
0.002742376573264949,6625.756270766418
0.0028500304385181063,6862.6581743018805
0.0029619103297725525,7106.750208663182
0.0030781821425650787,7358.139899372245
0.003199018284775064,7616.9262584686885
0.0033245979322709396,7883.198206267104
0.003455107294592217,8157.035442784123
0.0035907398910610534,8438.504246970786
0.0037316968377327513,8727.65845279144
0.0038781871456107214,9024.538016939869
0.0040304280305680515,9329.165628393372
0.00418864523543527,9641.548631486863
0.004353073364731888,9961.67406725775
0.00452395623253805,10289.508546137446
0.004701547224022131,10624.997643329581
0.004886109671160325,10968.059003970247
0.005077917243205399,11318.586347398985
0.005277254352483535,11676.44546374663
0.005484416576121017,12041.472173466613
0.005699711094326071,12413.470564058538
0.005923457145875801,12792.189956978043
0.006155986501483508,13177.337964728178
0.006397643955748424,13568.609798980584
0.0066487878384172625,13965.7056511577
0.0069097905457156435,14368.284661487556
0.007181039092537346,14775.829944723122
0.007462935686310132,15187.693981700839
0.007755898323389004,15603.217674056265
0.00806036140886134,16021.818881031868
0.008376776400682916,16442.889808504555
0.008705612479099857,16865.656586983532
0.009047357242349292,17289.179627783735
0.00940251742967013,17712.472445434818
0.009771619672696168,18134.578938441668
0.010155211276345676,18554.5160457098
0.010553861030365234,18971.16270183278
0.010968160052731372,19383.217004047023
0.011398722666160517,19789.29855897183
0.011846187309026826,20187.905481209425
0.012311217482038896,20577.447567786436
0.012794502732078732,20956.244543435303
0.013296759674662111,21322.487558593006
0.013818733056536317,21674.30300387504
0.014361196859990781,22009.68471377861
0.014924955450518284,22326.523799745453
0.015510844769528393,22622.6411610792
0.016119733573881575,22895.681859862234
0.01675252472408214,23143.24875213705
0.017410156523040152,23362.851093160825
0.018093604107387147,23551.905603543568
0.01880388089340914,23707.84912464714
0.019542040079740527,23828.009071641012
0.02030917620904734,23909.7529511544
0.021106426791015535,23950.49608304993
0.021934973989050584,23947.655151974774
0.02279604637318978,23898.841371960603
0.023690920741826323,23801.76727821769
0.02462092401494623,23654.363681315717
0.02558743520168586,23454.889981022523
0.02659188744512693,23201.89940997998
0.027635770147361564,22894.39570422002
0.028720631177978267,22531.898959575938
0.029848079169243254,22114.48312602288
0.03101978590138095,21642.857588711813
0.03223748878149028,21118.575130384284
0.0335029934197723,20543.852918695313
0.03481817630688963,19921.83484723798
0.03618498759642746,19256.690290832874
0.037605453996581675,18553.143890655363
0.03908168177536263,17817.267343812506
0.04061585988376978,17055.699629047223
0.04221026320156896,16275.71502069465
0.04386725591048496,15485.977345423325
0.0455892949998106,14694.732515596876
0.047378933909631396,13911.03392516197
0.049238826317067365,13143.926379818628
0.05117173007114603,12401.515783052686
0.05318051128214196,11692.594573934364
0.05526814857144601,11024.57615244489
0.057437737488265785,10404.953341673066
0.0596924950997073,9840.948028358078
0.0620357647610427,9336.892102724327
0.06447102107323864,8894.111660631464
0.06700187503509585,8512.369953847003
0.06963207939763882,8189.4499200349355
0.0723655342286965,7921.825551909577
0.07520629269592405,7703.838536185221
0.07815856707684081,7527.973201102493
0.08122673500479707,7384.435023153782
0.08441534596012978,7259.8737324822805
0.0877291280161335,7139.327793705376
0.09117299484984914,7007.122486917712
0.09475205302806537,6844.943383109008
0.09847160957933764,6635.930143887377
0.1023371798632519,6369.019193467946
0.10635449574860109,6040.165404747496
0.11052951411260206,5653.863056694701
0.1148684256737553,5222.309160899927
0.1193776641714435,4764.884444203245
0.1240639159058831,4306.3330142479235
0.12893412965257148,3873.2831311023997
0.13399552696593373,3490.3513214799846
0.1392556128874462,3176.2301006289536
0.14472218707411338,2940.7778867416514
0.15040335536380234,2784.244547947428
0.15630754179458153,2697.472817459869
0.16244350109588662,2661.775745016265
0.16882033167003618,2649.3027464069105
0.17544748908334581,2626.2426013385507
0.1823348000868439,2560.0991926834567
0.189492477187382,2429.4358000671623
0.19693113379074215,2233.027526406842
0.20466179993919872,1993.6964129518458
0.21269593866686892,1750.6673803054498
0.22104546299710207,1543.0093736294773
0.22972275360711503,1396.5805610170253
0.23874067718606454,1318.671911468927
0.2481126055137766,1295.010061337151
0.25785243528842716,1291.5037107856695
0.26797460873256895,1267.7837125158464
0.27849413500806414,1195.4768868001483
0.28942661247167484,1075.1107958860193
0.3007882518043098,938.7259992598666
0.31259590004822796,827.4717860253292
0.324867065587837,764.5759245093698
0.3376199441111335,743.1908673094582
0.35087344559027084,732.7222369580045
0.36464722232127456,698.660563658751
0.37896169806447155,630.7674565166207
0.3938380983288488,553.643649418081
0.4092984818452433,498.65959005310975
0.4253657732750382,474.2679624655787
0.44206379720285277,460.27447389385725
0.45941731346364734,430.9272827409823
0.47745205385661277,385.1716336074837
0.4961947603002895,345.0822407117761
0.5156732244854959,323.58692616685994
0.5359163290848509,308.73676736343333
0.556954090580013,284.4588228351089
0.5788177037701272,255.32509094474358
0.6015395880274836,235.06979877675047
0.6251534353689703,221.57276343116104
0.6496942604146115,204.09797336236983
0.6751984523072497,184.8680143285322
0.7017038286703824,171.12790607377156
0.7292496916841444,159.13132819085052
0.7578768863625915,145.12773454467023
0.7876278611187046,133.3179311117017
0.8185467307069019,122.9576773382857
0.850679341636415,113.17242090433184
0.8840733401525058,104.01242116053817
0.9187782428863317,95.5070631347155
0.9548455102782278,87.65564785515345
0.9923286228832539,80.4192150856308
1.0312831606721837,73.75534863406467
1.0717668854455022,67.62374623773893
1.1138398264826193,61.98622660441273
1.1575643695533022,56.80652744539304
1.2030053494233226,52.04856840584858
1.2502301459914542,47.67788092347426
1.299308784200415,43.662907485464636
1.3503140378698726,39.974758822037614
1.4033215376054824,36.58697541726278
1.4584098829439835,33.47565187397085
1.5156607589006013,30.61948655638584
1.575159057091621,27.998767217162623
1.6369930016117014,25.59516174117197
1.7012542798525885,23.391637614846523
1.7680381784572046,21.372368375097476
1.8374437246107238,19.522540230737917
1.9095738328780953,17.82839656334635
1.9845354578058014,16.277254055721798
2.0624397525140905,14.857423702497835
2.143402233514853,13.558136498043517
2.227542951999554,12.369485003725769
2.314986671851158,11.282364086771711
2.405863054644063,10.28838765267657
2.5003068519063225,9.379832583261383
2.598458104929248,8.54958932301193
2.7004623524206774,7.791115382226964
2.806470846309834,7.098389579153436
2.916640776023701,6.4658753664111055
3.031135501567576,5.88848563741718
3.150124795755327,5.3615479415992064
3.2737850959485697,4.880772201885093
3.4022997656780634,4.442219946769997
3.5358593665351745,4.042276394042167
3.6746619407366854,3.6776264951312294
3.8189133047818515,3.3452312004321763
3.968827354637162,3.0423053507398614
4.1246263829013445,2.7662972216853605
4.286541408420921,2.51486949946993
4.4548125188449825,2.2858820754425326
4.629689226627261,2.0773760820502503
4.811430839003257,1.887559062039497
5.000306842491082,1.714791295595222
5.196597302486189,1.5575730105110432
5.400593278542364,1.4145327753590466
5.612597255954967,1.284417174198016
5.8329235942862,1.1660809755316084
6.06189899349756,1.058478062885915
6.29986297838068,0.9606531046311267
6.547168402004727,0.8717339196128118
6.804181968927091,0.7909244091421257
7.071284778942991,0.7174980850579259
7.348872892180382,0.650792144230745
7.637357916378006,0.5902020248866873
7.937167617217536,0.5351761750683234
8.248746552614573,0.48521150828409276
8.572556731909314,0.4398496006931433
8.909078300934132,0.39867283139906984
9.258810253973934,0.36130082262081364
9.622271173675122,0.32738727661663025
9.999999999999984,0.29661732767266985
