k [1/Mpc],P(k) [Mpc^3]
0.0001,208.18154923477456
0.00010392556829367125,215.72471411092707
0.00010800523745162529,223.54075869774044
0.00011224505680853065,231.6395043099553
0.00011665131316981963,240.03112226058752
0.00012123054013376525,248.72614083495154
0.00012598952777950273,257.73545877904826
0.00013093533273536104,267.07035967911446
0.00013607528864243335,276.74251925486556
0.00014141701702890234,286.7640242039218
0.00014696843861124463,297.14738073482295
0.00015273778503907136,307.90552667232623
0.00015873361110102093,319.0518528052146
0.00016496480740980205,330.60021221010817
0.0001714406135851971,342.56493964844475
0.00017817063195457305,354.96085843681027
0.00018516484179121546,367.8032830444012
0.000192433614111598,381.108054089831
0.00019998772705352857,394.89154962165134
0.0002078383818579757,409.1707047528957
0.00021599721947827182,423.9630270616169
0.0002244763378413224,439.2865928052759
0.0002332883097864157,455.16008470256395
0.00024244620170823283,471.60278892950066
0.0002519635929317015,488.634606662518
0.0002618545958474233,506.2760948181003
0.0002721338768375308,524.5484526762245
0.0002828166780230032,543.473561735311
0.0002939188398646886,563.0739915355709
0.0003054568246515432,583.3729901913113
0.00031744774091091926,604.394540880009
0.00032990936877709396,626.1633200492503
0.00034286018635565856,648.7047333006547
0.00035631939712285854,672.0449595017772
0.000370306958400514,696.2109285700205
0.00038484361094874304,721.2303767677928
0.0003999509097203664,747.1317790018225
0.00041565125582259895,773.9443449183178
0.00043196792973341727,801.6981123496577
0.0004489251258218605,830.4238883390761
0.0004665479882234472,860.1533130738343
0.000484862648123908,890.9188201347181
0.000503896262506515,922.7535680296544
0.0005236770544204653,955.6915616960429
0.0005442343548300266,989.7675405364457
0.0005655986461065005,1025.0170247975816
0.0005878016072274912,1061.476343199275
0.0006108761607505036,1099.1825003986517
0.0006348565216305217,1138.1733048239732
0.0006597782479539537,1178.487233610281
0.0006856782936641739,1220.163400950154
0.0007125950633568407,1263.2416509428042
0.0007405684692262436,1307.7622966082645
0.0007696399902471156,1353.766268216922
0.0007998527336796708,1401.2950212243015
0.000831251498989063,1450.3903676899338
0.0008638828442740447,1501.0946414569971
0.000897795155303332,1553.450286332955
0.0009330387172620361,1607.499943088305
0.0009696657893145519,1663.286428677419
0.001007730682094461,1720.8522508874619
0.0010472898382363582,1780.2399588991314
0.0010884019160690055,1841.4917106928278
0.0011311278765939214,1904.6491417305833
0.001175531073878369,1969.7535031120633
0.0012216773489967915,2036.844768093879
0.0012696351276599736,2105.9620602080695
0.0013194755216767058,2177.1433969125937
0.0013712724343984,2250.425231142321
0.0014251026703029975,2325.8428038968927
0.0014810460488806749,2403.4293892535143
0.0015391855229902056,2483.2163669340716
0.001599607301861487,2565.2329001948488
0.0016624009789266115,2649.5047520274966
0.0017276596646690358,2736.055087592821
0.0017954801246878305,2824.903741221245
0.0018659629231817451,2916.0669479770418
0.001939212572065829,3009.5575039052537
0.0020153376859417325,3105.3835601073292
0.002094451143151469,3203.5490505058324
0.002176670253153458,3304.0529933630723
0.002262116930469025,3406.8886869179005
0.002350917875457286,3512.0443116777765
0.002443204762186487,3619.501870315083
0.0025391144336803463,3729.237235837072
0.002638789104828933,3841.219638673223
0.002742376573264949,3955.41016445043
0.0028500304385181063,4071.7627336492255
0.0029619103297725525,4190.22329533788
0.0030781821425650787,4310.729530763353
0.003199018284775064,4433.210777338725
0.0033245979322709396,4557.586158596186
0.003455107294592217,4683.765505132711
0.0035907398910610534,4811.648966046511
0.0037316968377327513,4941.126377425051
0.0038781871456107214,5072.077632162783
0.0040304280305680515,5204.370710261922
0.00418864523543527,5337.862330495109
0.004353073364731888,5472.399472708806
0.00452395623253805,5607.820433321275
0.004701547224022131,5743.952794216902
0.004886109671160325,5880.602347097476
0.005077917243205399,6017.553754491073
0.005277254352483535,6154.589403814992
0.005484416576121017,6291.525758628998
0.005699711094326071,6428.183288523366
0.005923457145875801,6564.307521005162
0.006155986501483508,6699.535353968265
0.006397643955748424,6833.492014167033
0.0066487878384172625,6965.899388991338
0.0069097905457156435,7096.526207882359
0.007181039092537346,7225.095234857163
0.007462935686310132,7351.2215133949985
0.007755898323389004,7474.49860469086
0.00806036140886134,7594.589634977152
0.008376776400682916,7711.218114056711
0.008705612479099857,7824.089823976749
0.009047357242349292,7932.828280467738
0.00940251742967013,8037.032453760844
0.009771619672696168,8136.295234649899
0.010155211276345676,8230.203938744347
0.010553861030365234,8318.348262501459
0.010968160052731372,8400.333803652735
0.011398722666160517,8475.77781231431
0.011846187309026826,8544.298861741338
0.012311217482038896,8605.510179422832
0.012794502732078732,8659.034404588894
0.013296759674662111,8704.496157369067
0.013818733056536317,8741.527556328712
0.014361196859990781,8769.779261217824
0.014924955450518284,8788.920072162291
0.015510844769528393,8798.643353894384
0.016119733573881575,8798.669864842812
0.01675252472408214,8788.750292308192
0.017410156523040152,8768.669683557267
0.018093604107387147,8738.251245119554
0.01880388089340914,8697.358155505912
0.019542040079740527,8645.90387485876
0.02030917620904734,8583.863328387524
0.021106426791015535,8511.260435523116
0.021934973989050584,8428.19448214002
0.02279604637318978,8334.831038906232
0.023690920741826323,8231.396322033379
0.02462092401494623,8118.21776227953
0.02558743520168586,7995.675880187759
0.02659188744512693,7864.242606458128
0.027635770147361564,7724.484668233263
0.028720631177978267,7577.007767260877
0.029848079169243254,7422.527652187337
0.03101978590138095,7261.800836840131
0.03223748878149028,7095.620246328893
0.0335029934197723,6924.846160382742
0.03481817630688963,6750.326481680877
0.03618498759642746,6572.938757626688
0.037605453996581675,6393.558855214883
0.03908168177536263,6212.986069509026
0.04061585988376978,6031.881046891596
0.04221026320156896,5850.845854229125
0.04386725591048496,5670.499447428697
0.0455892949998106,5491.47572782636
0.047378933909631396,5314.281670484216
0.049238826317067365,5138.9368289839485
0.05117173007114603,4965.307456601511
0.05318051128214196,4793.036803917983
0.05526814857144601,4621.365767158901
0.057437737488265785,4449.68136378273
0.0596924950997073,4278.18200940721
0.0620357647610427,4107.515226559612
0.06447102107323864,3938.164397020941
0.06700187503509585,3770.197520623493
0.06963207939763882,3603.6575344576295
0.0723655342286965,3438.8525142830317
0.07520629269592405,3276.2658828344443
0.07815856707684081,3116.9333593311267
0.08122673500479707,2962.602531360352
0.08441534596012978,2814.4381797946753
0.0877291280161335,2672.7511347551513
0.09117299484984914,2537.5716980522084
0.09475205302806537,2408.7119664393554
0.09847160957933764,2286.0880863127522
0.1023371798632519,2169.5655290203927
0.10635449574860109,2058.2214911026317
0.11052951411260206,1950.6949575479325
0.1148684256737553,1845.4641047159598
0.1193776641714435,1741.9680114808789
0.1240639159058831,1640.4343091686947
0.12893412965257148,1541.6978058327284
0.13399552696593373,1447.0819701435769
0.1392556128874462,1358.0204633121266
0.14472218707411338,1274.9146590165033
0.15040335536380234,1196.8370669070955
0.15630754179458153,1123.2234775500874
0.16244350109588662,1053.988478141911
0.16882033167003618,988.4142741640411
0.17544748908334581,925.0647637616956
0.1823348000868439,864.264181411034
0.189492477187382,806.853417632397
0.19693113379074215,752.6210237463376
0.20466179993919872,701.8257549216802
0.21269593866686892,654.5665442888052
0.22104546299710207,610.0557958154486
0.22972275360711503,568.0041470725967
0.23874067718606454,528.3690678071891
0.2481126055137766,491.11757029334586
0.25785243528842716,456.24999491072236
0.26797460873256895,423.639051308887
0.27849413500806414,393.1776124351419
0.28942661247167484,364.61958599753115
0.3007882518043098,337.9274734448458
0.31259590004822796,312.99657225747086
0.324867065587837,289.76318864917556
0.3376199441111335,268.08276608843096
0.35087344559027084,247.89826884348085
0.36464722232127456,229.08647132019266
0.37896169806447155,211.59909234712347
0.3938380983288488,195.33973448286906
0.4092984818452433,180.23058414743878
0.4253657732750382,166.20860585638908
0.44206379720285277,153.2037087637813
0.45941731346364734,141.1481084816417
0.47745205385661277,129.98063886725663
0.4961947603002895,119.64429286770832
0.5156732244854959,110.08257253012752
0.5359163290848509,101.24064796004795
0.556954090580013,93.06767516865624
0.5788177037701272,85.51618867003545
0.6015395880274836,78.5420693890678
0.6251534353689703,72.10531485154416
0.6496942604146115,66.16633177373731
0.6751984523072497,60.69239192444643
0.7017038286703824,55.650002962195785
0.7292496916841444,51.007606447295885
0.7578768863625915,46.736101804814524
0.7876278611187046,42.80779292950437
0.8185467307069019,39.19470982548482
0.850679341636415,35.87325681389237
0.8840733401525058,32.82056348999168
0.9187782428863317,30.016893015645607
0.9548455102782278,27.443945323915077
0.9923286228832539,25.0835085598039
1.0312831606721837,22.918826617488516
1.0717668854455022,20.93438997687951
1.1138398264826193,19.11584736111489
1.1575643695533022,17.44992594957489
1.2030053494233226,15.924358624757947
1.2502301459914542,14.527827837508974
1.299308784200415,13.24988478162833
1.3503140378698726,12.080878359526077
1.4033215376054824,11.011899123600983
1.4584098829439835,10.034726742245189
1.5156607589006013,9.14177989309243
1.575159057091621,8.326067022040814
1.6369930016117014,7.58114754451132
1.7012542798525885,6.9010928800397355
1.7680381784572046,6.280448309803229
1.8374437246107238,5.714197418854994
1.9095738328780953,5.1977290344763345
1.9845354578058014,4.726806509981564
2.0624397525140905,4.297538827465606
2.143402233514853,3.9063539108302137
2.227542951999554,3.5499738901476956
2.314986671851158,3.225392133636518
2.405863054644063,2.9298502030802958
2.5003068519063225,2.6608167505594014
2.598458104929248,2.415973730285974
2.7004623524206774,2.1931997048338427
2.806470846309834,1.9905537803931193
2.916640776023701,1.8062608144693624
3.031135501567576,1.6386988999502894
3.150124795755327,1.486386874579749
3.2737850959485697,1.3479706708309322
3.4022997656780634,1.2222126940467724
3.5358593665351745,1.1079822095797118
3.6746619407366854,1.0042464335934953
3.8189133047818515,0.9100612786710536
3.968827354637162,0.8245642747710826
4.1246263829013445,0.7469690621052274
4.286541408420921,0.6765589111374363
4.4548125188449825,0.6126807122959613
4.629689226627261,0.5547395062312314
4.811430839003257,0.5021938738677901
5.000306842491082,0.45455098143238587
5.196597302486189,0.4113619494050148
5.400593278542364,0.3722180395443146
5.612597255954967,0.3367471694025931
5.8329235942862,0.3046106838701755
6.06189899349756,0.27550020724949503
6.29986297838068,0.24913520970341682
6.547168402004727,0.2252607005656297
6.804181968927091,0.20364495307178485
7.071284778942991,0.18407742566186422
7.348872892180382,0.16636686176859758
7.637357916378006,0.15033954839967945
7.937167617217536,0.1358377508213278
8.248746552614573,0.12271827602843219
8.572556731909314,0.11085115725650238
8.909078300934132,0.10011845489671731
9.258810253973934,0.09041319370976544
9.622271173675122,0.08163842229892862
9.999999999999984,0.07370619446460538
