k [1/Mpc],P(k) [Mpc^3]
0.0001,565.8961223053396
0.00010392556829367125,586.4005703172556
0.00010800523745162529,607.6467822880161
0.00011224505680853065,629.6614553190122
0.00011665131316981963,652.4722379055866
0.00012123054013376525,676.107748894394
0.00012598952777950273,700.5976141486422
0.00013093533273536104,725.9725056357582
0.00013607528864243335,752.2641612524785
0.00014141701702890234,779.5054360493104
0.00014696843861124463,807.7303254256706
0.00015273778503907136,836.9739980354963
0.00015873361110102093,867.2728538166049
0.00016496480740980205,898.6645493354412
0.0001714406135851971,931.188050513537
0.00017817063195457305,964.8836513030047
0.00018516484179121546,999.7929807471747
0.000192433614111598,1035.9590981117747
0.00019998772705352857,1073.4265235485682
0.0002078383818579757,1112.2412914675774
0.00021599721947827182,1152.4509924000838
0.0002244763378413224,1194.1047627082694
0.0002332883097864157,1237.2533872868594
0.00024244620170823283,1281.9492913976683
0.0002519635929317015,1328.246572046956
0.0002618545958474233,1376.2011087272506
0.0002721338768375308,1425.8705270560904
0.0002828166780230032,1477.314307113011
0.0002939188398646886,1530.5937992690447
0.0003054568246515432,1585.7721984508585
0.00031744774091091926,1642.914697693976
0.00032990936877709396,1702.0883745374626
0.00034286018635565856,1763.3622885665409
0.00035631939712285854,1826.8076013211758
0.000370306958400514,1892.497515906485
0.00038484361094874304,1960.507427300562
0.0003999509097203664,2030.914738324933
0.00041565125582259895,2103.798849030103
0.00043196792973341727,2179.2414107099926
0.0004489251258218605,2257.326165590414
0.0004665479882234472,2338.139120617448
0.000484862648123908,2421.7684394043767
0.000503896262506515,2508.3042561207567
0.0005236770544204653,2597.83900577
0.0005442343548300266,2690.467119838822
0.0005655986461065005,2786.2851523684208
0.0005878016072274912,2885.3918550577464
0.0006108761607505036,2987.8878169938316
0.0006348565216305217,3093.875812140184
0.0006597782479539537,3203.460432193797
0.0006856782936641739,3316.7480005535917
0.0007125950633568407,3433.846824710429
0.0007405684692262436,3554.8664868141136
0.0007696399902471156,3679.9182468748736
0.0007998527336796708,3809.114792504151
0.000831251498989063,3942.5697806635803
0.0008638828442740447,4080.3982866698016
0.000897795155303332,4222.715684753372
0.0009330387172620361,4369.6378845458885
0.0009696657893145519,4521.28127459637
0.001007730682094461,4677.761403050234
0.0010472898382363582,4839.193930572186
0.0010884019160690055,5005.693454434276
0.0011311278765939214,5177.373151556361
0.001175531073878369,5354.34515405307
0.0012216773489967915,5536.7181205014695
0.0012696351276599736,5724.59839968777
0.0013194755216767058,5918.089333777102
0.0013712724343984,6117.290012119917
0.0014251026703029975,6322.296229685158
0.0014810460488806749,6533.198434792248
0.0015391855229902056,6750.081926368976
0.001599607301861487,6973.0259783649535
0.0016624009789266115,7202.100621852233
0.0017276596646690358,7437.368826266486
0.0017954801246878305,7678.884506907682
0.0018659629231817451,7926.691795256021
0.001939212572065829,8180.825474568214
0.0020153376859417325,8441.30770183521
0.002094451143151469,8708.149170567232
0.002176670253153458,8981.347212124554
0.002262116930469025,9260.883609231627
0.002350917875457286,9546.726233176656
0.002443204762186487,9838.82616215102
0.0025391144336803463,10137.117812188751
0.002638789104828933,10441.517542925441
0.002742376573264949,10751.919574127805
0.0028500304385181063,11068.198648675418
0.0029619103297725525,11390.207840902738
0.0030781821425650787,11717.77775087581
0.003199018284775064,12050.716297768655
0.0033245979322709396,12388.803636548475
0.003455107294592217,12731.794661365551
0.0035907398910610534,13079.417949327983
0.0037316968377327513,13431.374043874184
0.0038781871456107214,13787.336460041672
0.0040304280305680515,14146.946330269477
0.00418864523543527,14509.814175800904
0.004353073364731888,14875.524044733209
0.00452395623253805,15243.63638115855
0.004701547224022131,15613.682504046363
0.004886109671160325,15985.134500508682
0.005077917243205399,16357.407022608588
0.005277254352483535,16729.908538016884
0.005484416576121017,17102.140142963213
0.005699711094326071,17473.613823197174
0.005923457145875801,17843.637850765375
0.006155986501483508,18211.225211810874
0.006397643955748424,18575.357167030244
0.0066487878384172625,18935.27772796912
0.0069097905457156435,19290.35823606999
0.007181039092537346,19639.845085798264
0.007462935686310132,19982.69185683883
0.007755898323389004,20317.793733973656
0.00806036140886134,20644.234999361805
0.008376776400682916,20961.26407472459
0.008705612479099857,21268.08119274733
0.009047357242349292,21563.662963081468
0.00940251742967013,21846.919273793716
0.009771619672696168,22116.743487326745
0.010155211276345676,22372.01381120082
0.010553861030365234,22611.61492475159
0.010968160052731372,22834.47473145948
0.011398722666160517,23039.552809270357
0.011846187309026826,23225.81233279478
0.012311217482038896,23392.201945344423
0.012794502732078732,23537.695873995683
0.013296759674662111,23661.27373046792
0.013818733056536317,23761.93550934234
0.014361196859990781,23838.7316053654
0.014924955450518284,23890.76172393771
0.015510844769528393,23917.192343983053
0.016119733573881575,23917.26440821242
0.01675252472408214,23890.30021444548
0.017410156523040152,23835.715460573447
0.018093604107387147,23753.029572118114
0.01880388089340914,23641.8706297118
0.019542040079740527,23502.003393632218
0.02030917620904734,23333.359703531783
0.021106426791015535,23136.004579164906
0.021934973989050584,22910.207907520013
0.02279604637318978,22656.41975633524
0.023690920741826323,22375.255045027952
0.02462092401494623,22067.6038226779
0.02558743520168586,21734.500451362666
0.02659188744512693,21377.227771728525
0.027635770147361564,20997.326307868978
0.028720631177978267,20596.442527838284
0.029848079169243254,20176.522038175615
0.03101978590138095,19739.621256671217
0.03223748878149028,19287.89557724192
0.0335029934197723,18823.6834826428
0.03481817630688963,18349.28981131901
0.03618498759642746,17867.099984430803
0.037605453996581675,17379.49485531403
0.03908168177536263,16888.647133215574
0.04061585988376978,16396.35264119195
0.04221026320156896,15904.247966665971
0.04386725591048496,15414.015606232486
0.0455892949998106,14927.378682374305
0.047378933909631396,14445.715296190225
0.049238826317067365,13969.078599826016
0.05117173007114603,13497.105031992087
0.05318051128214196,13028.824847225673
0.05526814857144601,12562.174587530737
0.057437737488265785,12095.487993603456
0.0596924950997073,11629.304415012022
0.0620357647610427,11165.384000475831
0.06447102107323864,10705.040717906395
0.06700187503509585,10248.459410012189
0.06963207939763882,9795.7567919057
0.0723655342286965,9347.770300326263
0.07520629269592405,8905.814014509202
0.07815856707684081,8472.703311187608
0.08122673500479707,8053.188625943612
0.08441534596012978,7650.436161457217
0.0877291280161335,7265.29084159822
0.09117299484984914,6897.835035227282
0.09475205302806537,6547.557968363954
0.09847160957933764,6214.231703280668
0.1023371798632519,5897.490553187269
0.10635449574860109,5594.826078208164
0.11052951411260206,5302.538655969234
0.1148684256737553,5016.491540922834
0.1193776641714435,4735.159991365411
0.1240639159058831,4459.16277339403
0.12893412965257148,4190.7691305702865
0.13399552696593373,3933.5766237320004
0.1392556128874462,3691.4823480968876
0.14472218707411338,3465.5773504406206
0.15040335536380234,3253.34045059978
0.15630754179458153,3053.2379683229788
0.16244350109588662,2865.0377275383603
0.16882033167003618,2686.7885604496496
0.17544748908334581,2514.586737481177
0.1823348000868439,2349.313619317645
0.189492477187382,2193.254983380222
0.19693113379074215,2045.8360525659132
0.20466179993919872,1907.7601963481548
0.21269593866686892,1779.296342857492
0.22104546299710207,1658.3035841112555
0.22972275360711503,1543.9953514768185
0.23874067718606454,1436.2560357401276
0.2481126055137766,1334.99596696536
0.25785243528842716,1240.2160704003486
0.26797460873256895,1151.5703349985768
0.27849413500806414,1068.7675592393593
0.28942661247167484,991.1387949173492
0.3007882518043098,918.582110402201
0.31259590004822796,850.8128947374515
0.324867065587837,787.6580102614043
0.3376199441111335,728.7245115812186
0.35087344559027084,673.8573595036892
0.36464722232127456,622.7215921354839
0.37896169806447155,575.1859676456131
0.3938380983288488,530.9884506207977
0.4092984818452433,489.9175218205417
0.4253657732750382,451.8018330329341
0.44206379720285277,416.4508575851185
0.45941731346364734,383.6803384070127
0.47745205385661277,353.3240086843612
0.4961947603002895,325.22690718112364
0.5156732244854959,299.2354565386705
0.5359163290848509,275.2006136512177
0.556954090580013,252.98417022788735
0.5788177037701272,232.45710170083262
0.6015395880274836,213.49947998987244
0.6251534353689703,196.00256709627064
0.6496942604146115,179.85873731634248
0.6751984523072497,164.97902609393725
0.7017038286703824,151.27239180582885
0.7292496916841444,138.65304971887485
0.7578768863625915,127.04189626903931
0.7876278611187046,116.36364563670934
0.8185467307069019,106.5422674903406
0.850679341636415,97.51362212484825
0.8840733401525058,89.21554133463077
0.9187782428863317,81.59437483122869
0.9548455102782278,74.60037787522195
0.9923286228832539,68.18404551211187
1.0312831606721837,62.29982992392252
1.0717668854455022,56.90557186402674
1.1138398264826193,51.96226051731541
1.1575643695533022,47.43381661668538
1.2030053494233226,43.2868946795446
1.2502301459914542,39.49073041768211
1.299308784200415,36.01692103107633
1.3503140378698726,32.83923211652385
1.4033215376054824,29.933445284508636
1.4584098829439835,27.27721535699713
1.5156607589006013,24.84993416316543
1.575159057091621,22.63259668854566
1.6369930016117014,20.60769560911203
1.7012542798525885,18.75911537232011
1.7680381784572046,17.07202851511444
1.8374437246107238,15.53279900790111
1.9095738328780953,14.128892383671001
1.9845354578058014,12.848792242724807
2.0624397525140905,11.681921701796949
2.143402233514853,10.618570851339696
2.227542951999554,9.649829517092549
2.314986671851158,8.767524826518896
2.405863054644063,7.9641585671402115
2.5003068519063225,7.232849821905065
2.598458104929248,6.567297489070778
2.7004623524206774,5.961734903831577
2.806470846309834,5.410886169813073
2.916640776023701,4.909925949429702
3.031135501567576,4.454445442050699
3.150124795755327,4.040418431230166
3.2737850959485697,3.6641641798154723
3.4022997656780634,3.322318556739316
3.5358593665351745,3.0118079065564323
3.6746619407366854,2.7298248317320013
3.8189133047818515,2.4738030365957284
3.968827354637162,2.241398084506745
4.1246263829013445,2.030472427941736
4.286541408420921,1.8390777940269307
4.4548125188449825,1.665438846881456
4.629689226627261,1.5079383193166993
4.811430839003257,1.3651044816982676
5.000306842491082,1.2355976729358793
5.196597302486189,1.118197711987141
5.400593278542364,1.0117935331179606
5.612597255954967,0.9153737113720887
5.8329235942862,0.828017686718781
6.06189899349756,0.7488872071030033
6.29986297838068,0.6772197133661315
6.547168402004727,0.6123220690135054
6.804181968927091,0.5535643753924279
7.071284778942991,0.5003743212061663
7.348872892180382,0.45223201720333667
7.637357916378006,0.4086652625135878
7.937167617217536,0.3692452896763631
8.248746552614573,0.3335828597479084
8.572556731909314,0.3013246864340065
8.909078300934132,0.2721501766391432
9.258810253973934,0.24576854151420302
9.622271173675122,0.22191623983924336
9.999999999999984,0.20035420905800547
