k [1/Mpc],P(k) [Mpc^3]
0.0001,1719.049930165463
0.00010392556829367125,1781.293773310555
0.00010800523745162529,1845.7842774209375
0.00011224505680853065,1912.6016222116943
0.00011665131316981963,1981.8287045722157
0.00012123054013376525,2053.5513588226845
0.00012598952777950273,2127.858554990493
0.00013093533273536104,2204.8423793077504
0.00013607528864243335,2284.5977457708013
0.00014141701702890234,2367.2224951010135
0.00014696843861124463,2452.8178405637927
0.00015273778503907136,2541.48866922562
0.00015873361110102093,2633.343508209464
0.00016496480740980205,2728.4942956776576
0.0001714406135851971,2827.056372764857
0.00017817063195457305,2929.1488967853325
0.00018516484179121546,3034.894911569225
0.000192433614111598,3144.4215020381166
0.00019998772705352857,3257.8596413603054
0.0002078383818579757,3375.3440007661684
0.00021599721947827182,3497.013501109219
0.0002244763378413224,3623.011421565952
0.0002332883097864157,3753.485540453601
0.00024244620170823283,3888.587985413484
0.0002519635929317015,4028.474744914137
0.0002618545958474233,4173.306374976068
0.0002721338768375308,4323.247898186359
0.0002828166780230032,4478.468905751955
0.0002939188398646886,4639.143749658209
0.0003054568246515432,4805.451007288217
0.00031744774091091926,4977.57404323588
0.00032990936877709396,5155.700519557973
0.00034286018635565856,5340.0221373165405
0.00035631939712285854,5530.735414368134
0.000370306958400514,5728.041116193987
0.00038484361094874304,5932.144662122911
0.0003999509097203664,6143.2556035721245
0.00041565125582259895,6361.586763589009
0.00043196792973341727,6587.3553892008495
0.0004489251258218605,6820.782379499135
0.0004665479882234472,7062.092516934952
0.000484862648123908,7311.51423428496
0.000503896262506515,7569.278122395032
0.0005236770544204653,7835.618205710835
0.0005442343548300266,8110.770898894299
0.0005655986461065005,8394.974830396675
0.0005878016072274912,8688.471074167814
0.0006108761607505036,8991.500907233938
0.0006348565216305217,9304.307094821832
0.0006597782479539537,9627.132678481647
0.0006856782936641739,9960.219969027972
0.0007125950633568407,10303.81129686939
0.0007405684692262436,10658.145126210491
0.0007696399902471156,11023.457496760599
0.0007998527336796708,11399.980951241594
0.000831251498989063,11787.941768988136
0.0008638828442740447,12187.561964160508
0.000897795155303332,12599.053868662157
0.0009330387172620361,13022.62082526697
0.0009696657893145519,13458.456611158985
0.001007730682094461,13906.738992900975
0.0010472898382363582,14367.634114965686
0.0010884019160690055,14841.29167179102
0.0011311278765939214,15327.84363703724
0.001175531073878369,15827.40504201401
0.0012216773489967915,16340.065357763786
0.0012696351276599736,16865.89277773707
0.0013194755216767058,17404.933634328507
0.0013712724343984,17957.21029300291
0.0014251026703029975,18522.719002209415
0.0014810460488806749,19101.41472481204
0.0015391855229902056,19693.216766690715
0.001599607301861487,20298.010302224495
0.0016624009789266115,20915.64185552687
0.0017276596646690358,21545.920628626533
0.0017954801246878305,22188.607847045776
0.0018659629231817451,22843.417674313125
0.001939212572065829,23510.018656565728
0.0020153376859417325,24188.027190416848
0.002094451143151469,24877.010374823905
0.002176670253153458,25576.476997488724
0.002262116930469025,26285.875784003834
0.002350917875457286,27004.599532836815
0.002443204762186487,27731.97895889181
0.0025391144336803463,28467.285245868356
0.002638789104828933,29209.723829321352
0.002742376573264949,29958.430554970048
0.0028500304385181063,30712.476807007784
0.0029619103297725525,31470.858208266905
0.0030781821425650787,32232.50071104048
0.003199018284775064,32996.25635285559
0.0033245979322709396,33760.89380013628
0.003455107294592217,34525.112166211606
0.0035907398910610534,35287.52675766387
0.0037316968377327513,36046.67604532831
0.0038781871456107214,36801.03108056182
0.0040304280305680515,37548.99147513216
0.00418864523543527,38288.8884038201
0.004353073364731888,39018.85528873667
0.00452395623253805,39736.83320859341
0.004701547224022131,40440.78828104547
0.004886109671160325,41129.065092349236
0.005077917243205399,41800.09187876965
0.005277254352483535,42451.56357219338
0.005484416576121017,43080.16302408198
0.005699711094326071,43682.524545544984
0.005923457145875801,44255.961267286286
0.006155986501483508,44798.08782435445
0.006397643955748424,45306.486944468845
0.0066487878384172625,45778.675882476506
0.0069097905457156435,46212.15018881263
0.007181039092537346,46603.93863852826
0.007462935686310132,46950.79615446672
0.007755898323389004,47249.4459665066
0.00806036140886134,47496.4366741434
0.008376776400682916,47688.36650683698
0.008705612479099857,47821.68604732778
0.009047357242349292,47892.75687402295
0.00940251742967013,47898.06467803045
0.009771619672696168,47833.98815901096
0.010155211276345676,47697.10234828002
0.010553861030365234,47483.85830964171
0.010968160052731372,47190.49203597614
0.011398722666160517,46813.57552445391
0.011846187309026826,46349.38354162473
0.012311217482038896,45794.514133953715
0.012794502732078732,45145.90827424723
0.013296759674662111,44400.54563127149
0.013818733056536317,43556.25748336022
0.014361196859990781,42610.76546947785
0.014924955450518284,41562.39242443914
0.015510844769528393,40410.46664281133
0.016119733573881575,39154.45615898992
0.01675252472408214,37795.50842408484
0.017410156523040152,36335.35525007687
0.018093604107387147,34776.81607728898
0.01880388089340914,33124.861378301655
0.019542040079740527,31384.86313822215
0.02030917620904734,29564.867171046626
0.021106426791015535,27674.442811110745
0.021934973989050584,25724.487987215787
0.02279604637318978,23729.304398455082
0.023690920741826323,21703.696306796886
0.02462092401494623,19665.4695380167
0.02558743520168586,17634.158804233884
0.02659188744512693,15629.212140634067
0.027635770147361564,13673.512544417314
0.028720631177978267,11789.292415215083
0.029848079169243254,9999.640675875207
0.03101978590138095,8326.454944501105
0.03223748878149028,6785.9248079763265
0.0335029934197723,5395.692110889023
0.03481817630688963,4171.53406003263
0.03618498759642746,3124.5539127262596
0.037605453996581675,2256.2229537553335
0.03908168177536263,1553.5340356125132
0.04061585988376978,1007.235881311312
0.04221026320156896,609.1045783282606
0.04386725591048496,341.756596138872
0.0455892949998106,175.26834033950027
0.047378933909631396,76.77009475357688
0.049238826317067365,27.0426741330491
0.05117173007114603,9.850261573277065
0.05318051128214196,5.801196021034607
0.05526814857144601,6.664873294025472
0.057437737488265785,14.166430193842045
0.0596924950997073,40.23147967303914
0.0620357647610427,98.01573244299813
0.06447102107323864,195.81632159156027
0.06700187503509585,346.8901454538998
0.06963207939763882,547.3485698822666
0.0723655342286965,776.2896572349068
0.07520629269592405,1006.3803485416033
0.07815856707684081,1198.6314471219418
0.08122673500479707,1315.4350133469222
0.08441534596012978,1323.9457881259339
0.0877291280161335,1209.7178423274338
0.09117299484984914,1003.4362282411165
0.09475205302806537,721.1967561563275
0.09847160957933764,450.82507278484155
0.1023371798632519,253.79157205722993
0.10635449574860109,69.55981484466537
0.11052951411260206,43.36681735832674
0.1148684256737553,0.38593258915205236
0.1193776641714435,0.00026525824397356215
0.1240639159058831,0.5123855388535848
0.12893412965257148,10.675247812322853
0.13399552696593373,53.33161994934976
0.1392556128874462,134.36673350300686
0.14472218707411338,233.2120087237379
0.15040335536380234,298.4823319108714
0.15630754179458153,292.813671794677
0.16244350109588662,216.0420558675495
0.16882033167003618,113.66781267646965
0.17544748908334581,38.38337770182156
0.1823348000868439,7.08033842876928
0.189492477187382,1.2551168830995665
0.19693113379074215,3.7207576710808627
0.20466179993919872,21.123229097944463
0.21269593866686892,59.428643574306655
0.22104546299710207,93.61485069919372
0.22972275360711503,89.68989695393614
0.23874067718606454,52.28110491302379
0.2481126055137766,17.65202056275923
0.25785243528842716,4.510857101487472
0.26797460873256895,4.341606325604121
0.27849413500806414,14.140101585330964
0.28942661247167484,31.38062320352452
0.3007882518043098,36.18145587594977
0.31259590004822796,21.930854428037875
0.324867065587837,8.010511691743352
0.3376199441111335,4.373321880922687
0.35087344559027084,8.159394175344634
0.36464722232127456,15.331445822526021
0.37896169806447155,14.97944823062969
0.3938380983288488,7.850912184626625
0.4092984818452433,4.272683916117983
0.4253657732750382,5.697608711032117
0.44206379720285277,8.462801023805847
0.45941731346364734,6.966679290827505
0.47745205385661277,4.036156530657454
0.4961947603002895,3.820945764049401
0.5156732244854959,4.974290940311705
0.5359163290848509,4.258584996846849
0.556954090580013,2.966768235978543
0.5788177037701272,3.073362995990668
0.6015395880274836,3.136991097005888
0.6251534353689703,2.931294982154201
0.6496942604146115,2.6673519403571446
0.6751984523072497,2.3812259383204832
0.7017038286703824,2.100853113960789
0.7292496916841444,1.8451891423639282
0.7578768863625915,1.625217577953982
0.7876278611187046,1.4436446101707412
0.8185467307069019,1.2926572639437295
0.850679341636415,1.164572592107175
0.8840733401525058,1.053648074217714
0.9187782428863317,0.9555561055195447
0.9548455102782278,0.8670325150813036
0.9923286228832539,0.7860866700830202
1.0312831606721837,0.7121205231517561
1.0717668854455022,0.6446905383032617
1.1138398264826193,0.5833517637529473
1.1575643695533022,0.5276644791600805
1.2030053494233226,0.47719886696221553
1.2502301459914542,0.43151221120912236
1.299308784200415,0.39015571670600985
1.3503140378698726,0.35272014546468616
1.4033215376054824,0.3188351308447723
1.4584098829439835,0.28816543829812874
1.5156607589006013,0.26040770720549977
1.575159057091621,0.23528914568331946
1.6369930016117014,0.21256366726495882
1.7012542798525885,0.19200755915249257
1.7680381784572046,0.17341746755926257
1.8374437246107238,0.15660861271458157
1.9095738328780953,0.14141306662071598
1.9845354578058014,0.1276776388034779
2.0624397525140905,0.11526314915201154
2.143402233514853,0.10404360056263233
2.227542951999554,0.0939049393239174
2.314986671851158,0.08474392761135671
2.405863054644063,0.07646720003675854
2.5003068519063225,0.06899061134012799
2.598458104929248,0.06223799179796013
2.7004623524206774,0.05614026896546113
2.806470846309834,0.05063482518179722
2.916640776023701,0.04566491107613862
3.031135501567576,0.04117903476634519
3.150124795755327,0.03713035970249286
3.2737850959485697,0.03347651849724362
3.4022997656780634,0.03017923577828618
3.5358593665351745,0.027203933280466035
3.6746619407366854,0.0245193735675538
3.8189133047818515,0.022097387705280157
3.968827354637162,0.019912602781848424
4.1246263829013445,0.017942068677034503
4.286541408420921,0.016165020053556453
4.4548125188449825,0.014562672710890196
4.629689226627261,0.013118037416042946
4.811430839003257,0.011815722134806821
5.000306842491082,0.010641787974342154
5.196597302486189,0.009583652947623027
5.400593278542364,0.008629962605013888
5.612597255954967,0.007770470643193944
5.8329235942862,0.0069959322382447025
6.06189899349756,0.006298020640230783
6.29986297838068,0.005669228578004256
6.547168402004727,0.0051027755786284615
6.804181968927091,0.004592538348357153
7.071284778942991,0.004132988021744284
7.348872892180382,0.0037191322253550736
7.637357916378006,0.0033464572116899812
7.937167617217536,0.0030108886231686623
8.248746552614573,0.0027087531551392174
8.572556731909314,0.002436739275990441
8.909078300934132,0.0021918617546961726
9.258810253973934,0.001971430476721508
9.622271173675122,0.0017730239153677804
9.999999999999984,0.0015944591733059756
