k [1/Mpc],P(k) [Mpc^3]
0.0001,115.21424810952584
0.00010392556829367125,120.42976831252373
0.00010800523745162529,125.8813050791776
0.00011224505680853065,131.57953824466557
0.00011665131316981963,137.53562732494763
0.00012123054013376525,143.76122913324073
0.00012598952777950273,150.26852531668214
0.00013093533273536104,157.070242161762
0.00013607528864243335,164.17967603349587
0.00014141701702890234,171.61072427830763
0.00014696843861124463,179.37791849930824
0.00015273778503907136,187.4964472617257
0.00015873361110102093,195.98217940924792
0.00016496480740980205,204.85169351929866
0.0001714406135851971,214.122313221641
0.00017817063195457305,223.81213615119108
0.00018516484179121546,233.94007133463833
0.000192433614111598,244.52587706981276
0.00019998772705352857,255.5901987350761
0.0002078383818579757,267.1546076647039
0.00021599721947827182,279.2416335329591
0.0002244763378413224,291.8748094494968
0.0002332883097864157,305.0787222497032
0.00024244620170823283,318.8790605295033
0.0002519635929317015,333.30266182288835
0.0002618545958474233,348.3775509504162
0.0002721338768375308,364.1329906403725
0.0002828166780230032,380.5995438576964
0.0002939188398646886,397.80911764454834
0.0003054568246515432,415.7950309115376
0.00031744774091091926,434.5920802075241
0.00032990936877709396,454.2366036055096
0.00034286018635565856,474.76654463132
0.00035631939712285854,496.2214823256951
0.000370306958400514,518.6427152048386
0.00038484361094874304,542.0733572777684
0.0003999509097203664,566.5584169509988
0.00041565125582259895,592.14487491398
0.00043196792973341727,618.8817163848908
0.0004489251258218605,646.8200124671795
0.0004665479882234472,676.0130460745477
0.000484862648123908,706.5163869011361
0.000503896262506515,738.3879998599564
0.0005236770544204653,771.6883172387334
0.0005442343548300266,806.4803177019171
0.0005655986461065005,842.8296633727774
0.0005878016072274912,880.8047363588736
0.0006108761607505036,920.4767782191019
0.0006348565216305217,961.9200089172227
0.0006597782479539537,1005.2116861223961
0.0006856782936641739,1050.432284970128
0.0007125950633568407,1097.6655667018815
0.0007405684692262436,1146.9987059719908
0.0007696399902471156,1198.5224425806607
0.0007998527336796708,1252.3310996339592
0.000831251498989063,1308.5228018107748
0.0008638828442740447,1367.199523988468
0.000897795155303332,1428.467158814184
0.0009330387172620361,1492.4357898315832
0.0009696657893145519,1559.2197474917343
0.001007730682094461,1628.937800599559
0.0010472898382363582,1701.713214805125
0.0010884019160690055,1777.6736888946298
0.0011311278765939214,1856.9517200069693
0.001175531073878369,1939.6844612266225
0.0012216773489967915,2026.0138850729584
0.0012696351276599736,2116.0870854523737
0.0013194755216767058,2210.0561715973554
0.0013712724343984,2308.078591092027
0.0014251026703029975,2410.3168640280255
0.0014810460488806749,2516.9384852856933
0.0015391855229902056,2628.1164557279403
0.001599607301861487,2744.0288387478467
0.0016624009789266115,2864.8591322786574
0.0017276596646690358,2990.7962158808655
0.0017954801246878305,3122.0338955940733
0.0018659629231817451,3258.7715317012594
0.001939212572065829,3401.213333425859
0.0020153376859417325,3549.568481533167
0.002094451143151469,3704.0513580376405
0.002176670253153458,3864.880572149572
0.002262116930469025,4032.279653414905
0.002350917875457286,4206.4761290940805
0.002443204762186487,4387.701004508531
0.0025391144336803463,4576.189491430454
0.002638789104828933,4772.179631309535
0.002742376573264949,4975.912716626181
0.0028500304385181063,5187.6325133275695
0.0029619103297725525,5407.583763576192
0.0030781821425650787,5636.013204608252
0.003199018284775064,5873.167645556027
0.0033245979322709396,6119.293816371233
0.003455107294592217,6374.638185695049
0.0035907398910610534,6639.444534260604
0.0037316968377327513,6913.954827418447
0.0038781871456107214,7198.406871222855
0.0040304280305680515,7493.032956295058
0.00418864523543527,7798.060343054844
0.004353073364731888,8113.707302938447
0.00452395623253805,8440.183843568451
0.004701547224022131,8777.6895439015
0.004886109671160325,9126.410148239403
0.005077917243205399,9486.518864556909
0.005277254352483535,9858.169594594674
0.005484416576121017,10241.496900854967
0.005699711094326071,10636.616468183049
0.005923457145875801,11043.620525074122
0.006155986501483508,11462.57828122056
0.006397643955748424,11893.521019264916
0.0066487878384172625,12336.437691359926
0.0069097905457156435,12791.290585111494
0.007181039092537346,13258.039960613552
0.007462935686310132,13736.625062192918
0.007755898323389004,14226.890317499172
0.00806036140886134,14728.530665017375
0.008376776400682916,15241.181024233743
0.008705612479099857,15764.507343695335
0.009047357242349292,16298.176939944547
0.00940251742967013,16841.766006444734
0.009771619672696168,17394.66975865929
0.010155211276345676,17956.19115687944
0.010553861030365234,18525.61516117871
0.010968160052731372,19102.211078548273
0.011398722666160517,19685.159593223983
0.011846187309026826,20273.451695565687
0.012311217482038896,20865.956000480983
0.012794502732078732,21461.424310516973
0.013296759674662111,22058.473770156466
0.013818733056536317,22655.618638535554
0.014361196859990781,23251.252582695226
0.014924955450518284,23843.660091896294
0.015510844769528393,24430.99757429308
0.016119733573881575,25011.240671789248
0.01675252472408214,25582.25257331637
0.017410156523040152,26141.751991593
0.018093604107387147,26687.324372794938
0.01880388089340914,27216.456947870553
0.019542040079740527,27726.490317533113
0.02030917620904734,28214.68248098605
0.021106426791015535,28678.210155733883
0.021934973989050584,29114.17001652093
0.02279604637318978,29519.64137439527
0.023690920741826323,29891.69647143804
0.02462092401494623,30227.433860859106
0.02558743520168586,30524.03622076153
0.02659188744512693,30778.829997851935
0.027635770147361564,30989.278831028438
0.028720631177978267,31153.15010340334
0.029848079169243254,31268.512708587717
0.03101978590138095,31333.742947974
0.03223748878149028,31347.842501340943
0.0335029934197723,31310.170756737418
0.03481817630688963,31220.773917719074
0.03618498759642746,31080.504985633383
0.037605453996581675,30890.621620764025
0.03908168177536263,30653.5030472059
0.04061585988376978,30372.0945561084
0.04221026320156896,30050.059080571693
0.04386725591048496,29692.362368808706
0.0455892949998106,29304.13597911141
0.047378933909631396,28891.06117366925
0.049238826317067365,28459.102696031227
0.05117173007114603,28014.22642744151
0.05318051128214196,27562.966579758016
0.05526814857144601,27111.70091129238
0.057437737488265785,26667.00755050889
0.0596924950997073,26235.732352195588
0.0620357647610427,25823.171062427686
0.06447102107323864,25429.181617522572
0.06700187503509585,25051.93811365623
0.06963207939763882,24686.99450066633
0.0723655342286965,24328.419362267967
0.07520629269592405,23968.570657607223
0.07815856707684081,23598.62908766662
0.08122673500479707,23208.520832987564
0.08441534596012978,22787.456565201286
0.0877291280161335,22323.41997038395
0.09117299484984914,21805.0305722673
0.09475205302806537,21222.865631673616
0.09847160957933764,20572.743586462282
0.1023371798632519,19857.89283333227
0.10635449574860109,19091.900008109
0.11052951411260206,18297.299383174362
0.1148684256737553,17497.31221657705
0.1193776641714435,16713.48121626295
0.1240639159058831,15969.595706789329
0.12893412965257148,15286.694377668737
0.13399552696593373,14680.335904197696
0.1392556128874462,14157.035933074085
0.14472218707411338,13708.137692080101
0.15040335536380234,13309.096068898492
0.15630754179458153,12923.913984380846
0.16244350109588662,12514.251930660199
0.16882033167003618,12050.112617151499
0.17544748908334581,11518.519186413003
0.1823348000868439,10928.489152757122
0.189492477187382,10309.38772549927
0.19693113379074215,9701.616407167914
0.20466179993919872,9145.061859778694
0.21269593866686892,8668.838699532269
0.22104546299710207,8279.085972143981
0.22972275360711503,7951.046486225198
0.23874067718606454,7640.355069660947
0.2481126055137766,7305.602070232648
0.25785243528842716,6923.20607070135
0.26797460873256895,6501.421898674882
0.27849413500806414,6081.806635181479
0.28942661247167484,5707.711052233217
0.3007882518043098,5396.67857430519
0.31259590004822796,5134.670248552285
0.324867065587837,4885.069246737988
0.3376199441111335,4616.269293910623
0.35087344559027084,4325.165202888637
0.36464722232127456,4040.3011450911927
0.37896169806447155,3790.664255334534
0.3938380983288488,3577.539983220771
0.4092984818452433,3377.914551980147
0.4253657732750382,3171.6880818565355
0.44206379720285277,2962.650820275798
0.45941731346364734,2769.6229071680546
0.47745205385661277,2599.8235811006653
0.4961947603002895,2440.397980801744
0.5156732244854959,2281.7973437111204
0.5359163290848509,2128.990330697985
0.556954090580013,1990.0183767320423
0.5788177037701272,1861.369675118331
0.6015395880274836,1737.0044171723061
0.6251534353689703,1619.0214767388513
0.6496942604146115,1510.248674238255
0.6751984523072497,1407.9682976005695
0.7017038286703824,1310.9148760345975
0.7292496916841444,1220.3602619399437
0.7578768863625915,1135.7933920366263
0.7876278611187046,1056.1506549711587
0.8185467307069019,981.7581644835398
0.850679341636415,912.2394537311254
0.8840733401525058,847.2050114199848
0.9187782428863317,786.4392105119872
0.9548455102782278,729.6989291948186
0.9923286228832539,676.751293708428
1.0312831606721837,627.3735833713642
1.0717668854455022,581.3522363939696
1.1138398264826193,538.4827070159544
1.1575643695533022,498.5706488497141
1.2030053494233226,461.43170122931065
1.2502301459914542,426.89115990884784
1.299308784200415,394.7836259391473
1.3503140378698726,364.95253855008133
1.4033215376054824,337.24993896016395
1.4584098829439835,311.536222046308
1.5156607589006013,287.67978230612795
1.575159057091621,265.5566625410669
1.6369930016117014,245.0501748438416
1.7012542798525885,226.05048455672895
1.7680381784572046,208.4544058139128
1.8374437246107238,192.1651041695984
1.9095738328780953,177.09177191839814
1.9845354578058014,163.14931321706652
2.0624397525140905,150.25800196673356
2.143402233514853,138.34318290220878
2.227542951999554,127.33505965219574
2.314986671851158,117.16842506295467
2.405863054644063,107.78239675952233
2.5003068519063225,99.12016281135536
2.598458104929248,91.12872261255143
2.7004623524206774,83.75867087187696
2.806470846309834,76.96399475136666
2.916640776023701,70.70186442828873
3.031135501567576,64.93243412917381
3.150124795755327,59.618646059590894
3.2737850959485697,54.72602973403292
3.4022997656780634,50.222567137534114
3.5358593665351745,46.07854231642045
3.6746619407366854,42.266388306252935
3.8189133047818515,38.76054307104332
3.968827354637162,35.537312412327054
4.1246263829013445,32.574742078720156
4.286541408420921,29.852501707628132
4.4548125188449825,27.351772825454916
4.629689226627261,25.0551434937631
4.811430839003257,22.94650913384523
5.000306842491082,21.010973392046576
5.196597302486189,19.23476612539839
5.400593278542364,17.60516936714623
5.612597255954967,16.110441228590183
5.8329235942862,14.739744738902798
6.06189899349756,13.483081368236714
6.29986297838068,12.331228677870705
6.547168402004727,11.275683575050346
6.804181968927091,10.308609038889381
7.071284778942991,9.422784255679966
7.348872892180382,8.611558253794053
7.637357916378006,7.8688044672243
7.937167617217536,7.188879194418509
8.248746552614573,6.566590137943645
8.572556731909314,5.997162236925251
8.909078300934132,5.476205268259488
9.258810253973934,4.999684129986505
9.622271173675122,4.563895868784477
9.999999999999984,4.165441521725241
