k [1/Mpc],P(k) [Mpc^3]
0.0001,221.50392236581123
0.00010392556829367125,228.87012174921722
0.00010800523745162529,236.48100819791924
0.00011224505680853065,244.34467407579868
0.00011665131316981963,252.46947780433098
0.00012123054013376525,260.8640561312995
0.00012598952777950273,269.5373311153284
0.00013093533273536104,278.4985103465522
0.00013607528864243335,287.75708850558675
0.00014141701702890234,297.3228682243121
0.00014696843861124463,307.2059723669938
0.00015273778503907136,317.41685397736205
0.00015873361110102093,327.9663045132389
0.00016496480740980205,338.8654611861829
0.0001714406135851971,350.12582056966687
0.00017817063195457305,361.759231688856
0.00018516484179121546,373.7779070948684
0.000192433614111598,386.194452455914
0.00019998772705352857,399.02188809806813
0.0002078383818579757,412.27365429877005
0.00021599721947827182,425.9635968427998
0.0002244763378413224,440.1059690183077
0.0002332883097864157,454.71547175901065
0.00024244620170823283,469.80726851603725
0.0002519635929317015,485.39699923988405
0.0002618545958474233,501.5007696684318
0.0002721338768375308,518.13513884712
0.0002828166780230032,535.3171698095518
0.0002939188398646886,553.0644368231657
0.0003054568246515432,571.3950435586017
0.00031744774091091926,590.3276313790946
0.00032990936877709396,609.8813664995898
0.00034286018635565856,630.0759800773901
0.00035631939712285854,650.9317271214098
0.000370306958400514,672.4693993672826
0.00038484361094874304,694.7103816771532
0.0003999509097203664,717.6766362195661
0.00041565125582259895,741.3907403440695
0.00043196792973341727,765.8758575853619
0.0004489251258218605,791.1557274202912
0.0004665479882234472,817.2547253488559
0.000484862648123908,844.1978014339383
0.000503896262506515,872.0105344452046
0.0005236770544204653,900.7191083391549
0.0005442343548300266,930.3502484764127
0.0005655986461065005,960.9313310061606
0.0005878016072274912,992.490337725474
0.0006108761607505036,1025.055884133712
0.0006348565216305217,1058.6572069160588
0.0006597782479539537,1093.3240448162858
0.0006856782936641739,1129.0867633085463
0.0007125950633568407,1165.976243612306
0.0007405684692262436,1204.023879011118
0.0007696399902471156,1243.261652239683
0.0007998527336796708,1283.721992003633
0.000831251498989063,1325.437873974545
0.0008638828442740447,1368.4426539733654
0.000897795155303332,1412.7699624081154
0.0009330387172620361,1458.4538872891178
0.0009696657893145519,1505.528763007897
0.001007730682094461,1554.0292615650728
0.0010472898382363582,1603.9902074426557
0.0010884019160690055,1655.446271540261
0.0011311278765939214,1708.4322826654084
0.001175531073878369,1762.9827607571447
0.0012216773489967915,1819.1320044062243
0.0012696351276599736,1876.9141518361278
0.0013194755216767058,1936.3627584688602
0.0013712724343984,1997.5110757525151
0.0014251026703029975,2060.3914193919854
0.0014810460488806749,2125.035065149056
0.0015391855229902056,2191.4725309233277
0.001599607301861487,2259.7328767772183
0.0016624009789266115,2329.8440648108867
0.0017276596646690358,2401.8324880693517
0.0017954801246878305,2475.722588972687
0.0018659629231817451,2551.53719775843
0.001939212572065829,2629.2963871125608
0.0020153376859417325,2709.0178796944783
0.002094451143151469,2790.7168709531798
0.002176670253153458,2874.405330777367
0.002262116930469025,2960.09249117838
0.002350917875457286,3047.7837567896067
0.002443204762186487,3137.4807942856264
0.0025391144336803463,3229.1815640280975
0.002638789104828933,3322.879312383886
0.002742376573264949,3418.5631276769936
0.0028500304385181063,3516.216738221629
0.0029619103297725525,3615.8182438074405
0.0030781821425650787,3717.3405695224487
0.003199018284775064,3820.750125639584
0.0033245979322709396,3926.0074212246222
0.003455107294592217,4033.0657762903143
0.0035907398910610534,4141.870420628224
0.0037316968377327513,4252.35965453794
0.0038781871456107214,4364.463179822307
0.0040304280305680515,4478.102716702351
0.00418864523543527,4593.191194975669
0.004353073364731888,4709.631125128338
0.00452395623253805,4827.316202903685
0.004701547224022131,4946.12848682383
0.004886109671160325,5065.939097696519
0.005077917243205399,5186.609178961857
0.005277254352483535,5307.988269948798
0.005484416576121017,5429.915391417376
0.005699711094326071,5552.209834761691
0.005923457145875801,5674.670944987229
0.006155986501483508,5797.090885842248
0.006397643955748424,5919.271435914742
0.0066487878384172625,6041.010305207718
0.0069097905457156435,6162.0542966348
0.007181039092537346,6282.080870066537
0.007462935686310132,6400.753161491221
0.007755898323389004,6517.755616536455
0.00806036140886134,6632.777075125264
0.008376776400682916,6745.4955758574
0.008705612479099857,6855.577479076233
0.009047357242349292,6962.677892654882
0.00940251742967013,7066.407287112007
0.009771619672696168,7166.344257360804
0.010155211276345676,7262.052433439628
0.010553861030365234,7353.067562964557
0.010968160052731372,7438.915953499173
0.011398722666160517,7519.103690625073
0.011846187309026826,7593.119915793038
0.012311217482038896,7660.44872610859
0.012794502732078732,7720.548143368313
0.013296759674662111,7772.875183502708
0.013818733056536317,7816.870308949343
0.014361196859990781,7851.9511180194
0.014924955450518284,7877.5479097769885
0.015510844769528393,7893.074720081444
0.016119733573881575,7897.960043140998
0.01675252472408214,7891.647892958861
0.017410156523040152,7873.580964556221
0.018093604107387147,7843.248439479882
0.01880388089340914,7800.159695599355
0.019542040079740527,7743.8700438335145
0.02030917620904734,7674.003716977602
0.021106426791015535,7590.2354547962295
0.021934973989050584,7492.335157644987
0.02279604637318978,7380.170851360015
0.023690920741826323,7253.718237387044
0.02462092401494623,7113.085514052826
0.02558743520168586,6958.535125766063
0.02659188744512693,6790.470987823896
0.027635770147361564,6609.4899485232945
0.028720631177978267,6416.39238751815
0.029848079169243254,6212.122013853406
0.03101978590138095,5997.9044671355505
0.03223748878149028,5775.10494451096
0.0335029934197723,5545.286666639711
0.03481817630688963,5310.316838744974
0.03618498759642746,5072.049976895947
0.037605453996581675,4832.589778170404
0.03908168177536263,4594.065433646512
0.04061585988376978,4358.612839652879
0.04221026320156896,4128.784908366019
0.04386725591048496,3906.809123618751
0.0455892949998106,3694.440301951974
0.047378933909631396,3493.0095651905913
0.049238826317067365,3303.80899314074
0.05117173007114603,3129.141110499653
0.05318051128214196,2971.0555838321793
0.05526814857144601,2830.0364101159594
0.057437737488265785,2705.317233727738
0.0596924950997073,2595.9615203141693
0.0620357647610427,2500.763088061757
0.06447102107323864,2418.2702191466624
0.06700187503509585,2346.2677749151144
0.06963207939763882,2282.4899296434846
0.0723655342286965,2224.515120941638
0.07520629269592405,2168.918925747215
0.07815856707684081,2111.14797397018
0.08122673500479707,2046.8831755997708
0.08441534596012978,1972.4327633628545
0.0877291280161335,1885.2067652902856
0.09117299484984914,1784.5075982299124
0.09475205302806537,1671.5722815353304
0.09847160957933764,1549.3480507438674
0.1023371798632519,1422.0117791102025
0.10635449574860109,1294.7094568170305
0.11052951411260206,1172.9626161734955
0.1148684256737553,1062.4974644349886
0.1193776641714435,968.251078972481
0.1240639159058831,893.2514251579069
0.12893412965257148,838.0235369006623
0.13399552696593373,800.3336481185714
0.1392556128874462,775.6020112194685
0.14472218707411338,757.5775329487451
0.15040335536380234,739.1568969518764
0.15630754179458153,713.6597534289484
0.16244350109588662,676.4307613566414
0.16882033167003618,626.260864115689
0.17544748908334581,566.3029996126173
0.1823348000868439,503.8479945262612
0.189492477187382,447.71056252744444
0.19693113379074215,404.1774565369507
0.20466179993919872,375.0831115886933
0.21269593866686892,358.4436528788137
0.22104546299710207,348.687918522044
0.22972275360711503,337.68183244400063
0.23874067718606454,318.98240130112765
0.2481126055137766,291.4777241160971
0.25785243528842716,259.49774294946366
0.26797460873256895,230.3104487022603
0.27849413500806414,209.42985016685577
0.28942661247167484,197.3998059197594
0.3007882518043098,189.6789475009926
0.31259590004822796,180.08539863380867
0.324867065587837,165.45574723209455
0.3376199441111335,147.94620488444087
0.35087344559027084,132.81182254302465
0.36464722232127456,122.79928207894245
0.37896169806447155,116.17145987187833
0.3938380983288488,108.79252078863463
0.4092984818452433,99.05483191528546
0.4253657732750382,89.15130290544934
0.44206379720285277,81.73786030550924
0.45941731346364734,76.33373036914399
0.47745205385661277,70.64820376469562
0.4961947603002895,64.15180565076432
0.5156732244854959,58.38978523042766
0.5359163290848509,53.95895429016851
0.556954090580013,49.74059523269707
0.5788177037701272,45.29792436998427
0.6015395880274836,41.384224021756275
0.6251534353689703,38.07800252297896
0.6496942604146115,34.83265099947497
0.6751984523072497,31.772397292473094
0.7017038286703824,29.10928249761937
0.7292496916841444,26.63012622798018
0.7578768863625915,24.33793419875575
0.7876278611187046,22.22932726329285
0.8185467307069019,20.292882663327475
0.850679341636415,18.51734356387941
0.8840733401525058,16.89171861194004
0.9187782428863317,15.405141095030588
0.9548455102782278,14.04612730541088
0.9923286228832539,12.803755653649926
1.0312831606721837,11.668063441426666
1.0717668854455022,10.629958841529373
1.1138398264826193,9.681143623707385
1.1575643695533022,8.81414765983847
1.2030053494233226,8.022257040921305
1.2502301459914542,7.299279955203909
1.299308784200415,6.639498373141286
1.3503140378698726,6.037635922507476
1.4033215376054824,5.488823479153846
1.4584098829439835,4.988551798870566
1.5156607589006013,4.532668121363952
1.575159057091621,4.117360580722566
1.6369930016117014,3.7391316858318655
1.7012542798525885,3.3947737148960777
1.7680381784572046,3.0813472727673923
1.8374437246107238,2.7961603641792463
1.9095738328780953,2.5367461810922074
1.9845354578058014,2.3008450152685627
2.0624397525140905,2.086387755324667
2.143402233514853,1.8914805102738743
2.227542951999554,1.7143898950307526
2.314986671851158,1.5535306178685566
2.405863054644063,1.4074537602258061
2.5003068519063225,1.274835541674815
2.598458104929248,1.1544669554494962
2.7004623524206774,1.0452440180670497
2.806470846309834,0.9461588875722666
2.916640776023701,0.8562922075296093
3.031135501567576,0.774805660328299
3.150124795755327,0.7009350706174512
3.2737850959485697,0.6339840644080247
3.4022997656780634,0.5733182091157679
3.5358593665351745,0.5183597183296695
3.6746619407366854,0.46858258511698503
3.8189133047818515,0.4235080847100308
3.968827354637162,0.38270065238365275
4.1246263829013445,0.3457640740474536
4.286541408420921,0.31233800363752845
4.4548125188449825,0.28209488438812713
4.629689226627261,0.2547370564375555
4.811430839003257,0.22999409966116735
5.000306842491082,0.20762040256595768
5.196597302486189,0.1873929185733335
5.400593278542364,0.16910916152747602
5.612597255954967,0.15258537637167263
5.8329235942862,0.1376548469086867
6.06189899349756,0.12416635182403607
6.29986297838068,0.1119827515600871
6.547168402004727,0.10097969895274178
6.804181968927091,0.09104448561183347
7.071284778942991,0.08207497766714894
7.348872892180382,0.07397864382882918
7.637357916378006,0.06667166919739648
7.937167617217536,0.06007813194127877
8.248746552614573,0.054129284359789594
8.572556731909314,0.04876290426463768
8.909078300934132,0.04392268656531679
9.258810253973934,0.03955769002915882
9.622271173675122,0.035621847383855404
9.999999999999984,0.03207352950925862
