k [1/Mpc],P(k) [Mpc^3]
0.0001,255.5513673757523
0.00010392556829367125,265.58058793142897
0.00010800523745162529,276.0031985162026
0.00011224505680853065,286.8345928491867
0.00011665131316981963,298.0907683106009
0.00012123054013376525,309.78835716767753
0.00012598952777950273,321.9446425572158
0.00013093533273536104,334.5775698604678
0.00013607528864243335,347.7057723433556
0.00014141701702890234,361.34860786495426
0.00014696843861124463,375.5261883641408
0.00015273778503907136,390.2594080978927
0.00015873361110102093,405.56997537445216
0.00016496480740980205,421.48044474239856
0.0001714406135851971,438.0142417980641
0.00017817063195457305,455.195663612485
0.00018516484179121546,473.04993065940056
0.000192433614111598,491.6032542511831
0.00019998772705352857,510.8828926707068
0.0002078383818579757,530.9171585795917
0.00021599721947827182,551.7354048426744
0.0002244763378413224,573.3680803109369
0.0002332883097864157,595.8467973223633
0.00024244620170823283,619.204369899263
0.0002519635929317015,643.4748653729587
0.0002618545958474233,668.6936590747548
0.0002721338768375308,694.897483109401
0.0002828166780230032,722.1244507297112
0.0002939188398646886,750.4140379713716
0.0003054568246515432,779.8071894625889
0.00031744774091091926,810.3463980846115
0.00032990936877709396,842.0757634484622
0.00034286018635565856,875.0410286837799
0.00035631939712285854,909.2895539157646
0.000370306958400514,944.8704232527214
0.00038484361094874304,981.8345351032676
0.0003999509097203664,1020.2346612612512
0.00041565125582259895,1060.1255039478074
0.00043196792973341727,1101.5636149549705
0.0004489251258218605,1144.607509047097
0.0004665479882234472,1189.317816049386
0.000484862648123908,1235.7573580387557
0.000503896262506515,1283.991206160386
0.0005236770544204653,1334.0865910816256
0.0005442343548300266,1386.1129805080097
0.0005655986461065005,1440.142242865032
0.0005878016072274912,1496.2486301592446
0.0006108761607505036,1554.508926059141
0.0006348565216305217,1615.00246359108
0.0006597782479539537,1677.8111718688735
0.0006856782936641739,1743.0196757773454
0.0007125950633568407,1810.7150411039474
0.0007405684692262436,1880.9870378677977
0.0007696399902471156,1953.9283253751912
0.0007998527336796708,2029.6345114666585
0.000831251498989063,2108.2042058337065
0.0008638828442740447,2189.7387090764905
0.000897795155303332,2274.3422087782264
0.0009330387172620361,2362.1218875109093
0.0009696657893145519,2453.1877099607127
0.001007730682094461,2547.652753726188
0.0010472898382363582,2645.633009376953
0.0010884019160690055,2747.24744519833
0.0011311278765939214,2852.6180361727156
0.001175531073878369,2961.8690848402784
0.0012216773489967915,3075.1278070163467
0.0012696351276599736,3192.524135047125
0.0013194755216767058,3314.190593861387
0.0013712724343984,3440.2624653300904
0.0014251026703029975,3570.876638199469
0.0014810460488806749,3706.172237385349
0.0015391855229902056,3846.2905122589627
0.001599607301861487,3991.3743573401316
0.0016624009789266115,4141.568720021116
0.0017276596646690358,4297.019281093002
0.0017954801246878305,4457.872780503624
0.0018659629231817451,4624.276773416397
0.001939212572065829,4796.3782280133455
0.0020153376859417325,4974.324577729199
0.002094451143151469,5158.262500345544
0.002176670253153458,5348.337755091372
0.002262116930469025,5544.695050182645
0.002350917875457286,5747.475692311206
0.002443204762186487,5956.818861471554
0.0025391144336803463,6172.860509199897
0.002638789104828933,6395.7325767914745
0.002742376573264949,6625.563132157903
0.0028500304385181063,6862.473131448388
0.0029619103297725525,7106.577537872789
0.0030781821425650787,7357.984536274843
0.003199018284775064,7616.79395651886
0.0033245979322709396,7883.097768414771
0.003455107294592217,8156.976481355094
0.0035907398910610534,8438.499542565596
0.0037316968377327513,8727.724614802402
0.0038781871456107214,9024.694514827572
0.0040304280305680515,9329.438581810362
0.00418864523543527,9641.968253546665
0.004353073364731888,9962.276569419446
0.00452395623253805,10290.338099744697
0.004701547224022131,10626.103058765179
0.004886109671160325,10969.5003034712
0.005077917243205399,11320.433014988499
0.005277254352483535,11678.7765610842
0.005484416576121017,12044.380423747201
0.005699711094326071,12417.061766790417
0.005923457145875801,12796.607678382665
0.006155986501483508,13182.763505247418
0.006397643955748424,13575.222842574074
0.0066487878384172625,13973.64628014697
0.0069097905457156435,14377.690451161785
0.007181039092537346,14786.994726837744
0.007462935686310132,15201.110497777847
0.007755898323389004,15619.420706651086
0.00806036140886134,16041.241100653971
0.008376776400682916,16465.8937520504
0.008705612479099857,16892.69667648184
0.009047357242349292,17320.92049122614
0.00940251742967013,17749.77923012323
0.009771619672696168,18178.436390674062
0.010155211276345676,18605.950483707555
0.010553861030365234,19031.267276791303
0.010968160052731372,19453.267981402987
0.011398722666160517,19870.73981115071
0.011846187309026826,20282.40277037838
0.012311217482038896,20686.90030298106
0.012794502732078732,21082.788060691782
0.013296759674662111,21468.564163815427
0.013818733056536317,21842.624194364318
0.014361196859990781,22203.29498226584
0.014924955450518284,22548.837072372546
0.015510844769528393,22877.411874061636
0.016119733573881575,23187.145275497343
0.01675252472408214,23476.078458977692
0.017410156523040152,23742.199671689865
0.018093604107387147,23983.48721423812
0.01880388089340914,24197.87654787811
0.019542040079740527,24383.32976398678
0.02030917620904734,24537.823973146234
0.021106426791015535,24659.370093880887
0.021934973989050584,24746.074725098573
0.02279604637318978,24796.148815005832
0.023690920741826323,24807.944942371898
0.02462092401494623,24780.02236396081
0.02558743520168586,24711.185581596354
0.02659188744512693,24600.480050134473
0.027635770147361564,24447.364137058594
0.028720631177978267,24251.623355666274
0.029848079169243254,24013.46841543083
0.03101978590138095,23733.723249190494
0.03223748878149028,23413.538826035034
0.0335029934197723,23054.855863581295
0.03481817630688963,22660.16605461078
0.03618498759642746,22232.36230353737
0.037605453996581675,21775.241417654506
0.03908168177536263,21292.78145811459
0.04061585988376978,20789.897816077388
0.04221026320156896,20272.255592619014
0.04386725591048496,19745.232225890013
0.0455892949998106,19213.943442393705
0.047378933909631396,18683.146202436714
0.049238826317067365,18158.404800390905
0.05117173007114603,17646.407566438487
0.05318051128214196,17153.12393325311
0.05526814857144601,16683.12149353443
0.057437737488265785,16240.084218146623
0.0596924950997073,15825.255971404235
0.0620357647610427,15436.618914732211
0.06447102107323864,15071.3384241651
0.06700187503509585,14724.52826566814
0.06963207939763882,14390.793345159402
0.0723655342286965,14063.303157811644
0.07520629269592405,13734.769731818436
0.07815856707684081,13396.719630119433
0.08122673500479707,13039.917512820342
0.08441534596012978,12654.142962264312
0.0877291280161335,12232.585909996094
0.09117299484984914,11771.748479748005
0.09475205302806537,11270.578810670788
0.09847160957933764,10733.775350228887
0.1023371798632519,10172.310731210973
0.10635449574860109,9602.347064363712
0.11052951411260206,9042.10181671764
0.1148684256737553,8510.095636960523
0.1193776641714435,8022.999282619068
0.1240639159058831,7594.1752498006335
0.12893412965257148,7229.95048908675
0.13399552696593373,6927.46554337752
0.1392556128874462,6673.256040097896
0.14472218707411338,6445.724080514004
0.15040335536380234,6220.523087186545
0.15630754179458153,5975.580991376318
0.16244350109588662,5695.701287783196
0.16882033167003618,5376.738816242707
0.17544748908334581,5027.900809002433
0.1823348000868439,4669.886966693488
0.189492477187382,4329.664418897356
0.19693113379074215,4033.2041466628934
0.20466179993919872,3794.9083308765557
0.21269593866686892,3608.697526125631
0.22104546299710207,3451.7808553098607
0.22972275360711503,3297.467184480553
0.23874067718606454,3123.3393587378487
0.2481126055137766,2920.45006958123
0.25785243528842716,2702.410532805445
0.26797460873256895,2495.5277288582865
0.27849413500806414,2320.8835937104013
0.28942661247167484,2183.252437675479
0.3007882518043098,2067.9873935436835
0.31259590004822796,1952.9054772445163
0.324867065587837,1823.8857025489983
0.3376199441111335,1686.5535226946786
0.35087344559027084,1559.1300563561158
0.36464722232127456,1453.0315799480618
0.37896169806447155,1363.8098044513058
0.3938380983288488,1277.387061143743
0.4092984818452433,1186.1210217416333
0.4253657732750382,1096.2203674143357
0.44206379720285277,1017.2103856733929
0.45941731346364734,948.4988775851467
0.47745205385661277,882.8778610125241
0.4961947603002895,817.2116593259494
0.5156732244854959,756.056166182325
0.5359163290848509,701.6284865928856
0.556954090580013,650.9429443195114
0.5788177037701272,602.0018175298269
0.6015395880274836,556.6023395270931
0.6251534353689703,515.2764931322291
0.6496942604146115,476.38759682803135
0.6751984523072497,439.91260661977634
0.7017038286703824,406.399854978508
0.7292496916841444,375.2063618285927
0.7578768863625915,346.1143031131932
0.7876278611187046,319.25654328606913
0.8185467307069019,294.35641068961326
0.850679341636415,271.260834562389
0.8840733401525058,249.85864032508044
0.9187782428863317,230.04308757912048
0.9548455102782278,211.71196039742583
0.9923286228832539,194.76737728240474
1.0312831606721837,179.11310014021285
1.0717668854455022,164.65673995133307
1.1138398264826193,151.3119845493958
1.1575643695533022,138.99827845747132
1.2030053494233226,127.64047768027018
1.2502301459914542,117.16860100274533
1.299308784200415,107.5178393989177
1.3503140378698726,98.62784264608996
1.4033215376054824,90.44228396574475
1.4584098829439835,82.90863265063882
1.5156607589006013,75.97793567409093
1.575159057091621,69.60457308223172
1.6369930016117014,63.74600574874727
1.7012542798525885,58.36269570710769
1.7680381784572046,53.4179373470932
1.8374437246107238,48.87767442113441
1.9095738328780953,44.71032689985474
1.9845354578058014,40.8866230146896
2.0624397525140905,37.37944410956203
2.143402233514853,34.16368753727531
2.227542951999554,31.21612969438522
2.314986671851158,28.51529643819919
2.405863054644063,26.041340993943088
2.5003068519063225,23.775923161640403
2.598458104929248,21.702105611988987
2.7004623524206774,19.80426099821668
2.806470846309834,18.067977411748974
2.916640776023701,16.479969758022104
3.031135501567576,15.027996406333903
3.150124795755327,13.700777776773043
3.2737850959485697,12.487928719511642
3.4022997656780634,11.379894348606074
3.5358593665351745,10.367887113263846
3.6746619407366854,9.443828278029388
3.8189133047818515,8.600293250359682
3.968827354637162,7.830460232844481
4.1246263829013445,7.128064796883836
4.286541408420921,6.487356794912941
4.4548125188449825,5.903059982112239
4.629689226627261,5.370334623397078
4.811430839003257,4.884742198314424
5.000306842491082,4.4422128019612686
5.196597302486189,4.039017366228094
5.400593278542364,3.671740417728724
5.612597255954967,3.3372546533943157
5.8329235942862,3.032697480224543
6.06189899349756,2.7554492750811472
6.29986297838068,2.5031134574065357
6.547168402004727,2.2734982799692833
6.804181968927091,2.064599895099171
7.071284778942991,1.874586753505836
7.348872892180382,1.7017851874586527
7.637357916378006,1.544665480252769
7.937167617217536,1.4018302602161061
8.248746552614573,1.2720040193571087
8.572556731909314,1.1540227669864045
8.909078300934132,1.0468245195774954
9.258810253973934,0.9494407600115772
9.622271173675122,0.8609893412124388
9.999999999999984,0.7806660324071767
