k [1/Mpc],P(k) [Mpc^3]
0.0001,205.44701739012226
0.00010392556829367125,214.74353446638185
0.00010800523745162529,224.46028264568062
0.00011224505680853065,234.61618961071713
0.00011665131316981963,245.23103609464667
0.00012123054013376525,256.3255068920822
0.00012598952777950273,267.92121757952685
0.00013093533273536104,280.04072768925477
0.00013607528864243335,292.707579826445
0.00014141701702890234,305.9463668193031
0.00014696843861124463,319.78278801024175
0.00015273778503907136,334.2436913232849
0.00015873361110102093,349.3571037123965
0.00016496480740980205,365.152272585775
0.0001714406135851971,381.65973927074555
0.00017817063195457305,398.9113955573956
0.00018516484179121546,416.9405430960739
0.000192433614111598,435.7819432573861
0.00019998772705352857,455.4718639572348
0.0002078383818579757,476.0481607810325
0.00021599721947827182,497.5503007657826
0.0002244763378413224,520.0194386698488
0.0002332883097864157,543.4985278393799
0.00024244620170823283,568.0324180779999
0.0002519635929317015,593.6679131809179
0.0002618545958474233,620.4537516794179
0.0002721338768375308,648.4406665741928
0.0002828166780230032,677.6815590778008
0.0002939188398646886,708.2316066769915
0.0003054568246515432,740.148344957693
0.00031744774091091926,773.4916760152104
0.00032990936877709396,808.3239012180354
0.00034286018635565856,844.7099101168217
0.00035631939712285854,882.7172051921701
0.000370306958400514,922.4160353475598
0.00038484361094874304,963.8795101773309
0.0003999509097203664,1007.1836533887968
0.00041565125582259895,1052.4075607280397
0.00043196792973341727,1099.633355916105
0.0004489251258218605,1148.9463122689597
0.0004665479882234472,1200.4350354249955
0.000484862648123908,1254.191438001879
0.000503896262506515,1310.3109627029537
0.0005236770544204653,1368.8925886608158
0.0005442343548300266,1430.0388955522894
0.0005655986461065005,1493.8562789311611
0.0005878016072274912,1560.4548309738104
0.0006108761607505036,1629.94858566572
0.0006348565216305217,1702.4555796338607
0.0006597782479539537,1778.0978259024887
0.0006856782936641739,1857.001572047116
0.0007125950633568407,1939.2970024562787
0.0007405684692262436,2025.1184580112708
0.0007696399902471156,2114.604605818003
0.0007998527336796708,2207.8982407986227
0.000831251498989063,2305.146617521058
0.0008638828442740447,2406.5010452855918
0.000897795155303332,2512.1169287008192
0.0009330387172620361,2622.1540356150736
0.0009696657893145519,2736.7759010330824
0.001007730682094461,2856.1502843330727
0.0010472898382363582,2980.4484489251936
0.0010884019160690055,3109.8447037860246
0.0011311278765939214,3244.517176620806
0.001175531073878369,3384.647018920814
0.0012216773489967915,3530.418685313945
0.0012696351276599736,3682.019198333853
0.0013194755216767058,3839.636917297016
0.0013712724343984,4003.4626112393835
0.0014251026703029975,4173.688342756091
0.0014810460488806749,4350.507429476045
0.0015391855229902056,4534.11399899873
0.001599607301861487,4724.700958828366
0.0016624009789266115,4922.46103500013
0.0017276596646690358,5127.584823447502
0.0017954801246878305,5340.260040120659
0.0018659629231817451,5560.6720685549235
0.001939212572065829,5789.001743787317
0.0020153376859417325,6025.425731531776
0.002094451143151469,6270.11435356197
0.002176670253153458,6523.229592086919
0.002262116930469025,6784.926235987353
0.002350917875457286,7055.349640610199
0.002443204762186487,7334.635372679284
0.0025391144336803463,7622.90738185699
0.002638789104828933,7920.274937557525
0.002742376573264949,8226.833617222626
0.0028500304385181063,8542.662446655777
0.0029619103297725525,8867.822924081913
0.0030781821425650787,9202.35820929803
0.003199018284775064,9546.28984831364
0.0033245979322709396,9899.617879931488
0.003455107294592217,10262.316199849645
0.0035907398910610534,10634.330299240579
0.0037316968377327513,11015.578172089929
0.0038781871456107214,11405.944996037213
0.0040304280305680515,11805.28399242865
0.00418864523543527,12213.411763333748
0.004353073364731888,12630.103446224868
0.00452395623253805,13055.096652031998
0.004701547224022131,13488.089034357741
0.004886109671160325,13928.737397033801
0.005077917243205399,14376.642645431031
0.005277254352483535,14831.326062008757
0.005484416576121017,15292.258366880284
0.005699711094326071,15758.929379749497
0.005923457145875801,16230.840245299794
0.006155986501483508,16707.387396647297
0.006397643955748424,17187.662876804294
0.0066487878384172625,17670.626402124057
0.0069097905457156435,18155.272310253426
0.007181039092537346,18640.661637322868
0.007462935686310132,19125.811814301564
0.007755898323389004,19609.70562609306
0.00806036140886134,20091.282874968678
0.008376776400682916,20569.357069720118
0.008705612479099857,21042.550250820535
0.009047357242349292,21509.406141686908
0.00940251742967013,21968.370469563524
0.009771619672696168,22417.80994737746
0.010155211276345676,22856.028819529914
0.010553861030365234,23281.257934353573
0.010968160052731372,23691.680267366923
0.011398722666160517,24085.3883874911
0.011846187309026826,24460.399261250677
0.012311217482038896,24814.68717907971
0.012794502732078732,25146.12027456214
0.013296759674662111,25452.541933341945
0.013818733056536317,25731.74993515176
0.014361196859990781,25981.494186519947
0.014924955450518284,26199.557540880793
0.015510844769528393,26383.721189455966
0.016119733573881575,26531.826481546643
0.01675252472408214,26641.78747277285
0.017410156523040152,26711.57941103251
0.018093604107387147,26739.330106284295
0.01880388089340914,26723.35432834287
0.019542040079740527,26662.17986442683
0.02030917620904734,26554.603795108906
0.021106426791015535,26399.774842989056
0.021934973989050584,26197.148222549728
0.02279604637318978,25946.676378394834
0.023690920741826323,25648.79781986614
0.02462092401494623,25304.37293915069
0.02558743520168586,24915.07864994606
0.02659188744512693,24483.005191485165
0.027635770147361564,24010.971461115798
0.028720631177978267,23502.641910036087
0.029848079169243254,22961.95080471388
0.03101978590138095,22393.94314610509
0.03223748878149028,21804.00586043981
0.0335029934197723,21197.889243471032
0.03481817630688963,20582.22424447676
0.03618498759642746,19963.346574524006
0.037605453996581675,19348.103083084534
0.03908168177536263,18743.33980209426
0.04061585988376978,18155.17140318433
0.04221026320156896,17589.127457551665
0.04386725591048496,17050.039399335346
0.0455892949998106,16541.97064540011
0.047378933909631396,16068.319465520826
0.049238826317067365,15631.248354401652
0.05117173007114603,15228.684403823623
0.05318051128214196,14857.377771562886
0.05526814857144601,14510.804235640078
0.057437737488265785,14178.918803074086
0.0596924950997073,13852.362323539524
0.0620357647610427,13522.694034915734
0.06447102107323864,13181.277473581944
0.06700187503509585,12817.480729713612
0.06963207939763882,12421.098333437674
0.0723655342286965,11982.687374996416
0.07520629269592405,11497.399748459788
0.07815856707684081,10966.504094624532
0.08122673500479707,10399.886964474212
0.08441534596012978,9812.690717162757
0.0877291280161335,9222.897007213633
0.09117299484984914,8650.047282472347
0.09475205302806537,8113.303295791175
0.09847160957933764,7629.828364690469
0.1023371798632519,7213.2883811482525
0.10635449574860109,6868.371771765983
0.11052951411260206,6589.866563683745
0.1148684256737553,6360.170832352923
0.1193776641714435,6154.382089831646
0.1240639159058831,5945.089551400836
0.12893412965257148,5708.022708307937
0.13399552696593373,5429.026324732467
0.1392556128874462,5109.604987622602
0.14472218707411338,4764.299589331752
0.15040335536380234,4414.137066610184
0.15630754179458153,4085.1997877209956
0.16244350109588662,3804.6693765330324
0.16882033167003618,3584.7462959709087
0.17544748908334581,3412.82707764389
0.1823348000868439,3265.0992120138753
0.189492477187382,3118.3953178100046
0.19693113379074215,2950.2231604266763
0.20466179993919872,2755.07430382141
0.21269593866686892,2551.443256973436
0.22104546299710207,2360.9729449427136
0.22972275360711503,2199.7194684684378
0.23874067718606454,2070.3467699946095
0.2481126055137766,1958.5874303241285
0.25785243528842716,1846.8064707634505
0.26797460873256895,1724.5246828466002
0.27849413500806414,1599.431366885931
0.28942661247167484,1483.7885243439175
0.3007882518043098,1384.9272988282087
0.31259590004822796,1298.4192191370935
0.324867065587837,1214.7484480898224
0.3376199441111335,1129.8634500865387
0.35087344559027084,1048.3296186158582
0.36464722232127456,974.9796335155137
0.37896169806447155,908.9194799871576
0.3938380983288488,846.097334911946
0.4092984818452433,785.3245060826674
0.4253657732750382,728.7874363365945
0.44206379720285277,677.0785504578863
0.45941731346364734,628.6699248170816
0.47745205385661277,582.889225119431
0.4961947603002895,540.3486219912792
0.5156732244854959,500.9481112717637
0.5359163290848509,464.09904020288633
0.556954090580013,429.72240261653434
0.5788177037701272,397.815602787427
0.6015395880274836,368.107754194934
0.6251534353689703,340.46578993525804
0.6496942604146115,314.79190175517925
0.6751984523072497,290.9415916810153
0.7017038286703824,268.79071152659264
0.7292496916841444,248.24389163397183
0.7578768863625915,229.18925050628664
0.7876278611187046,211.52515161458126
0.8185467307069019,195.15643555742108
0.850679341636415,179.99391605514626
0.8840733401525058,165.95404981475755
0.9187782428863317,152.95875998506062
0.9548455102782278,140.93547802181004
0.9923286228832539,129.81629694592215
1.0312831606721837,119.53757213454314
1.0717668854455022,110.0397008876248
1.1138398264826193,101.26690201900276
1.1575643695533022,93.16683855499713
1.2030053494233226,85.69046891169708
1.2502301459914542,78.79208078486907
1.299308784200415,72.42909747423342
1.3503140378698726,66.56188227218142
1.4033215376054824,61.153566324410804
1.4584098829439835,56.16991777990026
1.5156607589006013,51.57911375422317
1.575159057091621,47.351564812833395
1.6369930016117014,43.45977280740359
1.7012542798525885,39.87819568981102
1.7680381784572046,36.5830930074061
1.8374437246107238,33.5524078738242
1.9095738328780953,30.765697019587122
1.9845354578058014,28.204023266977273
2.0624397525140905,25.849851553750472
2.143402233514853,23.686952304190655
2.227542951999554,21.70031390228405
2.314986671851158,19.876052670877684
2.405863054644063,18.20133101744222
2.5003068519063225,16.664283187207793
2.598458104929248,15.25394581386254
2.7004623524206774,13.960189966307349
2.806470846309834,12.77365998432423
2.916640776023701,11.685722865797647
3.031135501567576,10.688415616333344
3.150124795755327,9.774395663715746
3.2737850959485697,8.936894526294402
3.4022997656780634,8.169673727282385
3.5358593665351745,7.466986149940526
3.6746619407366854,6.823539701122654
3.8189133047818515,6.234462737602025
3.968827354637162,5.6952719737209705
4.1246263829013445,5.201842249182137
4.286541408420921,4.750378679555818
4.4548125188449825,4.3373921396411745
4.629689226627261,3.9596756074649178
4.811430839003257,3.6142821346738234
5.000306842491082,3.2985044128937213
5.196597302486189,3.009855502321184
5.400593278542364,2.746051783414089
5.612597255954967,2.5049971625049903
5.8329235942862,2.2847681361370844
6.06189899349756,2.083599996641443
6.29986297838068,1.8998740408485428
6.547168402004727,1.732105765065475
6.804181968927091,1.578934192425491
7.071284778942991,1.439111893614055
7.348872892180382,1.3114957630101447
7.637357916378006,1.195038486065567
7.937167617217536,1.0887803236576625
8.248746552614573,0.9918421972160939
8.572556731909314,0.9034194050295427
8.909078300934132,0.8227754704755925
9.258810253973934,0.7492364789593794
9.622271173675122,0.6821861450584882
9.999999999999984,0.6210614438658301
