k [1/Mpc],P(k) [Mpc^3]
0.0001,340.2210313216626
0.00010392556829367125,354.59058835779985
0.00010800523745162529,369.5663569254442
0.00011224505680853065,385.17380201375215
0.00011665131316981963,401.43945181016267
0.00012123054013376525,418.39095526082446
0.00012598952777950273,436.0571203836567
0.00013093533273536104,454.4679468363391
0.00013607528864243335,473.65466598382227
0.00014141701702890234,493.64980407066975
0.00014696843861124463,514.4872180880269
0.00015273778503907136,536.2021564575717
0.00015873361110102093,558.831319238679
0.00016496480740980205,582.4129041154649
0.0001714406135851971,606.9866793558956
0.00017817063195457305,632.5940251921147
0.00018516484179121546,659.2779979040903
0.000192433614111598,687.0834158687925
0.00019998772705352857,716.0569259998576
0.0002078383818579757,746.2470788236085
0.00021599721947827182,777.7043477219273
0.0002244763378413224,810.481172657972
0.0002332883097864157,844.63210160553
0.00024244620170823283,880.2138568247792
0.0002519635929317015,917.2854282626356
0.0002618545958474233,955.9081134309765
0.0002721338768375308,996.1455259568119
0.0002828166780230032,1038.0637771194658
0.0002939188398646886,1081.7315578191158
0.0003054568246515432,1127.220237775611
0.00031744774091091926,1174.6039279187837
0.00032990936877709396,1223.959425877668
0.00034286018635565856,1275.3664401735346
0.00035631939712285854,1328.9076540724589
0.000370306958400514,1384.6688043233296
0.00038484361094874304,1442.7388205511595
0.0003999509097203664,1503.2096973957384
0.00041565125582259895,1566.1767316984685
0.00043196792973341727,1631.7386489330418
0.0004489251258218605,1699.9976386453889
0.0004665479882234472,1771.059535227571
0.000484862648123908,1845.0336147760656
0.000503896262506515,1922.032785116547
0.0005236770544204653,2002.1737866545209
0.0005442343548300266,2085.577107462775
0.0005655986461065005,2172.3672525134975
0.0005878016072274912,2262.672592798707
0.0006108761607505036,2356.625425931055
0.0006348565216305217,2454.3621960185637
0.0006597782479539537,2556.023102973916
0.0006856782936641739,2661.75249955494
0.0007125950633568407,2771.698860655965
0.0007405684692262436,2886.014672163698
0.0007696399902471156,3004.8567112037426
0.0007998527336796708,3128.385386030066
0.000831251498989063,3256.76505716883
0.0008638828442740447,3390.1640235111213
0.000897795155303332,3528.7539100267772
0.0009330387172620361,3672.7102806970647
0.0009696657893145519,3822.2118262677654
0.001007730682094461,3977.4403670383554
0.0010472898382363582,4138.580913635639
0.0010884019160690055,4305.819962430636
0.0011311278765939214,4479.346588309768
0.001175531073878369,4659.351680802462
0.0012216773489967915,4846.027319330879
0.0012696351276599736,5039.567256617948
0.0013194755216767058,5240.164552885062
0.0013712724343984,5448.012362456348
0.0014251026703029975,5663.303612831618
0.0014810460488806749,5886.229642934857
0.0015391855229902056,6116.9807538106
0.001599607301861487,6355.7427853281715
0.0016624009789266115,6602.697219229541
0.0017276596646690358,6858.021706775693
0.0017954801246878305,7121.887689318531
0.0018659629231817451,7394.461135974395
0.001939212572065829,7675.899426793452
0.0020153376859417325,7966.350002863591
0.002094451143151469,8265.951422966558
0.002176670253153458,8574.830388468692
0.002262116930469025,8893.102034352802
0.002350917875457286,9220.86731702758
0.002443204762186487,9558.210118580562
0.0025391144336803463,9905.198552778535
0.002638789104828933,10261.880491533875
0.002742376573264949,10628.283519921262
0.0028500304385181063,11004.413705313711
0.0029619103297725525,11390.251253779434
0.0030781821425650787,11785.7519432039
0.003199018284775064,12190.84127051215
0.0033245979322709396,12605.41303223021
0.003455107294592217,13029.330652657118
0.0035907398910610534,13462.422456613904
0.0037316968377327513,13904.482496550465
0.0038781871456107214,14355.26249282672
0.0040304280305680515,14814.46678489274
0.00418864523543527,15281.759306655951
0.004353073364731888,15756.763248381621
0.00452395623253805,16239.059370045217
0.004701547224022131,16728.15960192263
0.004886109671160325,17223.47491254857
0.005077917243205399,17724.36313179344
0.005277254352483535,18230.23714237195
0.005484416576121017,18740.543824121134
0.005699711094326071,19254.58656974141
0.005923457145875801,19771.24435548458
0.006155986501483508,20289.23742048044
0.006397643955748424,20807.438799894786
0.0066487878384172625,21324.924483029947
0.0069097905457156435,21840.682541561964
0.007181039092537346,22353.307090700084
0.007462935686310132,22861.195359534362
0.007755898323389004,23362.79260647598
0.00806036140886134,23856.70092737827
0.008376776400682916,24341.473588901474
0.008705612479099857,24815.346060494387
0.009047357242349292,25276.339284999176
0.00940251742967013,25722.392850564924
0.009771619672696168,26151.336179823822
0.010155211276345676,26560.940334095096
0.010553861030365234,26948.843020128057
0.010968160052731372,27312.567205826486
0.011398722666160517,27649.5905399211
0.011846187309026826,27957.254367658257
0.012311217482038896,28232.877083449213
0.012794502732078732,28473.66695029778
0.013296759674662111,28676.681878128435
0.013818733056536317,28839.0209915789
0.014361196859990781,28957.665354573426
0.014924955450518284,29029.63847930286
0.015510844769528393,29052.0340032814
0.016119733573881575,29021.910925948578
0.01675252472408214,28936.559220753843
0.017410156523040152,28793.34167791985
0.018093604107387147,28589.82406020186
0.01880388089340914,28323.94484600257
0.019542040079740527,27993.868666477374
0.02030917620904734,27598.278752658953
0.021106426791015535,27136.364722585353
0.021934973989050584,26607.864442211096
0.02279604637318978,26013.270230914794
0.023690920741826323,25353.861787854326
0.02462092401494623,24631.74088148272
0.02558743520168586,23850.013643921855
0.02659188744512693,23012.884831519892
0.027635770147361564,22125.38745924263
0.028720631177978267,21193.991337691074
0.029848079169243254,20226.053140601507
0.03101978590138095,19229.751763922257
0.03223748878149028,18214.872081409405
0.0335029934197723,17191.10098689371
0.03481817630688963,16169.393569007327
0.03618498759642746,15161.188771956986
0.037605453996581675,14176.963670501586
0.03908168177536263,13228.54520481434
0.04061585988376978,12326.009321696687
0.04221026320156896,11478.74787619486
0.04386725591048496,10696.056317853416
0.0455892949998106,9984.43174271936
0.047378933909631396,9349.262260707193
0.049238826317067365,8794.366082506158
0.05117173007114603,8321.944670888923
0.05318051128214196,7933.400187275395
0.05526814857144601,7627.510994431516
0.057437737488265785,7394.851167887987
0.0596924950997073,7225.766505014103
0.0620357647610427,7110.742478527873
0.06447102107323864,7039.691317748179
0.06700187503509585,6997.514412804525
0.06963207939763882,6966.067146311399
0.0723655342286965,6922.621193740109
0.07520629269592405,6842.538435278542
0.07815856707684081,6701.825486308845
0.08122673500479707,6482.848987481284
0.08441534596012978,6176.2887939385455
0.0877291280161335,5783.586392728428
0.09117299484984914,5318.806584683574
0.09475205302806537,4805.242472837731
0.09847160957933764,4274.586427820989
0.1023371798632519,3761.788167610073
0.10635449574860109,3302.289009830811
0.11052951411260206,2923.891941915374
0.1148684256737553,2642.7767862550213
0.1193776641714435,2462.468579416722
0.1240639159058831,2374.27313968534
0.12893412965257148,2359.07818078463
0.13399552696593373,2388.0574901798846
0.1392556128874462,2423.919620617142
0.14472218707411338,2425.353565754118
0.15040335536380234,2355.6100790924165
0.15630754179458153,2196.3694814024084
0.16244350109588662,1961.663138702325
0.16882033167003618,1695.646033485006
0.17544748908334581,1450.117989275613
0.1823348000868439,1263.6000125838434
0.189492477187382,1155.1328112760198
0.19693113379074215,1120.925347216559
0.20466179993919872,1132.6317781862283
0.21269593866686892,1146.6747831493008
0.22104546299710207,1120.1608663663087
0.22972275360711503,1032.0591837833717
0.23874067718606454,900.9740748103699
0.2481126055137766,771.228969320407
0.25785243528842716,682.2663765697008
0.26797460873256895,645.2565208758656
0.27849413500806414,640.5728739365476
0.28942661247167484,632.3374999068524
0.3007882518043098,591.2532815785897
0.31259590004822796,522.1684150120461
0.324867065587837,456.15929158995834
0.3376199441111335,417.702116612995
0.35087344559027084,403.35982006119076
0.36464722232127456,389.1993963909002
0.37896169806447155,357.8277403699288
0.3938380983288488,317.6277391836774
0.4092984818452433,288.128298611914
0.4253657732750382,272.6697790407067
0.44206379720285277,257.6824953416656
0.45941731346364734,234.765125970087
0.47745205385661277,211.97352893325484
0.4961947603002895,196.85403472357615
0.5156732244854959,184.2478675427197
0.5359163290848509,168.56642071081518
0.556954090580013,153.73998195931756
0.5788177037701272,142.58466484599504
0.6015395880274836,131.65651856734416
0.6251534353689703,120.34996208000972
0.6496942604146115,110.80974487719257
0.6751984523072497,102.27236104972746
0.7017038286703824,94.1815822289278
0.7292496916841444,86.54723330917177
0.7578768863625915,79.41013884144472
0.7876278611187046,72.79311982580676
0.8185467307069019,66.70407634398877
0.850679341636415,61.13714783682468
0.8840733401525058,56.054790981818975
0.9187782428863317,51.40536093035202
0.9548455102782278,47.14358207918559
0.9923286228832539,43.23003743956188
1.0312831606721837,39.63034849622558
1.0717668854455022,36.315600088486065
1.1138398264826193,33.26479270724952
1.1575643695533022,30.459467624659656
1.2030053494233226,27.882089306788927
1.2502301459914542,25.51605126839214
1.299308784200415,23.3456664883179
1.3503140378698726,21.355765097191078
1.4033215376054824,19.531613429305523
1.4584098829439835,17.85961440573696
1.5156607589006013,16.32728055921911
1.575159057091621,14.923142931747332
1.6369930016117014,13.636676224288415
1.7012542798525885,12.458305125826291
1.7680381784572046,11.37926438380696
1.8374437246107238,10.391466166240424
1.9095738328780953,9.487450184624526
1.9845354578058014,8.660338253359459
2.0624397525140905,7.903786984728461
2.143402233514853,7.2119372729285525
2.227542951999554,6.579396423067978
2.314986671851158,6.0012072672931716
2.405863054644063,5.472814342727282
2.5003068519063225,4.9900325739446565
2.598458104929248,4.54901857896416
2.7004623524206774,4.1462438330129485
2.806470846309834,3.7784693298159313
2.916640776023701,3.442722640750797
3.031135501567576,3.1362767472360256
3.150124795755327,2.856630429891823
3.2737850959485697,2.601489799488703
3.4022997656780634,2.368751985656067
3.5358593665351745,2.1564900327312757
3.6746619407366854,1.9629386386482912
3.8189133047818515,1.7864810021846587
3.968827354637162,1.6256366459949825
4.1246263829013445,1.4790501475007667
4.286541408420921,1.345481049147002
4.4548125188449825,1.22379441613393
4.629689226627261,1.1129521008116041
4.811430839003257,1.0120047039879199
5.000306842491082,0.9200840932305847
5.196597302486189,0.8363966223132802
5.400593278542364,0.7602170280946285
5.612597255954967,0.6908826867831991
5.8329235942862,0.6277883299227689
6.06189899349756,0.5703811867537193
6.29986297838068,0.51815648468584
6.547168402004727,0.47065341445234515
6.804181968927091,0.42745141603719067
7.071284778942991,0.388166736682077
7.348872892180382,0.3524492756458223
7.637357916378006,0.3199796568574446
7.937167617217536,0.2904665268261971
8.248746552614573,0.26364424766714467
8.572556731909314,0.23927068923956674
8.909078300934132,0.2171251846106716
9.258810253973934,0.19700666368561295
9.622271173675122,0.17873205357989505
9.999999999999984,0.16213468286650565
