k [1/Mpc],P(k) [Mpc^3]
0.0001,630.9631400872871
0.00010392556829367125,659.4291576361369
0.00010800523745162529,689.1711095708533
0.00011224505680853065,720.2451319086016
0.00011665131316981963,752.7097210556883
0.00012123054013376525,786.6257688669176
0.00012598952777950273,822.0567116389901
0.00013093533273536104,859.0685273940045
0.00013607528864243335,897.7298231059174
0.00014141701702890234,938.1120124731518
0.00014696843861124463,980.2893427919548
0.00015273778503907136,1024.339053525724
0.00015873361110102093,1070.3413493904825
0.00016496480740980205,1118.3793936432392
0.0001714406135851971,1168.5395858147021
0.00017817063195457305,1220.9114759114836
0.00018516484179121546,1275.5879499267664
0.000192433614111598,1332.665321639964
0.00019998772705352857,1392.243235796644
0.0002078383818579757,1454.4249640709643
0.00021599721947827182,1519.3171764466229
0.0002244763378413224,1587.0300391224437
0.0002332883097864157,1657.677447364498
0.00024244620170823283,1731.3766638864433
0.0002519635929317015,1808.2487207086754
0.0002618545958474233,1888.4183073488302
0.0002721338768375308,1972.0136719881257
0.0002828166780230032,2059.1669008017802
0.0002939188398646886,2150.0132049639965
0.0003054568246515432,2244.6912942002623
0.00031744774091091926,2343.343420819083
0.00032990936877709396,2446.114957761591
0.00034286018635565856,2553.154813815977
0.00035631939712285854,2664.61467241517
0.000370306958400514,2780.649025147466
0.00038484361094874304,2901.4153830771133
0.0003999509097203664,3027.073510838438
0.00041565125582259895,3157.7858156644043
0.00043196792973341727,3293.7165091849056
0.0004489251258218605,3435.0311226933386
0.0004665479882234472,3581.8969484732474
0.000484862648123908,3734.4818536778503
0.000503896262506515,3892.954510694524
0.0005236770544204653,4057.4836581116997
0.0005442343548300266,4228.236874840697
0.0005655986461065005,4405.381151274564
0.0005878016072274912,4589.080693752198
0.0006108761607505036,4779.496834799229
0.0006348565216305217,4976.787600206196
0.0006597782479539537,5181.104791794744
0.0006856782936641739,5392.595256212794
0.0007125950633568407,5611.397748131953
0.0007405684692262436,5837.641542555151
0.0007696399902471156,6071.447341773015
0.0007998527336796708,6312.922842423752
0.000831251498989063,6562.163872792825
0.0008638828442740447,6819.2517710581205
0.000897795155303332,7084.249925317354
0.0009330387172620361,7357.205962645602
0.0009696657893145519,7638.149276207612
0.001007730682094461,7927.0902046397205
0.0010472898382363582,8224.017567785213
0.0010884019160690055,8528.893604963014
0.0011311278765939214,8841.655972843602
0.001175531073878369,9162.212409467218
0.0012216773489967915,9490.43900206827
0.0012696351276599736,9826.184548375208
0.0013194755216767058,10169.277563430833
0.0013712724343984,10519.518928515
0.0014251026703029975,10876.674023858777
0.0014810460488806749,11240.46910068031
0.0015391855229902056,11610.592608179955
0.001599607301861487,11986.678850402483
0.0016624009789266115,12368.313628499372
0.0017276596646690358,12755.047335644173
0.0017954801246878305,13146.404116029687
0.0018659629231817451,13541.86951812184
0.001939212572065829,13940.887613655434
0.0020153376859417325,14342.860781003477
0.002094451143151469,14747.149505442678
0.002176670253153458,15153.071166391912
0.002262116930469025,15559.901569327498
0.002350917875457286,15966.875039586033
0.002443204762186487,16373.184983000494
0.0025391144336803463,16777.988366246835
0.002638789104828933,17180.420588027457
0.002742376573264949,17579.58980551925
0.0028500304385181063,17974.558530298087
0.0029619103297725525,18364.32921570907
0.0030781821425650787,18747.87267721971
0.003199018284775064,19124.154976966493
0.0033245979322709396,19492.13584477602
0.003455107294592217,19850.69562066693
0.0035907398910610534,20198.481496361932
0.0037316968377327513,20534.08180449907
0.0038781871456107214,20856.45033229161
0.0040304280305680515,21164.97713377068
0.00418864523543527,21458.89039604124
0.004353073364731888,21736.153455139844
0.00452395623253805,21994.234096911427
0.004701547224022131,22231.067692597764
0.004886109671160325,22445.487629640396
0.005077917243205399,22636.460205439376
0.005277254352483535,22802.917803875935
0.005484416576121017,22943.801623375955
0.005699711094326071,23057.936926647242
0.005923457145875801,23143.67836368284
0.006155986501483508,23199.356287108767
0.006397643955748424,23223.225958111467
0.0066487878384172625,23213.49486674842
0.0069097905457156435,23168.471494072535
0.007181039092537346,23086.454074723148
0.007462935686310132,22965.880465003866
0.007755898323389004,22805.238012325637
0.00806036140886134,22603.004732306992
0.008376776400682916,22357.848387579674
0.008705612479099857,22067.989219471943
0.009047357242349292,21731.665871401987
0.00940251742967013,21347.463495958767
0.009771619672696168,20914.162536872376
0.010155211276345676,20431.068148084065
0.010553861030365234,19897.163478236158
0.010968160052731372,19311.45888519214
0.011398722666160517,18673.727229291006
0.011846187309026826,17983.877619661693
0.012311217482038896,17242.846549380392
0.012794502732078732,16451.220058308012
0.013296759674662111,15609.109831603015
0.013818733056536317,14718.942019961518
0.014361196859990781,13786.555525811948
0.014924955450518284,12820.130284606561
0.015510844769528393,11822.646855723571
0.016119733573881575,10787.108161668073
0.01675252472408214,9715.29099701134
0.017410156523040152,8640.097362012615
0.018093604107387147,7605.0280949856415
0.01880388089340914,6612.931904755218
0.019542040079740527,5582.044908864893
0.02030917620904734,4483.003034720695
0.021106426791015535,3469.230268731291
0.021934973989050584,2723.6082883990794
0.02279604637318978,2215.8599815081443
0.023690920741826323,1550.5784591029606
0.02462092401494623,715.5116780042425
0.02558743520168586,221.5610035402
0.02659188744512693,80.5613070175631
0.027635770147361564,60.876046549300206
0.028720631177978267,94.56704433925464
0.029848079169243254,204.99462034904812
0.03101978590138095,447.1855081072954
0.03223748878149028,876.6666446014121
0.0335029934197723,1443.1574644270663
0.03481817630688963,1992.2313139836938
0.03618498759642746,2468.0255094913273
0.037605453996581675,2917.568897300017
0.03908168177536263,3320.5091584594256
0.04061585988376978,3605.75554124463
0.04221026320156896,3714.0732108198604
0.04386725591048496,3621.680375679113
0.0455892949998106,3350.935042234504
0.047378933909631396,2978.246604685247
0.049238826317067365,2513.0161877053515
0.05117173007114603,1836.5937691819354
0.05318051128214196,1169.2639286363756
0.05526814857144601,853.5689944709612
0.057437737488265785,439.914521387687
0.0596924950997073,43.853530725064346
0.0620357647610427,7.866827307549391
0.06447102107323864,29.749571816678035
0.06700187503509585,129.98857458701207
0.06963207939763882,232.02225880506055
0.0723655342286965,293.1276613655557
0.07520629269592405,240.4174439595509
0.07815856707684081,309.2238968420424
0.08122673500479707,56.00804747430917
0.08441534596012978,0.6314198057211191
0.0877291280161335,4.141797897833579
0.09117299484984914,190.9681538494744
0.09475205302806537,276.2674829784435
0.09847160957933764,429.6446474452954
0.1023371798632519,495.0557850973786
0.10635449574860109,437.82960346148985
0.11052951411260206,241.015301367159
0.1148684256737553,161.90710827177213
0.1193776641714435,3.070842540855142
0.1240639159058831,2.964962457313548
0.12893412965257148,48.5770710768854
0.13399552696593373,52.42611184441241
0.1392556128874462,32.03405441106364
0.14472218707411338,2.782186818280456
0.15040335536380234,13.987816456310311
0.15630754179458153,78.50207115473789
0.16244350109588662,118.5800170165013
0.16882033167003618,101.84057137518509
0.17544748908334581,38.13384409427283
0.1823348000868439,0.500891272202349
0.189492477187382,4.1794447768142735
0.19693113379074215,6.251233522785533
0.20466179993919872,0.053612807996280716
0.21269593866686892,10.970066106733196
0.22104546299710207,26.88201543446871
0.22972275360711503,31.221121237745663
0.23874067718606454,12.839183728798519
0.2481126055137766,0.5454436293227072
0.25785243528842716,0.7364713979099643
0.26797460873256895,0.08799238093120128
0.27849413500806414,4.143113069247684
0.28942661247167484,10.211074447743027
0.3007882518043098,6.2283178607247205
0.31259590004822796,0.7531104185583418
0.324867065587837,0.025053790208541274
0.3376199441111335,0.8516312118365561
0.35087344559027084,3.4660296477757577
0.36464722232127456,2.781591598859851
0.37896169806447155,0.627119189527451
0.3938380983288488,0.321270428520523
0.4092984818452433,1.1770501947713556
0.4253657732750382,1.5704541074853986
0.44206379720285277,0.6774629217656721
0.45941731346364734,0.4175093048282831
0.47745205385661277,0.7749342109796945
0.4961947603002895,0.7509772326383374
0.5156732244854959,0.43314676331670293
0.5359163290848509,0.4390268881961834
0.556954090580013,0.5584348314370561
0.5788177037701272,0.6088805330173614
0.6015395880274836,0.5679947836054621
0.6251534353689703,0.47629640763497255
0.6496942604146115,0.37722372393056086
0.6751984523072497,0.29646774934823317
0.7017038286703824,0.24239477881285035
0.7292496916841444,0.2089765064869217
0.7578768863625915,0.18754965458348716
0.7876278611187046,0.17285885231650036
0.8185467307069019,0.16141187667369641
0.850679341636415,0.15064676368997615
0.8840733401525058,0.13900733684948866
0.9187782428863317,0.12684943386248865
0.9548455102782278,0.11484063572988025
0.9923286228832539,0.10347662174678873
1.0312831606721837,0.09309189023398265
1.0717668854455022,0.0838826499642355
1.1138398264826193,0.07582169736247693
1.1575643695533022,0.06870440577653601
1.2030053494233226,0.062356802961391906
1.2502301459914542,0.056640842453893094
1.299308784200415,0.051447067042755215
1.3503140378698726,0.04669279326615733
1.4033215376054824,0.042340451174179373
1.4584098829439835,0.03836850033415574
1.5156607589006013,0.03475410886156507
1.575159057091621,0.03147369637014013
1.6369930016117014,0.028503473833429938
1.7012542798525885,0.02581798493911659
1.7680381784572046,0.023388763288691296
1.8374437246107238,0.021189762246707152
1.9095738328780953,0.019197839845172853
1.9845354578058014,0.01739240520934079
2.0624397525140905,0.015755147312961734
2.143402233514853,0.014270315301331953
2.227542951999554,0.012924137745720777
2.314986671851158,0.011704036341906114
2.405863054644063,0.01059851418560597
2.5003068519063225,0.009597071167686167
2.598458104929248,0.00869008649775218
2.7004623524206774,0.007868632890952161
2.806470846309834,0.007124587411322714
2.916640776023701,0.006450611028092606
3.031135501567576,0.0058400711752823724
3.150124795755327,0.005286972667526128
3.2737850959485697,0.0047859209791962405
3.4022997656780634,0.004332066568452792
3.5358593665351745,0.003921008492487647
3.6746619407366854,0.003548750214476993
3.8189133047818515,0.0032116631749639062
3.968827354637162,0.002906452824879644
4.1246263829013445,0.0026301230638454964
4.286541408420921,0.002379954076660558
4.4548125188449825,0.0021534808053752085
4.629689226627261,0.001948469260601081
4.811430839003257,0.0017628949853338534
5.000306842491082,0.001594923247573017
5.196597302486189,0.0014428909974883689
5.400593278542364,0.001305291590050408
5.612597255954967,0.0011807602599708724
5.8329235942862,0.0010680608085349786
6.06189899349756,0.0009660735113384966
6.29986297838068,0.0008737837313485687
6.547168402004727,0.0007902722412143149
6.804181968927091,0.0007147067619558268
7.071284778942991,0.0006463337638114036
7.348872892180382,0.0005844710210732161
7.637357916378006,0.0005285009981756389
7.937167617217536,0.0004778651909370504
8.248746552614573,0.000432057941901389
8.572556731909314,0.0003906212417922054
8.909078300934132,0.00035314026918569484
9.258810253973934,0.0003192393429752872
9.622271173675122,0.000288578118448918
9.999999999999984,0.00026084823431321206
