k [1/Mpc],P(k) [Mpc^3]
0.0001,1044.87767108679
0.00010392556829367125,1088.8684462133488
0.00010800523745162529,1134.697609544229
0.00011224505680853065,1182.4403598006202
0.00011665131316981963,1232.1747549993465
0.00012123054013376525,1283.9816537259258
0.00012598952777950273,1337.9449948585323
0.00013093533273536104,1394.1518749003887
0.00013607528864243335,1452.6926617034312
0.00014141701702890234,1513.66106975595
0.00014696843861124463,1577.1539914705563
0.00015273778503907136,1643.271817057119
0.00015873361110102093,1712.1184205904065
0.00016496480740980205,1783.801175432568
0.0001714406135851971,1858.4312414776743
0.00017817063195457305,1936.1234149468937
0.00018516484179121546,2016.9963669019792
0.000192433614111598,2101.1725063294966
0.00019998772705352857,2188.7776257410756
0.0002078383818579757,2279.9415257672076
0.00021599721947827182,2374.797867754756
0.0002244763378413224,2473.484307475707
0.0002332883097864157,2576.142473999097
0.00024244620170823283,2682.9172478981473
0.0002519635929317015,2793.95746018232
0.0002618545958474233,2909.4155285063584
0.0002721338768375308,3029.447318520727
0.0002828166780230032,3154.2125095942265
0.0002939188398646886,3283.8735620091416
0.0003054568246515432,3418.596290005638
0.00031744774091091926,3558.5496992437083
0.00032990936877709396,3703.905442731417
0.00034286018635565856,3854.8382697156053
0.00035631939712285854,4011.5244362548674
0.000370306958400514,4174.141989956543
0.00038484361094874304,4342.871158756944
0.0003999509097203664,4517.893535411931
0.00041565125582259895,4699.392367180257
0.00043196792973341727,4887.550847707403
0.0004489251258218605,5082.551641446701
0.0004665479882234472,5284.577503548484
0.000484862648123908,5493.809579120361
0.000503896262506515,5710.427861280132
0.0005236770544204653,5934.609809309139
0.0005442343548300266,6166.528916029091
0.0005655986461065005,6406.3553880341215
0.0005878016072274912,6654.252759171343
0.0006108761607505036,6910.378327528525
0.0006348565216305217,7174.882064181503
0.0006597782479539537,7447.902979331881
0.0006856782936641739,7729.571053779372
0.0007125950633568407,8020.002484715136
0.0007405684692262436,8319.298857338454
0.0007696399902471156,8627.547634333036
0.0007998527336796708,8944.815922220225
0.000831251498989063,9271.153074029626
0.0008638828442740447,9606.586650220943
0.000897795155303332,9951.11919055058
0.0009330387172620361,10304.730790067908
0.0009696657893145519,10667.375110676398
0.001007730682094461,11038.97927160044
0.0010472898382363582,11419.44034927308
0.0010884019160690055,11808.619958498975
0.0011311278765939214,12206.347115391869
0.001175531073878369,12612.410576016855
0.0012216773489967915,13026.558571164329
0.0012696351276599736,13448.504790887393
0.0013194755216767058,13877.935057162875
0.0013712724343984,14314.49870771065
0.0014251026703029975,14757.801944097502
0.0014810460488806749,15207.405929990498
0.0015391855229902056,15662.824446436252
0.001599607301861487,16123.500507543993
0.0016624009789266115,16588.819753299013
0.0017276596646690358,17058.13001094516
0.0017954801246878305,17530.751084666084
0.0018659629231817451,18005.95785467078
0.001939212572065829,18482.97425364871
0.0020153376859417325,18960.97509756906
0.002094451143151469,19439.08931739739
0.002176670253153458,19916.401133721814
0.002262116930469025,20391.95129298451
0.002350917875457286,20864.741925359365
0.002443204762186487,21333.73856664166
0.0025391144336803463,21797.86821959482
0.002638789104828933,22256.016602587573
0.002742376573264949,22707.03503462572
0.0028500304385181063,23149.7435687937
0.0029619103297725525,23582.93354672862
0.0030781821425650787,24005.373938622655
0.003199018284775064,24415.81415150593
0.0033245979322709396,24812.98934006048
0.003455107294592217,25195.52389014676
0.0035907398910610534,25561.787084654807
0.0037316968377327513,25910.13262000456
0.0038781871456107214,26239.47017733238
0.0040304280305680515,26549.186663224013
0.00418864523543527,26838.317389950276
0.004353073364731888,27104.266824144095
0.00452395623253805,27344.028681578835
0.004701547224022131,27555.382644093334
0.004886109671160325,27737.14529678697
0.005077917243205399,27888.254148387343
0.005277254352483535,28007.5788935021
0.005484416576121017,28094.017619010738
0.005699711094326071,28146.258165496674
0.005923457145875801,28162.470879664284
0.006155986501483508,28140.859687314474
0.006397643955748424,28079.516768344187
0.0066487878384172625,27976.536845392548
0.0069097905457156435,27830.143125574043
0.007181039092537346,27638.5411287768
0.007462935686310132,27400.15231786522
0.007755898323389004,27113.41652068766
0.00806036140886134,26776.82256242473
0.008376776400682916,26389.06797268727
0.008705612479099857,25948.248289282077
0.009047357242349292,25452.67582572898
0.00940251742967013,24901.04512725758
0.009771619672696168,24292.324234136388
0.010155211276345676,23626.138481400856
0.010553861030365234,22901.493292671777
0.010968160052731372,22117.72361359783
0.011398722666160517,21275.09725318208
0.011846187309026826,20374.21532801787
0.012311217482038896,19417.07694587628
0.012794502732078732,18404.254253043804
0.013296759674662111,17336.07459182796
0.013818733056536317,16216.646968634814
0.014361196859990781,15055.715019309315
0.014924955450518284,13865.50567567765
0.015510844769528393,12645.562797045217
0.016119733573881575,11383.3819433109
0.01675252472408214,10085.136862323432
0.017410156523040152,8807.937126742832
0.018093604107387147,7611.898101041157
0.01880388089340914,6472.022832493151
0.019542040079740527,5263.38286344448
0.02030917620904734,3982.589346502168
0.021106426791015535,2891.1123015634403
0.021934973989050584,2173.335309334882
0.02279604637318978,1677.7019233294502
0.023690920741826323,940.1266049526595
0.02462092401494623,253.8058581884321
0.02558743520168586,44.67396834859928
0.02659188744512693,16.809893311842195
0.027635770147361564,36.681802393898515
0.028720631177978267,241.94100326932528
0.029848079169243254,1277.4255941029924
0.03101978590138095,2565.5196632919115
0.03223748878149028,2996.1729653915445
0.0335029934197723,3459.4800639929667
0.03481817630688963,4532.182355831691
0.03618498759642746,5942.232346931514
0.037605453996581675,7087.233952033724
0.03908168177536263,7841.3780835297275
0.04061585988376978,8387.81987471952
0.04221026320156896,8772.32020979981
0.04386725591048496,8857.9751844326
0.0455892949998106,8570.07648866239
0.047378933909631396,7952.459806119663
0.049238826317067365,7053.9527461024
0.05117173007114603,5903.094530486961
0.05318051128214196,4630.439054691446
0.05526814857144601,3413.933117569141
0.057437737488265785,2238.0804164005667
0.0596924950997073,1210.5884718588463
0.0620357647610427,615.5349854459838
0.06447102107323864,183.00569624830504
0.06700187503509585,11.923893833407671
0.06963207939763882,9.338692875060483
0.0723655342286965,136.92743259926328
0.07520629269592405,232.43184658365467
0.07815856707684081,208.32666053839966
0.08122673500479707,166.12865578493222
0.08441534596012978,58.157412231593824
0.0877291280161335,8.565352424426383
0.09117299484984914,23.93008209692947
0.09475205302806537,290.10214469576465
0.09847160957933764,503.65264670453
0.1023371798632519,761.632952955829
0.10635449574860109,885.1983933975268
0.11052951411260206,787.1872629857914
0.1148684256737553,585.4707051538984
0.1193776641714435,239.3112151705499
0.1240639159058831,117.94825447917714
0.12893412965257148,0.15910832104804873
0.13399552696593373,21.689918831330992
0.1392556128874462,38.55892247124106
0.14472218707411338,30.576056727126243
0.15040335536380234,0.9898457203630812
0.15630754179458153,33.963404184660135
0.16244350109588662,118.00550874847214
0.16882033167003618,203.6180630323215
0.17544748908334581,183.54774088424145
0.1823348000868439,93.82712265427438
0.189492477187382,21.27530706682462
0.19693113379074215,0.13018356427148403
0.20466179993919872,4.720649355432548
0.21269593866686892,0.00034745637837040543
0.22104546299710207,34.56785325626648
0.22972275360711503,50.13590971393329
0.23874067718606454,59.34525832973297
0.2481126055137766,30.41293970226394
0.25785243528842716,4.093766762918056
0.26797460873256895,0.0276738824217079
0.27849413500806414,0.056237136816474464
0.28942661247167484,7.58032626864121
0.3007882518043098,19.71335872989097
0.31259590004822796,14.237115658275144
0.324867065587837,2.9534989306428185
0.3376199441111335,0.3559605261002373
0.35087344559027084,1.9393461099995555
0.36464722232127456,7.0153996729089885
0.37896169806447155,6.4443210318476645
0.3938380983288488,1.904489946094781
0.4092984818452433,0.8837853125748344
0.4253657732750382,2.4908294055965694
0.44206379720285277,3.5342091938796916
0.45941731346364734,1.6754000387969425
0.47745205385661277,1.0217238053533153
0.4961947603002895,1.6463239832741194
0.5156732244854959,1.7311708003218222
0.5359163290848509,1.039336460948572
0.556954090580013,0.689550837600756
0.5788177037701272,0.5589758202106266
0.6015395880274836,0.5254221646494143
0.6251534353689703,0.5419059717387505
0.6496942604146115,0.580298180623436
0.6751984523072497,0.6105226077554269
0.7017038286703824,0.6044012838101649
0.7292496916841444,0.5654295423471063
0.7578768863625915,0.5079067179680542
0.7876278611187046,0.44510719768427714
0.8185467307069019,0.38667253875925817
0.850679341636415,0.3382754079802464
0.8840733401525058,0.3003974493208701
0.9187782428863317,0.26995141422517877
0.9548455102782278,0.2445364185497635
0.9923286228832539,0.22242063876466003
1.0312831606721837,0.20234162716101275
1.0717668854455022,0.18345124336150825
1.1138398264826193,0.1656648020025675
1.1575643695533022,0.1491640246104085
1.2030053494233226,0.13405378224602219
1.2502301459914542,0.12037382346514847
1.299308784200415,0.10811347479652357
1.3503140378698726,0.09719710108757042
1.4033215376054824,0.08745949643527122
1.4584098829439835,0.0787453964555036
1.5156607589006013,0.07092384689532745
1.575159057091621,0.06388408354789663
1.6369930016117014,0.05753247690663627
1.7012542798525885,0.05179717395839346
1.7680381784572046,0.04662265085581442
1.8374437246107238,0.041958005738327135
1.9095738328780953,0.03775624231103959
1.9845354578058014,0.033974088712483495
2.0624397525140905,0.030571574471128318
2.143402233514853,0.0275107445330865
2.227542951999554,0.02475687301935837
2.314986671851158,0.022278834597043447
2.405863054644063,0.02004872284447069
2.5003068519063225,0.018041508701721058
2.598458104929248,0.016234792383196448
2.7004623524206774,0.014608569884238828
2.806470846309834,0.013144847685559848
2.916640776023701,0.011827422797138292
3.031135501567576,0.010641704851730062
3.150124795755327,0.00957455670329477
3.2737850959485697,0.008614162703841294
3.4022997656780634,0.007749890209433771
3.5358593665351745,0.006972159119198689
3.6746619407366854,0.006272338188174596
3.8189133047818515,0.005642651842256351
3.968827354637162,0.005076092373688555
4.1246263829013445,0.004566332225768932
4.286541408420921,0.004107673923837021
4.4548125188449825,0.0036949930205958143
4.629689226627261,0.0033236801938488227
4.811430839003257,0.0029895892747671387
5.000306842491082,0.0026889939493161194
5.196597302486189,0.0024185464704044235
5.400593278542364,0.002175232970297418
5.612597255954967,0.001956339680351928
5.8329235942862,0.001759423191032256
6.06189899349756,0.001582283548135326
6.29986297838068,0.0014229391530535605
6.547168402004727,0.0012796058159216621
6.804181968927091,0.0011506779168021437
7.071284778942991,0.0010347105731326478
7.348872892180382,0.0009304035719016194
7.637357916378006,0.0008365866807311137
7.937167617217536,0.0007522061585544791
8.248746552614573,0.0006763139458224966
8.572556731909314,0.0006080572584080349
8.909078300934132,0.0005466689969149132
9.258810253973934,0.0004914591328742227
9.622271173675122,0.0004418072934771373
9.999999999999984,0.00039715573846097125
