k [1/Mpc],P(k) [Mpc^3]
0.0001,1730.327081603093
0.00010392556829367125,1797.9768591018267
0.00010800523745162529,1868.2489739545042
0.00011224505680853065,1941.24235368601
0.00011665131316981963,2017.0594167490324
0.00012123054013376525,2095.806003594977
0.00012598952777950273,2177.5916263271147
0.00013093533273536104,2262.529397798238
0.00013607528864243335,2350.7360237395033
0.00014141701702890234,2442.3321330453587
0.00014696843861124463,2537.442059730931
0.00015273778503907136,2636.194113866653
0.00015873361110102093,2738.7206091666785
0.00016496480740980205,2845.157627301567
0.0001714406135851971,2955.6454901109473
0.00017817063195457305,3070.328420516063
0.00018516484179121546,3189.354685670171
0.000192433614111598,3312.8767843360515
0.00019998772705352857,3441.0507567702048
0.0002078383818579757,3574.036853406085
0.00021599721947827182,3711.999110861557
0.0002244763378413224,3855.1051083698944
0.0002332883097864157,4003.5265675189407
0.00024244620170823283,4157.438383008162
0.0002519635929317015,4317.01914005861
0.0002618545958474233,4482.450794884221
0.0002721338768375308,4653.917699576615
0.0002828166780230032,4831.607610012988
0.0002939188398646886,5015.710291883909
0.0003054568246515432,5206.41764144556
0.00031744774091091926,5403.924045172691
0.00032990936877709396,5608.424899676864
0.00034286018635565856,5820.117490180279
0.00035631939712285854,6039.199563272331
0.000370306958400514,6265.8685527589405
0.00038484361094874304,6500.32244175305
0.0003999509097203664,6742.757424341544
0.00041565125582259895,6993.368643396489
0.00043196792973341727,7252.349514601807
0.0004489251258218605,7519.8900577305185
0.0004665479882234472,7796.177814180709
0.000484862648123908,8081.39536234338
0.000503896262506515,8375.720159023791
0.0005236770544204653,8679.324006523346
0.0005442343548300266,8992.36936833296
0.0005655986461065005,9315.011142218767
0.0005878016072274912,9647.393708425778
0.0006108761607505036,9989.649338654443
0.0006348565216305217,10341.898816661847
0.0006597782479539537,10704.244954537304
0.0006856782936641739,11076.774757871453
0.0007125950633568407,11459.5568206174
0.0007405684692262436,11852.636680362573
0.0007696399902471156,12256.03978059084
0.0007998527336796708,12669.76283358102
0.000831251498989063,13093.77452480429
0.0008638828442740447,13528.015973334608
0.000897795155303332,13972.39331699415
0.0009330387172620361,14426.781644627557
0.0009696657893145519,14891.02099293151
0.001007730682094461,15364.914156117691
0.0010472898382363582,15848.22677863797
0.0010884019160690055,16340.677995421125
0.0011311278765939214,16841.94389854723
0.001175531073878369,17351.650979681228
0.0012216773489967915,17869.368214514514
0.0012696351276599736,18394.618915563737
0.0013194755216767058,18926.904174682484
0.0013712724343984,19465.693765848624
0.0014251026703029975,20010.401856778943
0.0014810460488806749,20560.365955507765
0.0015391855229902056,21114.86675042262
0.001599607301861487,21673.121577056158
0.0016624009789266115,22234.283556470473
0.0017276596646690358,22797.455042194
0.0017954801246878305,23361.70550041386
0.0018659629231817451,23926.059779838077
0.001939212572065829,24489.492732118113
0.0020153376859417325,25050.930218815727
0.002094451143151469,25609.2541847853
0.002176670253153458,26163.328796962767
0.002262116930469025,26711.992544702298
0.002350917875457286,27254.046034455234
0.002443204762186487,27788.251804910586
0.0025391144336803463,28313.34338360103
0.002638789104828933,28828.070258731288
0.002742376573264949,29331.199859345037
0.0028500304385181063,29821.478758578276
0.0029619103297725525,30297.60345068814
0.0030781821425650787,30758.251715620536
0.003199018284775064,31202.12529798584
0.0033245979322709396,31627.968871203066
0.003455107294592217,32034.507718547688
0.0035907398910610534,32420.20796948097
0.0037316968377327513,32783.40963736301
0.0038781871456107214,33122.832633515914
0.0040304280305680515,33438.12739468924
0.00418864523543527,33729.0572917472
0.004353073364731888,33993.97920728056
0.00452395623253805,34230.070803090945
0.004701547224022131,34434.850939851254
0.004886109671160325,34607.41774058939
0.005077917243205399,34747.35731966606
0.005277254352483535,34854.35969405075
0.005484416576121017,34928.223443932526
0.005699711094326071,34968.76711029227
0.005923457145875801,34975.33068407463
0.006155986501483508,34947.0912697474
0.006397643955748424,34883.29193268749
0.0066487878384172625,34783.205215001646
0.0069097905457156435,34646.221387369565
0.007181039092537346,34471.963116674946
0.007462935686310132,34260.26512118725
0.007755898323389004,34011.128171689874
0.00806036140886134,33724.79330516151
0.008376776400682916,33401.6553588295
0.008705612479099857,33041.884099278264
0.009047357242349292,32645.357945544565
0.00940251742967013,32212.17439293043
0.009771619672696168,31743.03966372186
0.010155211276345676,31239.00049008998
0.010553861030365234,30701.058921848064
0.010968160052731372,30129.9758473914
0.011398722666160517,29526.653857887777
0.011846187309026826,28892.14839827389
0.012311217482038896,28227.68394090281
0.012794502732078732,27534.73079378654
0.013296759674662111,26815.111047402148
0.013818733056536317,26070.841850923196
0.014361196859990781,25303.967013200945
0.014924955450518284,24516.543728610683
0.015510844769528393,23710.82622414161
0.016119733573881575,22889.505084976474
0.01675252472408214,22055.4597898265
0.017410156523040152,21211.764258484345
0.018093604107387147,20361.774020331126
0.01880388089340914,19508.831104086898
0.019542040079740527,18656.565431843457
0.02030917620904734,17808.654166168886
0.021106426791015535,16968.78615319462
0.021934973989050584,16141.18319078539
0.02279604637318978,15329.73071060281
0.023690920741826323,14537.953969683735
0.02462092401494623,13769.003852360413
0.02558743520168586,13025.885413499298
0.02659188744512693,12313.27833620514
0.027635770147361564,11635.551205219906
0.028720631177978267,10994.690937023499
0.029848079169243254,10389.862230125862
0.03101978590138095,9819.967227638414
0.03223748878149028,9284.757608408669
0.0335029934197723,8784.260760705154
0.03481817630688963,8318.147391027573
0.03618498759642746,7885.740346734593
0.037605453996581675,7486.047449540874
0.03908168177536263,7115.274588830477
0.04061585988376978,6767.4876195391835
0.04221026320156896,6437.3707894386835
0.04386725591048496,6119.554389668412
0.0455892949998106,5809.320908765168
0.047378933909631396,5503.298646159521
0.049238826317067365,5199.566804712396
0.05117173007114603,4896.75639815128
0.05318051128214196,4593.161854652805
0.05526814857144601,4287.407986346757
0.057437737488265785,3982.34558667509
0.0596924950997073,3686.890638631026
0.0620357647610427,3407.4136285922536
0.06447102107323864,3144.1540522843884
0.06700187503509585,2897.4577644470646
0.06963207939763882,2674.3777257496363
0.0723655342286965,2480.4617625351852
0.07520629269592405,2313.9278152868196
0.07815856707684081,2170.467685771705
0.08122673500479707,2043.7836425807686
0.08441534596012978,1928.8425682041561
0.0877291280161335,1820.8221050705702
0.09117299484984914,1710.8606495787326
0.09475205302806537,1596.9108790929242
0.09847160957933764,1483.2506800426368
0.1023371798632519,1369.9469456391898
0.10635449574860109,1256.6878445631294
0.11052951411260206,1149.0680457354033
0.1148684256737553,1055.3021847614802
0.1193776641714435,974.4813851543141
0.1240639159058831,903.8038915169911
0.12893412965257148,841.3006567080885
0.13399552696593373,784.8024871705495
0.1392556128874462,728.3177412590592
0.14472218707411338,672.4452478963407
0.15040335536380234,618.5647735200241
0.15630754179458153,568.3123128657833
0.16244350109588662,522.829802333652
0.16882033167003618,481.71869791438496
0.17544748908334581,444.99650517518126
0.1823348000868439,410.7885795917239
0.189492477187382,378.28719396561075
0.19693113379074215,347.9226187626702
0.20466179993919872,319.6793648827629
0.21269593866686892,294.0086899251461
0.22104546299710207,270.33721555469606
0.22972275360711503,248.59409118157703
0.23874067718606454,228.3417052874232
0.2481126055137766,209.62778690865775
0.25785243528842716,192.42920646516194
0.26797460873256895,176.60863778764673
0.27849413500806414,162.0319643313906
0.28942661247167484,148.5950106026307
0.3007882518043098,136.21168760505148
0.31259590004822796,124.8304699299584
0.324867065587837,114.36752034277278
0.3376199441111335,104.74223615257796
0.35087344559027084,95.89502166563753
0.36464722232127456,87.76747127533243
0.37896169806447155,80.30380840422411
0.3938380983288488,73.45171602493181
0.4092984818452433,67.16571383320458
0.4253657732750382,61.40093664000645
0.44206379720285277,56.120116597860054
0.45941731346364734,51.27919058534006
0.47745205385661277,46.845093312121755
0.4961947603002895,42.78474740002589
0.5156732244854959,39.066892964301985
0.5359163290848509,35.66193371881495
0.556954090580013,32.54465347539465
0.5788177037701272,29.69136717690485
0.6015395880274836,27.080573273625536
0.6251534353689703,24.69293236885754
0.6496942604146115,22.510837450307413
0.6751984523072497,20.517559888329107
0.7017038286703824,18.697316564511468
0.7292496916841444,17.035650790627606
0.7578768863625915,15.518515415408059
0.7876278611187046,14.132891186000787
0.8185467307069019,12.867832558928212
0.850679341636415,11.713325547847903
0.8840733401525058,10.660125988769229
0.9187782428863317,9.699707910603415
0.9548455102782278,8.824211979844815
0.9923286228832539,8.026339512441751
1.0312831606721837,7.299330652230628
1.0717668854455022,6.637000784277312
1.1138398264826193,6.03369600914878
1.1575643695533022,5.4842483262457185
1.2030053494233226,4.983935320488899
1.2502301459914542,4.528451350398133
1.299308784200415,4.113866198982695
1.3503140378698726,3.736585348034512
1.4033215376054824,3.3933220535645763
1.4584098829439835,3.081071826502523
1.5156607589006013,2.797089120450297
1.575159057091621,2.538866776972632
1.6369930016117014,2.304114969122595
1.7012542798525885,2.0907422728514815
1.7680381784572046,1.8968390207319483
1.8374437246107238,1.720661999462345
1.9095738328780953,1.56062005643631
1.9845354578058014,1.4152601316399016
2.0624397525140905,1.2832569870412711
2.143402233514853,1.1634027418576514
2.227542951999554,1.0545967121048423
2.314986671851158,0.9558361061854626
2.405863054644063,0.8662073547675991
2.5003068519063225,0.7848780873093735
2.598458104929248,0.7110905090864563
2.7004623524206774,0.6441549349757147
2.806470846309834,0.5834437755758319
2.916640776023701,0.5283860460479464
3.031135501567576,0.47846264741729333
3.150124795755327,0.433201926583063
3.2737850959485697,0.3921748152383513
3.4022997656780634,0.35499099946427853
3.5358593665351745,0.3212954999163846
3.6746619407366854,0.29076553681695905
3.8189133047818515,0.26310736788894323
3.968827354637162,0.23805372802123753
4.1246263829013445,0.2153619213897153
4.286541408420921,0.1948116191071506
4.4548125188449825,0.17620282159627595
4.629689226627261,0.15935401388834017
4.811430839003257,0.14410063024950773
5.000306842491082,0.13029342595454566
5.196597302486189,0.11779691554338066
5.400593278542364,0.10648812184614849
5.612597255954967,0.09625544161399033
5.8329235942862,0.08699760519301612
6.06189899349756,0.07862268111357609
6.29986297838068,0.07104727086720589
6.547168402004727,0.06419576820359033
6.804181968927091,0.05799964043854371
7.071284778942991,0.052396774625613096
7.348872892180382,0.04733088256389123
7.637357916378006,0.042750957484967884
7.937167617217536,0.03861078800532096
8.248746552614573,0.03486851418211751
8.572556731909314,0.03148622223328573
8.909078300934132,0.028429576540454735
9.258810253973934,0.025667492033699283
9.622271173675122,0.023171845062402607
9.999999999999984,0.020917171769658557
