k [1/Mpc],P(k) [Mpc^3]
0.0001,29.45342437331309
0.00010392556829367125,30.786491382842872
0.00010800523745162529,32.179855298087624
0.00011224505680853065,33.636238118688325
0.00011665131316981963,35.15848438640556
0.00012123054013376525,36.74956718829721
0.00012598952777950273,38.41259364771188
0.00013093533273536104,40.15080963633701
0.00013607528864243335,41.9676048155359
0.00014141701702890234,43.86652067643316
0.00014696843861124463,45.85125765287848
0.00015273778503907136,47.925682158216205
0.00015873361110102093,50.093833620922254
0.00016496480740980205,52.359931632166635
0.0001714406135851971,54.72838432128
0.00017817063195457305,57.20379381037878
0.00018516484179121546,59.79096465360713
0.000192433614111598,62.4949155824637
0.00019998772705352857,65.32089046128098
0.0002078383818579757,68.27436700647542
0.00021599721947827182,71.36106248105416
0.0002244763378413224,74.58694223446984
0.0002332883097864157,77.95823503444038
0.00024244620170823283,81.48144473036145
0.0002519635929317015,85.16336219456937
0.0002618545958474233,89.0110733172205
0.0002721338768375308,93.03196682809313
0.0002828166780230032,97.2337537141921
0.0002939188398646886,101.62447957985411
0.0003054568246515432,106.212539437422
0.00031744774091091926,111.00669119280208
0.00032990936877709396,116.01606555187783
0.00034286018635565856,121.25018628550933
0.00035631939712285854,126.71897557463285
0.000370306958400514,132.43276979550183
0.00038484361094874304,138.40234451547346
0.0003999509097203664,144.63892609344808
0.00041565125582259895,151.15421441338273
0.00043196792973341727,157.96039277557745
0.0004489251258218605,165.07014172053456
0.0004665479882234472,172.49666798210032
0.000484862648123908,180.2537088141037
0.000503896262506515,188.35556084999598
0.0005236770544204653,196.81709326924775
0.0005442343548300266,205.65375220182244
0.0005655986461065005,214.8816033708185
0.0005878016072274912,224.51734196504478
0.0006108761607505036,234.57831909157045
0.0006348565216305217,245.0825598171473
0.0006597782479539537,256.0487565991994
0.0006856782936641739,267.4963190975945
0.0007125950633568407,279.4453700893072
0.0007405684692262436,291.9167661394096
0.0007696399902471156,304.93213864788487
0.0007998527336796708,318.51388198395915
0.000831251498989063,332.6852011187625
0.0008638828442740447,347.47009358210556
0.000897795155303332,362.89334482322766
0.0009330387172620361,378.98059721937267
0.0009696657893145519,395.7583192747818
0.001007730682094461,413.2538519928502
0.0010472898382363582,431.49538311250717
0.0010884019160690055,450.51188553798784
0.0011311278765939214,470.3332204637514
0.001175531073878369,490.990030059839
0.0012216773489967915,512.5137777687308
0.0012696351276599736,534.9367830130811
0.0013194755216767058,558.2921180460046
0.0013712724343984,582.6137011970711
0.0014251026703029975,607.9361272166633
0.0014810460488806749,634.2946423705663
0.0015391855229902056,661.7252339043453
0.001599607301861487,690.2644252929114
0.0016624009789266115,719.949384084201
0.0017276596646690358,750.8177772890231
0.0017954801246878305,782.9076445807653
0.0018659629231817451,816.2574928783499
0.001939212572065829,850.9059174725762
0.0020153376859417325,886.8917050948035
0.002094451143151469,924.253751254161
0.002176670253153458,963.030797720134
0.002262116930469025,1003.2615543678774
0.002350917875457286,1044.9842899611258
0.002443204762186487,1088.236804264538
0.0025391144336803463,1133.0563797063842
0.002638789104828933,1179.4793625545703
0.002742376573264949,1227.5412782416513
0.0028500304385181063,1277.2763188572678
0.0029619103297725525,1328.7171403584784
0.0030781821425650787,1381.894917597531
0.003199018284775064,1436.8387323455236
0.0033245979322709396,1493.57566553559
0.003455107294592217,1552.1301689695085
0.0035907398910610534,1612.5235483190247
0.0037316968377327513,1674.7742279112185
0.0038781871456107214,1738.8969132582868
0.0040304280305680515,1804.902622622755
0.00418864523543527,1872.7981471302455
0.004353073364731888,1942.5851424937737
0.00452395623253805,2014.2605150919057
0.004701547224022131,2087.81497642941
0.004886109671160325,2163.233010001461
0.005077917243205399,2240.4929605358593
0.005277254352483535,2319.5660107971207
0.005484416576121017,2400.4162976059056
0.005699711094326071,2482.9964447353705
0.005923457145875801,2567.2468661781104
0.006155986501483508,2653.1009840500146
0.006397643955748424,2740.4926993306435
0.0066487878384172625,2829.3501200038977
0.0069097905457156435,2919.5731397364566
0.007181039092537346,3011.0230763159007
0.007462935686310132,3103.547258678829
0.007755898323389004,3196.99589381866
0.00806036140886134,3291.214058215246
0.008376776400682916,3386.0339833893718
0.008705612479099857,3481.274080238359
0.009047357242349292,3576.7385855731795
0.00940251742967013,3672.199636248148
0.009771619672696168,3767.4023762622537
0.010155211276345676,3862.072685225221
0.010553861030365234,3955.90944569001
0.010968160052731372,4048.5933700445817
0.011398722666160517,4139.7803990050415
0.011846187309026826,4229.102498324945
0.012311217482038896,4316.173409434455
0.012794502732078732,4400.576069191149
0.013296759674662111,4481.8757602376245
0.013818733056536317,4559.61053685647
0.014361196859990781,4633.286457363999
0.014924955450518284,4702.397523508941
0.015510844769528393,4766.408093927703
0.016119733573881575,4824.770542793908
0.01675252472408214,4876.92586528377
0.017410156523040152,4922.293143437331
0.018093604107387147,4960.299167945683
0.01880388089340914,4990.362748603926
0.019542040079740527,5011.911571326616
0.02030917620904734,5024.398431231299
0.021106426791015535,5027.291139981867
0.021934973989050584,5020.103920911576
0.02279604637318978,5002.402690180532
0.023690920741826323,4973.815113353749
0.02462092401494623,4934.051838704993
0.02558743520168586,4882.926919077089
0.02659188744512693,4820.354972659231
0.027635770147361564,4746.394060299252
0.028720631177978267,4661.261659417771
0.029848079169243254,4565.299430108882
0.03101978590138095,4459.0830053887985
0.03223748878149028,4343.327878931313
0.0335029934197723,4218.941073568007
0.03481817630688963,4087.1127041562495
0.03618498759642746,3949.084498341514
0.037605453996581675,3806.357324759498
0.03908168177536263,3660.526233844068
0.04061585988376978,3513.2686740157305
0.04221026320156896,3366.681639236403
0.04386725591048496,3222.6913066175957
0.0455892949998106,3082.9174071720354
0.047378933909631396,2948.6941895338873
0.049238826317067365,2821.3801890407076
0.05117173007114603,2703.2645690848644
0.05318051128214196,2596.5154025501934
0.05526814857144601,2502.0090241099483
0.057437737488265785,2419.5342280769523
0.0596924950997073,2348.705388799396
0.0620357647610427,2288.861775377616
0.06447102107323864,2239.074613417569
0.06700187503509585,2197.647516130646
0.06963207939763882,2162.7486683240686
0.0723655342286965,2132.3047175762727
0.07520629269592405,2103.167908355121
0.07815856707684081,2070.9328886121802
0.08122673500479707,2031.220771958684
0.08441534596012978,1980.0812122584846
0.0877291280161335,1914.5050102653695
0.09117299484984914,1833.2962137566929
0.09475205302806537,1737.22521128461
0.09847160957933764,1628.9084451996087
0.1023371798632519,1512.403247082258
0.10635449574860109,1393.007484500012
0.11052951411260206,1276.6799057835271
0.1148684256737553,1169.8831257214786
0.1193776641714435,1078.4978570501355
0.1240639159058831,1006.5184429095483
0.12893412965257148,955.2586042872701
0.13399552696593373,922.8955252413366
0.1392556128874462,904.7677523395323
0.14472218707411338,894.0092153720309
0.15040335536380234,882.4056189550921
0.15630754179458153,861.8656246894623
0.16244350109588662,826.39641690829
0.16882033167003618,773.993068665355
0.17544748908334581,708.0230278654966
0.1823348000868439,637.2572390908083
0.189492477187382,572.8346847129394
0.19693113379074215,523.1434291072557
0.20466179993919872,491.1259939395406
0.21269593866686892,474.7916008000109
0.22104546299710207,467.2354170623552
0.22972275360711503,457.744646431155
0.23874067718606454,437.42038986574147
0.2481126055137766,404.3471557009907
0.25785243528842716,364.1659446458099
0.26797460873256895,326.96111738489947
0.27849413500806414,300.7722549948598
0.28942661247167484,286.7890950800279
0.3007882518043098,278.773678543188
0.31259590004822796,267.7490007119642
0.324867065587837,248.85589721320278
0.3376199441111335,225.10577200901906
0.35087344559027084,204.42606113612638
0.36464722232127456,191.21064854251554
0.37896169806447155,182.99213160293368
0.3938380983288488,173.35993332426014
0.4092984818452433,159.67689513617248
0.4253657732750382,145.38206421848966
0.44206379720285277,134.84135981458383
0.45941731346364734,127.38933417689725
0.47745205385661277,119.2708812022666
0.4961947603002895,109.56173744913023
0.5156732244854959,100.87966380584861
0.5359163290848509,94.30766570694112
0.556954090580013,87.94500365014304
0.5788177037701272,81.02055577104903
0.6015395880274836,74.88045150016053
0.6251534353689703,69.69867446693735
0.6496942604146115,64.49909355850522
0.6751984523072497,59.51600748576168
0.7017038286703824,55.160987006445175
0.7292496916841444,51.049380374247185
0.7578768863625915,47.197357626346566
0.7876278611187046,43.609089022738694
0.8185467307069019,40.27273844171417
0.850679341636415,37.176014090898676
0.8840733401525058,34.306364711476185
0.9187782428863317,31.650696019095374
0.9548455102782278,29.193818738185957
0.9923286228832539,26.92082759931193
1.0312831606721837,24.81798590277866
1.0717668854455022,22.87262749654709
1.1138398264826193,21.073072420169673
1.1575643695533022,19.40878015463334
1.2030053494233226,17.870274122806496
1.2502301459914542,16.44869260742108
1.299308784200415,15.13572941051913
1.3503140378698726,13.923606131395621
1.4033215376054824,12.805035743458708
1.4584098829439835,11.773151685392419
1.5156607589006013,10.821535720168363
1.575159057091621,9.944217177244965
1.6369930016117014,9.13564428675986
1.7012542798525885,8.39065711369449
1.7680381784572046,7.70446545465593
1.8374437246107238,7.072625509687496
1.9095738328780953,6.491010707122711
1.9845354578058014,5.955790302791266
2.0624397525140905,5.463409837722236
2.143402233514853,5.0105724734634505
2.227542951999554,4.594220106068604
2.314986671851158,4.211518757413864
2.405863054644063,3.8598442476479975
2.5003068519063225,3.5367676536610784
2.598458104929248,3.240041672848854
2.7004623524206774,2.967587292375033
2.806470846309834,2.7174815710178972
2.916640776023701,2.4879477111619916
3.031135501567576,2.27734466507712
3.150124795755327,2.084157289151708
3.2737850959485697,1.9069871461243169
3.4022997656780634,1.744543817230854
3.5358593665351745,1.5956370577741585
3.6746619407366854,1.4591694727057085
3.8189133047818515,1.3341295973019196
3.968827354637162,1.219585461551756
4.1246263829013445,1.1146785017234941
4.286541408420921,1.018617917003488
4.4548125188449825,0.9306757840303401
4.629689226627261,0.8501822855811582
4.811430839003257,0.7765212459340598
5.000306842491082,0.7091259840699492
5.196597302486189,0.6474753932906175
5.400593278542364,0.5910904620201578
5.612597255954967,0.5395310594251372
5.8329235942862,0.49239288392174496
6.06189899349756,0.4493046400529322
6.29986297838068,0.40992540968630875
6.547168402004727,0.37394221736271027
6.804181968927091,0.3410678600127513
7.071284778942991,0.3110388556098918
7.348872892180382,0.28361353965993447
7.637357916378006,0.25857030353704785
7.937167617217536,0.23570590332553798
8.248746552614573,0.21483401605631916
8.572556731909314,0.19578393274132833
8.909078300934132,0.17839928227004395
9.258810253973934,0.1625368549652975
9.622271173675122,0.14806557245725266
9.999999999999984,0.13486558110688823
