k [1/Mpc],P(k) [Mpc^3]
0.0001,217.63300500002177
0.00010392556829367125,227.48311191707103
0.00010800523745162529,237.77875605304013
0.00011224505680853065,248.54005041597756
0.00011665131316981963,259.78801348452805
0.00012123054013376525,271.5446135657493
0.00012598952777950273,283.83280936837025
0.00013093533273536104,296.67658482037945
0.00013607528864243335,310.1009863197468
0.00014141701702890234,324.1321821430659
0.00014696843861124463,338.7975150036424
0.00015273778503907136,354.1255540465792
0.00015873361110102093,370.14614683549274
0.00016496480740980205,386.8904721662527
0.0001714406135851971,404.3911019537745
0.00017817063195457305,422.68204153655057
0.00018516484179121546,441.79879203468266
0.000192433614111598,461.7784371367594
0.00019998772705352857,482.6597240505091
0.0002078383818579757,504.4831279298267
0.00021599721947827182,527.2908939518044
0.0002244763378413224,551.1271004181975
0.0002332883097864157,576.0377720431007
0.00024244620170823283,602.0709661345579
0.0002519635929317015,629.2768608292228
0.0002618545958474233,657.7078141669714
0.0002721338768375308,687.4184218866355
0.0002828166780230032,718.4656609037718
0.0002939188398646886,750.9089806401743
0.0003054568246515432,784.8104123129951
0.00031744774091091926,820.2346685802855
0.00032990936877709396,857.2492167400408
0.00034286018635565856,895.92442846942
0.00035631939712285854,936.333619319985
0.000370306958400514,978.5531653557315
0.00038484361094874304,1022.6626878483602
0.0003999509097203664,1068.745138993572
0.00041565125582259895,1116.8869698902768
0.00043196792973341727,1167.1782036278614
0.0004489251258218605,1219.7125374314626
0.0004665479882234472,1274.5875565983538
0.000484862648123908,1331.9047664677223
0.000503896262506515,1391.769805666166
0.0005236770544204653,1454.2925433949379
0.0005442343548300266,1519.5871119748488
0.0005655986461065005,1587.7722219351433
0.0005878016072274912,1658.9712349625122
0.0006108761607505036,1733.312359360469
0.0006348565216305217,1810.928783358428
0.0006597782479539537,1891.958626572924
0.0006856782936641739,1976.5453080695797
0.0007125950633568407,2064.837516176328
0.0007405684692262436,2156.9893612225164
0.0007696399902471156,2253.1606788361205
0.0007998527336796708,2353.5169422676504
0.000831251498989063,2458.2296143505623
0.0008638828442740447,2567.476014178861
0.000897795155303332,2681.4392828274135
0.0009330387172620361,2800.308893260186
0.0009696657893145519,2924.28042273987
0.001007730682094461,3053.5558954743537
0.0010472898382363582,3188.343592247888
0.0010884019160690055,3328.857595475216
0.0011311278765939214,3475.318551197376
0.001175531073878369,3627.952876127796
0.0012216773489967915,3786.993055408028
0.0012696351276599736,3952.677899065149
0.0013194755216767058,4125.25177983274
0.0013712724343984,4304.965322150777
0.0014251026703029975,4492.074148570566
0.0014810460488806749,4686.838695727268
0.0015391855229902056,4889.524875397213
0.001599607301861487,5100.402561585447
0.0016624009789266115,5319.74638738873
0.0017276596646690358,5547.8346764630105
0.0017954801246878305,5784.948506088935
0.0018659629231817451,6031.372406050613
0.001939212572065829,6287.391559116919
0.0020153376859417325,6553.29256262176
0.002094451143151469,6829.3628176640905
0.002176670253153458,7115.8885893520055
0.002262116930469025,7413.155907124608
0.002350917875457286,7721.447541023972
0.002443204762186487,8041.042795631684
0.0025391144336803463,8372.21715290174
0.002638789104828933,8715.239177446681
0.002742376573264949,9070.3713686806
0.0028500304385181063,9437.866373871984
0.0029619103297725525,9817.965489719507
0.0030781821425650787,10210.899068955305
0.003199018284775064,10616.881998417473
0.0033245979322709396,11036.114380640154
0.003455107294592217,11468.776891358406
0.0035907398910610534,11915.026959375982
0.0037316968377327513,12375.00072307926
0.0038781871456107214,12848.806842322825
0.0040304280305680515,13336.526731666592
0.00418864523543527,13838.210571118761
0.004353073364731888,14353.870594835684
0.00452395623253805,14883.483943875039
0.004701547224022131,15426.98198502448
0.004886109671160325,15984.250065959406
0.005077917243205399,16555.12817465868
0.005277254352483535,17139.403378952702
0.005484416576121017,17736.810683797445
0.005699711094326071,18347.000023595006
0.005923457145875801,18969.531113993966
0.006155986501483508,19603.91200727367
0.006397643955748424,20249.65429406401
0.0066487878384172625,20906.226760224963
0.0069097905457156435,21572.88971444377
0.007181039092537346,22248.61842607293
0.007462935686310132,22932.2848000603
0.007755898323389004,23622.78200747702
0.00806036140886134,24318.965309741656
0.008376776400682916,25019.59505614968
0.008705612479099857,25723.329474634433
0.009047357242349292,26428.72206001009
0.00940251742967013,27134.08911871029
0.009771619672696168,27837.547505446426
0.010155211276345676,28537.07172927689
0.010553861030365234,29230.436816493133
0.010968160052731372,29915.28353301811
0.011398722666160517,30589.06960550176
0.011846187309026826,31249.07560825079
0.012311217482038896,31892.447455023954
0.012794502732078732,32516.103442865126
0.013296759674662111,33116.83142083326
0.013818733056536317,33691.21804610776
0.014361196859990781,34235.61355587824
0.014924955450518284,34746.27910068013
0.015510844769528393,35219.256796428905
0.016119733573881575,35650.50020517227
0.01675252472408214,36035.87880890768
0.017410156523040152,36371.100172240134
0.018093604107387147,36651.928819429675
0.01880388089340914,36874.07030344816
0.019542040079740527,37033.295763412025
0.02030917620904734,37125.56187174721
0.021106426791015535,37146.93625898303
0.021934973989050584,37093.829494077356
0.02279604637318978,36963.034107185544
0.023690920741826323,36751.798898279965
0.02462092401494623,36457.985831223115
0.02558743520168586,36080.220932039214
0.02659188744512693,35617.87330973838
0.027635770147361564,35071.3719791824
0.028720631177978267,34442.32389323248
0.029848079169243254,33733.25359749066
0.03101978590138095,32948.414476606114
0.03223748878149028,32093.093353472937
0.0335029934197723,31173.992270676703
0.03481817630688963,30199.905053662675
0.03618498759642746,29180.00689766285
0.037605453996581675,28125.38780522352
0.03908168177536263,27047.833693481152
0.04061585988376978,25959.73932291793
0.04221026320156896,24876.59949955758
0.04386725591048496,23812.646854133527
0.0455892949998106,22779.84966996399
0.047378933909631396,21788.066785056737
0.049238826317067365,20847.33649323335
0.05117173007114603,19974.573551219648
0.05318051128214196,19185.797971180877
0.05526814857144601,18487.485039179133
0.057437737488265785,17878.07414454347
0.0596924950997073,17354.71587769946
0.0620357647610427,16912.52806096321
0.06447102107323864,16544.647928233873
0.06700187503509585,16238.540782364944
0.06963207939763882,15980.671238134099
0.0723655342286965,15755.719178185553
0.07520629269592405,15540.425660306624
0.07815856707684081,15302.239291075897
0.08122673500479707,15008.804233315937
0.08441534596012978,14630.931157816549
0.0877291280161335,14146.384922534615
0.09117299484984914,13546.328569405357
0.09475205302806537,12836.454542658632
0.09847160957933764,12036.095881601812
0.1023371798632519,11175.232436895678
0.10635449574860109,10293.010449200856
0.11052951411260206,9433.459444211978
0.1148684256737553,8644.332045148343
0.1193776641714435,7969.081168319939
0.1240639159058831,7437.221239266979
0.12893412965257148,7058.459416064834
0.13399552696593373,6819.326809460304
0.1392556128874462,6685.3796785401955
0.14472218707411338,6605.88424534491
0.15040335536380234,6520.144620470797
0.15630754179458153,6368.373450570345
0.16244350109588662,6106.289484490636
0.16882033167003618,5719.078204551791
0.17544748908334581,5231.621872232893
0.1823348000868439,4708.729489091645
0.189492477187382,4232.707620757161
0.19693113379074215,3865.5361454604617
0.20466179993919872,3628.9575208623396
0.21269593866686892,3508.2617736123666
0.22104546299710207,3452.4287080810013
0.22972275360711503,3382.3008714649795
0.23874067718606454,3232.1237995340794
0.2481126055137766,2987.7438169176667
0.25785243528842716,2690.842594307963
0.26797460873256895,2415.9340385260716
0.27849413500806414,2222.4230651588937
0.28942661247167484,2119.100712107882
0.3007882518043098,2059.874349660876
0.31259590004822796,1978.4123866933257
0.324867065587837,1838.8101850580747
0.3376199441111335,1663.3191775677346
0.35087344559027084,1510.5156338182644
0.36464722232127456,1412.8662087935593
0.37896169806447155,1352.1391260769774
0.3938380983288488,1280.9662726398353
0.4092984818452433,1179.861535864245
0.4253657732750382,1074.2362282887584
0.44206379720285277,996.3503721260528
0.45941731346364734,941.2869366385172
0.47745205385661277,881.299232172441
0.4961947603002895,809.5578243079343
0.5156732244854959,745.4054951026791
0.5359163290848509,696.8446324677863
0.556954090580013,649.8305655915676
0.5788177037701272,598.6654317588207
0.6015395880274836,553.2958568479419
0.6251534353689703,515.0074156573054
0.6496942604146115,476.5874206339716
0.6751984523072497,439.7671180966696
0.7017038286703824,407.5876274630081
0.7292496916841444,377.20673540096175
0.7578768863625915,348.74392322236713
0.7876278611187046,322.230005212277
0.8185467307069019,297.5775236033869
0.850679341636415,274.69565365228664
0.8840733401525058,253.4916534034723
0.9187782428863317,233.86876845529667
0.9548455102782278,215.7147643984688
0.9923286228832539,198.91950536095635
1.0312831606721837,183.38149009810155
1.0717668854455022,169.00712770193013
1.1138398264826193,155.710114289462
1.1575643695533022,143.41256537439767
1.2030053494233226,132.04445799668588
1.2502301459914542,121.54031243030022
1.299308784200415,111.83875371256038
1.3503140378698726,102.88230680429699
1.4033215376054824,94.61712745722853
1.4584098829439835,86.99247826458449
1.5156607589006013,79.96093451290591
1.575159057091621,73.47837858261285
1.6369930016117014,67.50378813474389
1.7012542798525885,61.99903611998012
1.7680381784572046,56.9287274567259
1.8374437246107238,52.260026657808886
1.9095738328780953,47.96244225368922
1.9845354578058014,44.00766866079182
2.0624397525140905,40.3694417823792
2.143402233514853,37.023401094179135
2.227542951999554,33.94695009457603
2.314986671851158,31.119148360229744
2.405863054644063,28.52060567900582
2.5003068519063225,26.133374601785032
2.598458104929248,23.94084968355329
2.7004623524206774,21.92766898183283
2.806470846309834,20.07962377606144
2.916640776023701,18.383585208982065
3.031135501567576,16.82742748685527
3.150124795755327,15.399955128537199
3.2737850959485697,14.090835002652238
3.4022997656780634,12.890532132561397
3.5358593665351745,11.790251733425903
3.6746619407366854,10.781885091669535
3.8189133047818515,9.85795843770764
3.968827354637162,9.011585392846154
4.1246263829013445,8.236421981506863
4.286541408420921,7.526624932114657
4.4548125188449825,6.8768155781164495
4.629689226627261,6.282044602476256
4.811430839003257,5.737759048218292
5.000306842491082,5.239771677502257
5.196597302486189,4.784232003701558
5.400593278542364,4.367600583409782
5.612597255954967,3.9866252652078247
5.8329235942862,3.638318642012021
6.06189899349756,3.319937190860959
6.29986297838068,3.028961848549265
6.547168402004727,2.763080021851585
6.804181968927091,2.520169551176445
7.071284778942991,2.2982835530486807
7.348872892180382,2.0956363549635486
7.637357916378006,1.910590478352773
7.937167617217536,1.7416441425215246
8.248746552614573,1.5874205965987103
8.572556731909314,1.4466584622949403
8.909078300934132,1.3182023047023188
9.258810253973934,1.200993939482338
9.622271173675122,1.0940648212069206
9.999999999999984,0.9965293446136786
