k [1/Mpc],P(k) [Mpc^3]
0.0001,565.8961641312915
0.00010392556829367125,586.4006096639979
0.00010800523745162529,607.6468329629901
0.00011224505680853065,629.6615318888157
0.00011665131316981963,652.4723503951342
0.00012123054013376525,676.1078945901879
0.00012598952777950273,700.5977815646493
0.00013093533273536104,725.9726769159823
0.00013607528864243335,752.264330606199
0.00014141701702890234,779.5056121385746
0.00014696843861124463,807.730523282835
0.00015273778503907136,836.9742529668309
0.00015873361110102093,867.2731954018542
0.00016496480740980205,898.6649621262176
0.0001714406135851971,931.1884725836273
0.00017817063195457305,964.8840261939
0.00018516484179121546,999.7933410641775
0.000192433614111598,1035.959546323132
0.00019998772705352857,1073.4271495883465
0.0002078383818579757,1112.2421643842936
0.00021599721947827182,1152.4521152952655
0.0002244763378413224,1194.1060871055433
0.0002332883097864157,1237.2548251883425
0.00024244620170823283,1281.9507924048708
0.0002519635929317015,1328.2482184343642
0.0002618545958474233,1376.2030264215714
0.0002721338768375308,1425.8728257295995
0.0002828166780230032,1477.3170877818807
0.0002939188398646886,1530.5970818488117
0.0003054568246515432,1585.7759944143932
0.00031744774091091926,1642.91899446591
0.00032990936877709396,1702.0932331947504
0.00034286018635565856,1763.3679548369985
0.00035631939712285854,1826.814336895888
0.000370306958400514,1892.5055922848285
0.00038484361094874304,1960.517068083252
0.0003999509097203664,2030.9260690351969
0.00041565125582259895,2103.812114499827
0.00043196792973341727,2179.256906356295
0.0004489251258218605,2257.3443546675326
0.0004665479882234472,2338.1606441840927
0.000484862648123908,2421.7938322407563
0.000503896262506515,2508.334180057272
0.0005236770544204653,2597.8741614218616
0.0005442343548300266,2690.508366747913
0.0005655986461065005,2786.333696967833
0.0005878016072274912,2885.448923414722
0.0006108761607505036,2987.9548977194136
0.0006348565216305217,3093.9545661858883
0.0006597782479539537,3203.552605422162
0.0006856782936641739,3316.855807614992
0.0007125950633568407,3433.9726688629858
0.0007405684692262436,3555.013413165751
0.0007696399902471156,3680.0899892934044
0.0007998527336796708,3809.3151002366985
0.000831251498989063,3942.8029016692117
0.0008638828442740447,4080.668665125981
0.000897795155303332,4223.028524254587
0.0009330387172620361,4369.999609025381
0.0009696657893145519,4521.698329016153
0.001007730682094461,4678.241163912941
0.0010472898382363582,4839.74436334443
0.0010884019160690055,5006.323014555719
0.0011311278765939214,5178.091735998735
0.001175531073878369,5355.162327676719
0.0012216773489967915,5537.644197081162
0.0012696351276599736,5725.644655001897
0.0013194755216767058,5919.267224451784
0.0013712724343984,6118.612618870849
0.0014251026703029975,6323.776742618675
0.0014810460488806749,6534.850217599083
0.0015391855229902056,6751.918786210754
0.001599607301861487,6975.060140769168
0.0016624009789266115,7204.3454159514895
0.0017276596646690358,7439.837504144706
0.0017954801246878305,7681.589444565809
0.0018659629231817451,7929.645733137154
0.001939212572065829,8184.039214994022
0.0020153376859417325,8444.791710761458
0.002094451143151469,8711.912655416887
0.002176670253153458,8985.396030814643
0.002262116930469025,9265.222443465906
0.002350917875457286,9551.356118922851
0.002443204762186487,9843.744659230575
0.0025391144336803463,10142.318347071028
0.002638789104828933,10446.985279953546
0.002742376573264949,10757.634191729901
0.0028500304385181063,11074.131737667174
0.0029619103297725525,11396.321155170739
0.0030781821425650787,11724.023137451388
0.003199018284775064,12057.030556182735
0.0033245979322709396,12395.110700599822
0.003455107294592217,12738.00248873845
0.0035907398910610534,13085.41308169676
0.0037316968377327513,13437.021168743448
0.0038781871456107214,13792.469273916062
0.0040304280305680515,14151.36634174391
0.00418864523543527,14513.286129973505
0.004353073364731888,14877.758729652734
0.00452395623253805,15244.27959905133
0.004701547224022131,15612.305838027181
0.004886109671160325,15981.256809420496
0.005077917243205399,16350.504743288571
0.005277254352483535,16719.333588406338
0.005484416576121017,17086.977324896736
0.005699711094326071,17452.688074828075
0.005923457145875801,17815.75447230526
0.006155986501483508,18175.39922549909
0.006397643955748424,18530.533147740032
0.0066487878384172625,18879.908746224017
0.0069097905457156435,19222.303445010857
0.007181039092537346,19556.595466710387
0.007462935686310132,19881.64931524211
0.007755898323389004,20196.298661271823
0.00806036140886134,20499.353459927046
0.008376776400682916,20789.537197815847
0.008705612479099857,21065.351610691094
0.009047357242349292,21325.241393673507
0.00940251742967013,21567.574285760747
0.009771619672696168,21790.653257451817
0.010155211276345676,21992.757266804507
0.010553861030365234,22172.050824753045
0.010968160052731372,22326.686883300845
0.011398722666160517,22454.763046505057
0.011846187309026826,22554.297892748826
0.012311217482038896,22623.346276049473
0.012794502732078732,22659.824313804926
0.013296759674662111,22661.66257955261
0.013818733056536317,22626.812322913203
0.014361196859990781,22553.12920661245
0.014924955450518284,22438.63349295125
0.015510844769528393,22281.32422995685
0.016119733573881575,22079.313395354577
0.01675252472408214,21830.93940848322
0.017410156523040152,21534.519921789226
0.018093604107387147,21188.75230064293
0.01880388089340914,20792.54620355211
0.019542040079740527,20345.08397585862
0.02030917620904734,19846.12849964897
0.021106426791015535,19295.684661117586
0.021934973989050584,18694.432202550895
0.02279604637318978,18043.675851676795
0.023690920741826323,17345.251676283817
0.02462092401494623,16601.951078394774
0.02558743520168586,15817.227502406176
0.02659188744512693,14995.417906017403
0.027635770147361564,14141.83089449597
0.028720631177978267,13262.56508685974
0.029848079169243254,12364.587376079378
0.03101978590138095,11455.729840190019
0.03223748878149028,10544.407653472716
0.0335029934197723,9639.490502189501
0.03481817630688963,8750.602654604416
0.03618498759642746,7886.896354594394
0.037605453996581675,7057.59480877619
0.03908168177536263,6271.467747229408
0.04061585988376978,5535.665341611346
0.04221026320156896,4857.997423944234
0.04386725591048496,4243.661449672117
0.0455892949998106,3695.5374611006364
0.047378933909631396,3215.177929828802
0.049238826317067365,2801.563404144848
0.05117173007114603,2455.7867450521117
0.05318051128214196,2177.10338620356
0.05526814857144601,1960.421982230689
0.057437737488265785,1799.217639249504
0.0596924950997073,1687.8536967682178
0.0620357647610427,1622.085854612432
0.06447102107323864,1597.651178709429
0.06700187503509585,1610.2522730603953
0.06963207939763882,1654.1230488563676
0.0723655342286965,1721.7385842755716
0.07520629269592405,1802.1172748260642
0.07815856707684081,1881.3406589408653
0.08122673500479707,1943.1464033803031
0.08441534596012978,1971.7441063668405
0.0877291280161335,1953.1620277421348
0.09117299484984914,1878.119377840316
0.09475205302806537,1744.840019094903
0.09847160957933764,1559.49645146519
0.1023371798632519,1337.1891294839356
0.10635449574860109,1100.0474496779223
0.11052951411260206,873.0482153667102
0.1148684256737553,677.6917793122072
0.1193776641714435,526.9947744113323
0.1240639159058831,424.7487635844813
0.12893412965257148,368.45386117859675
0.13399552696593373,353.08110805293103
0.1392556128874462,372.8880368334366
0.14472218707411338,420.0491447247462
0.15040335536380234,480.9346231065176
0.15630754179458153,533.9293532832743
0.16244350109588662,554.15064754752
0.16882033167003618,525.3739722354097
0.17544748908334581,450.7179124042606
0.1823348000868439,351.8044346423397
0.189492477187382,257.31913345880486
0.19693113379074215,189.2872846689776
0.20466179993919872,155.52391935364741
0.21269593866686892,153.22332002281652
0.22104546299710207,174.7369238889983
0.22972275360711503,205.634141311588
0.23874067718606454,223.25321531526586
0.2481126055137766,209.61701507778514
0.25785243528842716,168.38363072033843
0.26797460873256895,122.46925092706135
0.27849413500806414,92.62989550837302
0.28942661247167484,85.02681613098423
0.3007882518043098,94.65989331409267
0.31259590004822796,107.39925638294334
0.324867065587837,105.93158304081068
0.3376199441111335,86.81287367340865
0.35087344559027084,65.05980477264417
0.36464722232127456,54.538745790851884
0.37896169806447155,56.37496375380916
0.3938380983288488,61.06897859200507
0.4092984818452433,57.12522319180091
0.4253657732750382,45.74233044102195
0.44206379720285277,37.693464634855914
0.45941731346364734,37.045435759588834
0.47745205385661277,37.9464920277997
0.4961947603002895,33.891063988562436
0.5156732244854959,27.985299433544863
0.5359163290848509,25.74778687127698
0.556954090580013,25.478412881825463
0.5788177037701272,22.95554162790015
0.6015395880274836,19.732959406894036
0.6251534353689703,18.496863555077205
0.6496942604146115,17.412307439528316
0.6751984523072497,15.522206604372963
0.7017038286703824,13.980130405954235
0.7292496916841444,12.707782828358292
0.7578768863625915,11.619699520705165
0.7876278611187046,10.652518938042325
0.8185467307069019,9.759055525792174
0.850679341636415,8.910412236922031
0.8840733401525058,8.10934243540125
0.9187782428863317,7.363460526181315
0.9548455102782278,6.677246878463586
0.9923286228832539,6.052610395717253
1.0312831606721837,5.489419905946231
1.0717668854455022,4.983927786124879
1.1138398264826193,4.528664134686594
1.1575643695533022,4.116979710554329
1.2030053494233226,3.743300927274795
1.2502301459914542,3.4029480332241118
1.299308784200415,3.092034833201406
1.3503140378698726,2.8079290706607702
1.4033215376054824,2.548716309716852
1.4584098829439835,2.3125617206370284
1.5156607589006013,2.097705401984809
1.575159057091621,1.902470144542042
1.6369930016117014,1.7252393050787276
1.7012542798525885,1.5643727126413525
1.7680381784572046,1.4183417948174142
1.8374437246107238,1.285765392797319
1.9095738328780953,1.165394889732106
1.9845354578058014,1.0561009828213013
2.0624397525140905,0.9568706328169446
2.143402233514853,0.8668000033354869
2.227542951999554,0.7850654537626214
2.314986671851158,0.7109147071114096
2.405863054644063,0.643660984057892
2.5003068519063225,0.5826774806659756
2.598458104929248,0.5273909300005585
2.7004623524206774,0.4772779591056265
2.806470846309834,0.431862299728557
2.916640776023701,0.3907106877856904
3.031135501567576,0.35342906848902567
3.150124795755327,0.3196590810293288
3.2737850959485697,0.2890747192871815
3.4022997656780634,0.2613796803815628
3.5358593665351745,0.23630479538261748
3.6746619407366854,0.21360558718135084
3.8189133047818515,0.1930600444220266
3.968827354637162,0.17446668119599526
4.1246263829013445,0.15764273798428793
4.286541408420921,0.14242228201930449
4.4548125188449825,0.12865466626683317
4.629689226627261,0.11620315147354537
4.811430839003257,0.1049436453415931
5.000306842491082,0.09476349322272863
5.196597302486189,0.08556047122889007
5.400593278542364,0.07724190362522548
5.612597255954967,0.06972378694538169
5.8329235942862,0.06292999072841371
6.06189899349756,0.05679153118663797
6.29986297838068,0.051245912535942746
6.547168402004727,0.046236523156432896
6.804181968927091,0.041712088440621284
7.071284778942991,0.03762617493574003
7.348872892180382,0.033936739794468554
7.637357916378006,0.03060572054100156
7.937167617217536,0.027598662612774463
8.248746552614573,0.02488438421514613
8.572556731909314,0.022434669906434994
8.909078300934132,0.020223992112446472
9.258810253973934,0.018229258828289168
9.622271173675122,0.016429592620547665
9.999999999999984,0.01480611822195046
