k [1/Mpc],P(k) [Mpc^3]
0.0001,360.40112303035886
0.00010392556829367125,375.6266180592854
0.00010800523745162529,391.4948777842081
0.00011224505680853065,408.0329654671047
0.00011665131316981963,425.269078762823
0.00012123054013376525,443.23261342710623
0.00012598952777950273,461.95420950943185
0.00013093533273536104,481.46578263126827
0.00013607528864243335,501.80055179125617
0.00014141701702890234,522.9931178089563
0.00014696843861124463,545.0795280466612
0.00015273778503907136,568.0973364395271
0.00015873361110102093,592.0856623496157
0.00016496480740980205,617.0852462885713
0.0001714406135851971,643.1385226679383
0.00017817063195457305,670.2896758382469
0.00018516484179121546,698.5847015114423
0.000192433614111598,728.0714988043461
0.00019998772705352857,758.7999315637352
0.0002078383818579757,790.8219163423641
0.00021599721947827182,824.1914992680202
0.0002244763378413224,858.9649205593169
0.0002332883097864157,895.2007283567214
0.00024244620170823283,932.9598631337702
0.0002519635929317015,972.3057555411149
0.0002618545958474233,1013.304398567994
0.0002721338768375308,1056.0243496927797
0.0002828166780230032,1100.5369183576838
0.0002939188398646886,1146.916303177717
0.0003054568246515432,1195.2397056027705
0.00031744774091091926,1245.5874188881742
0.00032990936877709396,1298.042823336517
0.00034286018635565856,1352.6925797723216
0.00035631939712285854,1409.626754106604
0.000370306958400514,1468.9389059089376
0.00038484361094874304,1530.7262630046177
0.0003999509097203664,1595.0896868608247
0.00041565125582259895,1662.1338666647841
0.00043196792973341727,1731.967521593597
0.0004489251258218605,1804.7034883813183
0.0004665479882234472,1880.4589116910813
0.000484862648123908,1959.35511787077
0.000503896262506515,2041.517763150346
0.0005236770544204653,2127.077198282786
0.0005442343548300266,2216.1686199107567
0.0005655986461065005,2308.932227019068
0.0005878016072274912,2405.5129301152365
0.0006108761607505036,2506.0602989906192
0.0006348565216305217,2610.7291976758956
0.0006597782479539537,2719.679987118512
0.0006856782936641739,2833.078676046884
0.0007125950633568407,2951.096738542031
0.0007405684692262436,3073.910884056892
0.0007696399902471156,3201.7036663984495
0.0007998527336796708,3334.663275287298
0.000831251498989063,3472.9837700564085
0.0008638828442740447,3616.8652227833627
0.000897795155303332,3766.513302556154
0.0009330387172620361,3922.1398627135404
0.0009696657893145519,4083.962456732425
0.001007730682094461,4252.204334829079
0.0010472898382363582,4427.094910355407
0.0010884019160690055,4608.86894269627
0.0011311278765939214,4797.767165411117
0.001175531073878369,4994.035430000218
0.0012216773489967915,5197.923939514557
0.0012696351276599736,5409.688441586043
0.0013194755216767058,5629.589045600192
0.0013712724343984,5857.8906477651035
0.0014251026703029975,6094.862241055816
0.0014810460488806749,6340.775086639646
0.0015391855229902056,6595.904316987388
0.001599607301861487,6860.527551113869
0.0016624009789266115,7134.924773796757
0.0017276596646690358,7419.3778369624
0.0017954801246878305,7714.166942254415
0.0018659629231817451,8019.572714986528
0.001939212572065829,8335.874716209479
0.0020153376859417325,8663.35035795396
0.002094451143151469,9002.275107561505
0.002176670253153458,9352.917831249466
0.002262116930469025,9715.542314266346
0.002350917875457286,10090.406203953775
0.002443204762186487,10477.758629446234
0.0025391144336803463,10877.840864205955
0.002638789104828933,11290.881220514586
0.002742376573264949,11717.09522274512
0.0028500304385181063,12156.684985353813
0.0029619103297725525,12609.835053392939
0.0030781821425650787,13076.713608699203
0.003199018284775064,13557.46740193733
0.0033245979322709396,14052.220160835275
0.003455107294592217,14561.07217097181
0.0035907398910610534,15084.092471704933
0.0037316968377327513,15621.321491309032
0.0038781871456107214,16172.766009897163
0.0040304280305680515,16738.39502819298
0.00418864523543527,17318.141266132032
0.004353073364731888,17911.889856631
0.00452395623253805,18519.481059428403
0.004701547224022131,19140.707071332974
0.004886109671160325,19775.30432459171
0.005077917243205399,20422.957800900178
0.005277254352483535,21083.290309139506
0.005484416576121017,21755.862649556366
0.005699711094326071,22440.161470798143
0.005923457145875801,23135.56270911233
0.006155986501483508,23841.36554197523
0.006397643955748424,24556.85375706584
0.0066487878384172625,25281.299487994755
0.0069097905457156435,26013.856425064067
0.007181039092537346,26753.32315843874
0.007462935686310132,27498.310156672105
0.007755898323389004,28247.40891672499
0.00806036140886134,28999.246104945483
0.008376776400682916,29752.37037057605
0.008705612479099857,30505.240202755056
0.009047357242349292,31256.226789931006
0.00940251742967013,32003.538101802875
0.009771619672696168,32745.11359588169
0.010155211276345676,33478.76228459076
0.010553861030365234,34202.11356613162
0.010968160052731372,34912.638677854135
0.011398722666160517,35607.688716532524
0.011846187309026826,36284.441223915885
0.012311217482038896,36939.969980150876
0.012794502732078732,37571.19742071911
0.013296759674662111,38174.895841645106
0.013818733056536317,38747.750515078915
0.014361196859990781,39286.219049886546
0.014924955450518284,39786.67047735062
0.015510844769528393,40245.387703005705
0.016119733573881575,40658.53147369361
0.01675252472408214,41022.28809478055
0.017410156523040152,41332.77503552483
0.018093604107387147,41586.14789220239
0.01880388089340914,41778.669969888026
0.019542040079740527,41906.66610625605
0.02030917620904734,41966.69038154645
0.021106426791015535,41955.548370527235
0.021934973989050584,41870.35650703955
0.02279604637318978,41708.66283100846
0.023690920741826323,41468.57999449
0.02462092401494623,41148.75116370201
0.02558743520168586,40748.59891641988
0.02659188744512693,40268.40557403085
0.027635770147361564,39709.16023039443
0.028720631177978267,39073.2308632673
0.029848079169243254,38363.822329379145
0.03101978590138095,37585.26911245423
0.03223748878149028,36743.5209672982
0.0335029934197723,35845.032693396446
0.03481817630688963,34898.211245827
0.03618498759642746,33912.41107910542
0.037605453996581675,32897.365938973744
0.03908168177536263,31864.437174827424
0.04061585988376978,30824.578121803483
0.04221026320156896,29790.290621415523
0.04386725591048496,28775.040358104303
0.0455892949998106,27790.252479841816
0.047378933909631396,26843.84679562334
0.049238826317067365,25942.099865629927
0.05117173007114603,25094.341055801277
0.05318051128214196,24314.154535887144
0.05526814857144601,23611.08584749558
0.057437737488265785,22978.839699364325
0.0596924950997073,22406.76077913872
0.0620357647610427,21884.694612871528
0.06447102107323864,21402.834916126394
0.06700187503509585,20948.524047248415
0.06963207939763882,20506.694454432076
0.0723655342286965,20060.03138041197
0.07520629269592405,19588.981915427565
0.07815856707684081,19067.046700285595
0.08122673500479707,18469.513367010164
0.08441534596012978,17781.22552940437
0.0877291280161335,16999.020716168186
0.09117299484984914,16132.729310106604
0.09475205302806537,15206.257153065722
0.09847160957933764,14251.135488888043
0.1023371798632519,13301.933190088661
0.10635449574860109,12393.873095424055
0.11052951411260206,11561.761649448063
0.1148684256737553,10836.148878452424
0.1193776641714435,10238.14614439342
0.1240639159058831,9771.905996450983
0.12893412965257148,9419.053945913249
0.13399552696593373,9142.135584503512
0.1392556128874462,8891.247412835752
0.14472218707411338,8614.319116939676
0.15040335536380234,8269.213278080264
0.15630754179458153,7835.547137413079
0.16244350109588662,7320.464181418078
0.16882033167003618,6756.1592798527045
0.17544748908334581,6194.349285602809
0.1823348000868439,5695.396125499825
0.189492477187382,5303.346857234063
0.19693113379074215,5022.361680869811
0.20466179993919872,4820.48058501975
0.21269593866686892,4648.131645317604
0.22104546299710207,4449.147813308225
0.22972275360711503,4185.704562437639
0.23874067718606454,3867.059513041829
0.2481126055137766,3538.854251124179
0.25785243528842716,3252.7489455943364
0.26797460873256895,3037.852922059896
0.27849413500806414,2883.2057094229563
0.28942661247167484,2747.185376510966
0.3007882518043098,2585.8546494593675
0.31259590004822796,2392.8574492509274
0.324867065587837,2196.1763991878593
0.3376199441111335,2030.3376756437483
0.35087344559027084,1904.3737165666762
0.36464722232127456,1794.4928237946676
0.37896169806447155,1675.2063108095465
0.3938380983288488,1545.5166627425235
0.4092984818452433,1426.4071299229583
0.4253657732750382,1328.4136155233607
0.44206379720285277,1241.5487339263016
0.45941731346364734,1152.1551336837401
0.47745205385661277,1063.5944942243113
0.4961947603002895,985.3621025157098
0.5156732244854959,916.0451587538217
0.5359163290848509,848.7127809986517
0.556954090580013,784.021293772518
0.5788177037701272,725.7537313026301
0.6015395880274836,672.1232212153542
0.6251534353689703,620.9659870137563
0.6496942604146115,573.7125849509488
0.6751984523072497,530.3032292093841
0.7017038286703824,489.5461224597951
0.7292496916841444,451.82458433953997
0.7578768863625915,417.01624063700746
0.7876278611187046,384.66641727177364
0.8185467307069019,354.6417159027417
0.850679341636415,326.81091215294447
0.8840733401525058,301.0449873030814
0.9187782428863317,277.2177614924162
0.9548455102782278,255.19969996275734
0.9923286228832539,234.8586343399137
1.0312831606721837,216.07111821850856
1.0717668854455022,198.72260715305276
1.1138398264826193,182.70681774600237
1.1575643695533022,167.92546286964503
1.2030053494233226,154.28901357519
1.2502301459914542,141.71446699875725
1.299308784200415,130.12423855205512
1.3503140378698726,119.44586894475619
1.4033215376054824,109.61173563888872
1.4584098829439835,100.5585559592821
1.5156607589006013,92.22714536929405
1.575159057091621,84.56251387304223
1.6369930016117014,77.51361649299896
1.7012542798525885,71.03309310605889
1.7680381784572046,65.07703097166839
1.8374437246107238,59.60476257200223
1.9095738328780953,54.57860953782248
1.9845354578058014,49.9636654559976
2.0624397525140905,45.727607801362986
2.143402233514853,41.84052065562596
2.227542951999554,38.274712489803164
2.314986671851158,35.00456272013466
2.405863054644063,32.00639984962012
2.5003068519063225,29.258363648063153
2.598458104929248,26.74027471617842
2.7004623524206774,24.433512516815842
2.806470846309834,22.32090114762222
2.916640776023701,20.386604045453637
3.031135501567576,18.61602536440355
3.150124795755327,16.99571780934141
3.2737850959485697,15.513296710123763
3.4022997656780634,14.157356388138789
3.5358593665351745,12.917396703531349
3.6746619407366854,11.783759621184489
3.8189133047818515,10.747564874483833
3.968827354637162,9.800649942912589
4.1246263829013445,8.935514185376888
4.286541408420921,8.145266541616296
4.4548125188449825,7.423578874221972
4.629689226627261,6.76464207751628
4.811430839003257,6.163125068924021
5.000306842491082,5.614136849077686
5.196597302486189,5.113190892951032
5.400593278542364,4.656172910554475
5.612597255954967,4.239311731973125
5.8329235942862,3.859151653179854
6.06189899349756,3.5125268772499827
6.29986297838068,3.1965378335162615
6.547168402004727,2.908529105417541
6.804181968927091,2.646069936709366
7.071284778942991,2.4069359282839375
7.348872892180382,2.1890920038156723
7.637357916378006,1.9906767138404036
7.937167617217536,1.8099872769964054
8.248746552614573,1.645466483857459
8.572556731909314,1.4956912454284916
8.909078300934132,1.3593613403743152
9.258810253973934,1.2352890428033425
9.622271173675122,1.122389921190565
9.999999999999984,1.0196750298094828
