k [1/Mpc],P(k) [Mpc^3]
0.0001,57.02121752870185
0.00010392556829367125,59.259039117453895
0.00010800523745162529,61.58463788639916
0.00011224505680853065,64.0014486385487
0.00011665131316981963,66.51304087191288
0.00012123054013376525,69.12312574694288
0.00012598952777950273,71.83555965272056
0.00013093533273536104,74.65434674503865
0.00013607528864243335,77.58364466750642
0.00014141701702890234,80.62777274231944
0.00014696843861124463,83.79121854962018
0.00015273778503907136,87.07864422831423
0.00015873361110102093,90.49489355669627
0.00016496480740980205,94.04499913480284
0.0001714406135851971,97.73418791969513
0.00017817063195457305,101.5678813207246
0.00018516484179121546,105.55170678623568
0.000192433614111598,109.69151285055577
0.00019998772705352857,113.9933816587079
0.0002078383818579757,118.46363061941364
0.00021599721947827182,123.10880924210471
0.0002244763378413224,127.93571158377713
0.0002332883097864157,132.95139131046795
0.00024244620170823283,138.16317022023014
0.0002519635929317015,143.57864976215762
0.0002618545958474233,149.2057232395896
0.0002721338768375308,155.05258669294147
0.0002828166780230032,161.12774433841741
0.0002939188398646886,167.44000447018206
0.0003054568246515432,173.99850306968446
0.00031744774091091926,180.81272158032263
0.00032990936877709396,187.8924999553667
0.00034286018635565856,195.24804486665863
0.00035631939712285854,202.8899237865189
0.000370306958400514,210.82908885989443
0.00038484361094874304,219.07689705685127
0.0003999509097203664,227.64512335620205
0.00041565125582259895,236.54597347330915
0.00043196792973341727,245.79206581858585
0.0004489251258218605,255.39645680077413
0.0004665479882234472,265.37267476248036
0.000484862648123908,275.73473720378814
0.000503896262506515,286.4971634597425
0.0005236770544204653,297.674954719916
0.0005442343548300266,309.2836113245697
0.0005655986461065005,321.3391692869935
0.0005878016072274912,333.85819646930105
0.0006108761607505036,346.85782562373987
0.0006348565216305217,360.35575834118646
0.0006597782479539537,374.3702754779265
0.0006856782936641739,388.92025939806337
0.0007125950633568407,404.0251371046945
0.0007405684692262436,419.70493899656236
0.0007696399902471156,435.98034015951976
0.0007998527336796708,452.8726735863357
0.000831251498989063,470.40394207326835
0.0008638828442740447,488.5967488394534
0.000897795155303332,507.4743412770194
0.0009330387172620361,527.0606350504206
0.0009696657893145519,547.3801665976937
0.001007730682094461,568.4581669415127
0.0010472898382363582,590.3205170762519
0.0010884019160690055,612.993762414468
0.0011311278765939214,636.5051192535175
0.001175531073878369,660.8823232390947
0.0012216773489967915,686.1537600564474
0.0012696351276599736,712.3484215307926
0.0013194755216767058,739.495877970711
0.0013712724343984,767.6263148417352
0.0014251026703029975,796.7702761517343
0.0014810460488806749,826.9588048654575
0.0015391855229902056,858.2234179777287
0.001599607301861487,890.5959995656399
0.0016624009789266115,924.1088917640392
0.0017276596646690358,958.7946003511724
0.0017954801246878305,994.6858674351
0.0018659629231817451,1031.8156170230652
0.001939212572065829,1070.21664214906
0.0020153376859417325,1109.9218396589868
0.002094451143151469,1150.9639377897415
0.002176670253153458,1193.3754598214316
0.002262116930469025,1237.18869452146
0.002350917875457286,1282.435171674607
0.002443204762186487,1329.1459465353353
0.0025391144336803463,1377.3513539916912
0.002638789104828933,1427.0808341260117
0.002742376573264949,1478.3629627519254
0.0028500304385181063,1531.2247288343756
0.0029619103297725525,1585.6917841327897
0.0030781821425650787,1641.788267948676
0.003199018284775064,1699.536455335646
0.0033245979322709396,1758.956867532118
0.003455107294592217,1820.067468611738
0.0035907398910610534,1882.8837543451134
0.0037316968377327513,1947.4185910322533
0.0038781871456107214,2013.6815323841324
0.0040304280305680515,2081.6791248542863
0.00418864523543527,2151.413920559944
0.004353073364731888,2222.8843663775115
0.00452395623253805,2296.0847881775235
0.004701547224022131,2371.0040772559946
0.004886109671160325,2447.626359461779
0.005077917243205399,2525.9300315839564
0.005277254352483535,2605.887284412446
0.005484416576121017,2687.4645328393262
0.005699711094326071,2770.620980596891
0.005923457145875801,2855.309120634151
0.006155986501483508,2941.472132124733
0.006397643955748424,3029.041646914176
0.0066487878384172625,3117.9419323467046
0.0069097905457156435,3208.09637293228
0.007181039092537346,3299.4245015132933
0.007462935686310132,3391.8262198031493
0.007755898323389004,3485.163843700758
0.00806036140886134,3579.2846957684956
0.008376776400682916,3674.037509882037
0.008705612479099857,3769.2701147622415
0.009047357242349292,3864.8197631255093
0.00940251742967013,3960.51108221667
0.009771619672696168,4056.1574230991487
0.010155211276345676,4151.548711143423
0.010553861030365234,4246.449715298016
0.010968160052731372,4340.6108001007715
0.011398722666160517,4433.761356329839
0.011846187309026826,4525.6157783494855
0.012311217482038896,4615.8713775787655
0.012794502732078732,4704.205876357562
0.013296759674662111,4790.2841600289785
0.013818733056536317,4873.748234550479
0.014361196859990781,4954.224765215806
0.014924955450518284,5031.325627119338
0.015510844769528393,5104.640575240964
0.016119733573881575,5173.75143870663
0.01675252472408214,5238.221146208797
0.017410156523040152,5297.600815020158
0.018093604107387147,5351.439343030772
0.01880388089340914,5399.276069379977
0.019542040079740527,5440.656275190347
0.02030917620904734,5475.1285928221005
0.021106426791015535,5502.249198207044
0.021934973989050584,5521.595616456257
0.02279604637318978,5532.768656156551
0.023690920741826323,5535.400727944872
0.02462092401494623,5529.170358552248
0.02558743520168586,5513.810796279165
0.02659188744512693,5489.109053314758
0.027635770147361564,5454.9442751088645
0.028720631177978267,5411.268603209218
0.029848079169243254,5358.1290532543435
0.03101978590138095,5295.709469510388
0.03223748878149028,5224.266667894678
0.0335029934197723,5144.233681039862
0.03481817630688963,5056.166480755318
0.03618498759642746,4960.710561266209
0.037605453996581675,4858.713104791973
0.03908168177536263,4751.0617367546265
0.04061585988376978,4638.85322917084
0.04221026320156896,4523.351636950983
0.04386725591048496,4405.756828730777
0.0455892949998106,4287.210277384181
0.047378933909631396,4168.773404226233
0.049238826317067365,4051.68777115124
0.05117173007114603,3937.4457463438835
0.05318051128214196,3827.379290272632
0.05526814857144601,3722.507570628049
0.057437737488265785,3623.652592419044
0.0596924950997073,3531.0918992893226
0.0620357647610427,3444.37525059448
0.06447102107323864,3362.870156235143
0.06700187503509585,3285.4863500286137
0.06963207939763882,3211.0200237683757
0.0723655342286965,3137.9470858184313
0.07520629269592405,3064.6413698624547
0.07815856707684081,2989.212196532163
0.08122673500479707,2909.5988829579182
0.08441534596012978,2823.5209457111623
0.0877291280161335,2729.458853126855
0.09117299484984914,2626.6321235132077
0.09475205302806537,2514.806054990473
0.09847160957933764,2395.0290128938404
0.1023371798632519,2269.749322534696
0.10635449574860109,2142.5732382722804
0.11052951411260206,2017.5656264426157
0.1148684256737553,1898.8590023534557
0.1193776641714435,1790.1731148015303
0.1240639159058831,1694.4895396832578
0.12893412965257148,1613.2200104951453
0.13399552696593373,1545.7264961165556
0.1392556128874462,1489.0046889385205
0.14472218707411338,1438.2354463576803
0.15040335536380234,1387.9863126509392
0.15630754179458153,1333.332343585711
0.16244350109588662,1270.8827405006825
0.16882033167003618,1199.7125931445144
0.17544748908334581,1121.8763127231327
0.1823348000868439,1041.9926267533833
0.189492477187382,966.0787151775255
0.19693113379074215,899.9294871562029
0.20466179993919872,846.7585036170965
0.21269593866686892,805.2092569316547
0.22104546299710207,770.1964150425734
0.22972275360711503,735.7643809573378
0.23874067718606454,696.9112113130703
0.2481126055137766,651.6404917311529
0.25785243528842716,602.9892949716826
0.26797460873256895,556.8275017949969
0.27849413500806414,517.8591279504653
0.28942661247167484,487.1494660629795
0.3007882518043098,461.43035830633613
0.31259590004822796,435.75211189231476
0.324867065587837,406.96390890218953
0.3376199441111335,376.32095761776213
0.35087344559027084,347.8889391669706
0.36464722232127456,324.21516913453706
0.37896169806447155,304.3071000792187
0.3938380983288488,285.02357952453553
0.4092984818452433,264.65937353662986
0.4253657732750382,244.59982613913132
0.44206379720285277,226.97031625995027
0.45941731346364734,211.63870645617976
0.47745205385661277,196.99667851922771
0.4961947603002895,182.3445684205632
0.5156732244854959,168.69893344147007
0.5359163290848509,156.554476578171
0.556954090580013,145.24500341350304
0.5788177037701272,134.32476195507613
0.6015395880274836,124.19476915767102
0.6251534353689703,114.97372643331559
0.6496942604146115,106.29644077296427
0.6751984523072497,98.15777036638393
0.7017038286703824,90.68006472565317
0.7292496916841444,83.71985560352361
0.7578768863625915,77.228539883309
0.7876278611187046,71.23576363185474
0.8185467307069019,65.67979305789041
0.850679341636415,60.52647345790259
0.8840733401525058,55.750998430204135
0.9187782428863317,51.32955097256843
0.9548455102782278,47.23932362881567
0.9923286228832539,43.45847608471263
1.0312831606721837,39.96553471896745
1.0717668854455022,36.73988475485932
1.1138398264826193,33.762267344883426
1.1575643695533022,31.014708132571624
1.2030053494233226,28.48044022622077
1.2502301459914542,26.143848706110045
1.299308784200415,23.990472723893667
1.3503140378698726,22.006846324716193
1.4033215376054824,20.180401305466393
1.4584098829439835,18.499416481024383
1.5156607589006013,16.95296895470701
1.575159057091621,15.530879538901454
1.6369930016117014,14.223656471540709
1.7012542798525885,13.022477639821018
1.7680381784572046,11.919152915055697
1.8374437246107238,10.906083321270534
1.9095738328780953,9.97622240145324
1.9845354578058014,9.123038741196169
2.0624397525140905,8.34048135042586
2.143402233514853,7.6229490714531565
2.227542951999554,6.965260017922331
2.314986671851158,6.362622660935337
2.405863054644063,5.810608586458392
2.5003068519063225,5.3051255427335855
2.598458104929248,4.8423943007612404
2.7004623524206774,4.4189279281533915
2.806470846309834,4.031510693441762
2.916640776023701,3.6771782913487527
3.031135501567576,3.3531992448553125
3.150124795755327,3.057056739489418
3.2737850959485697,2.786433535106809
3.4022997656780634,2.539197648476685
3.5358593665351745,2.313388311983404
3.6746619407366854,2.1072029160909675
3.8189133047818515,1.9189848102762164
3.968827354637162,1.7472118457905004
4.1246263829013445,1.5904862396770756
4.286541408420921,1.447524960588929
4.4548125188449825,1.3171507191744913
4.629689226627261,1.1982836245692476
4.811430839003257,1.0899333089936907
5.000306842491082,0.9911916539150233
5.196597302486189,0.901226591768764
5.400593278542364,0.8192760274312729
5.612597255954967,0.7446421652679664
5.8329235942862,0.6766862744442419
6.06189899349756,0.6148238380297314
6.29986297838068,0.5585201066208102
6.547168402004727,0.507286035306726
6.804181968927091,0.4606745052359095
7.071284778942991,0.4182768425218824
7.348872892180382,0.3797196014158749
7.637357916378006,0.34466145598455167
7.937167617217536,0.3127906104629348
8.248746552614573,0.28382246054859817
8.572556731909314,0.2574972848126106
8.909078300934132,0.23357812270062972
9.258810253973934,0.21184886883283016
9.622271173675122,0.1921126895908226
9.999999999999984,0.17419013683345266
