k [1/Mpc],P(k) [Mpc^3]
0.0001,1715.1411780996718
0.00010392556829367125,1792.5204864346772
0.00010800523745162529,1873.3681988141134
0.00011224505680853065,1957.836904461125
0.00011665131316981963,2046.0856291977311
0.00012123054013376525,2138.2799066558177
0.00012598952777950273,2234.592176182558
0.00013093533273536104,2335.2018610079276
0.00013607528864243335,2440.295511668774
0.00014141701702890234,2550.067304582361
0.00014696843861124463,2664.7189791605915
0.00015273778503907136,2784.460286035445
0.00015873361110102093,2909.5091892174287
0.00016496480740980205,3040.0917906433083
0.0001714406135851971,3176.4430094876743
0.00017817063195457305,3318.8064047960042
0.00018516484179121546,3467.4345125938253
0.000192433614111598,3622.5892395499245
0.00019998772705352857,3784.5413015715435
0.0002078383818579757,3953.5711421501005
0.00021599721947827182,4129.96866339714
0.0002244763378413224,4314.033145686507
0.0002332883097864157,4506.074109890018
0.00024244620170823283,4706.410429713855
0.0002519635929317015,4915.371101783595
0.0002618545958474233,5133.295080405726
0.0002721338768375308,5360.530347478114
0.0002828166780230032,5597.435243549716
0.0002939188398646886,5844.37704307194
0.0003054568246515432,6101.732251331354
0.00031744774091091926,6369.887190054627
0.00032990936877709396,6649.236418840459
0.00034286018635565856,6940.183910545143
0.00035631939712285854,7243.141499334863
0.000370306958400514,7558.528059251275
0.00038484361094874304,7886.77063689713
0.0003999509097203664,8228.301715829059
0.00041565125582259895,8583.560158814247
0.00043196792973341727,8952.990436249887
0.0004489251258218605,9337.04059338894
0.0004665479882234472,9736.163375407743
0.000484862648123908,10150.813117917061
0.000503896262506515,10581.44546716859
0.0005236770544204653,11028.516615603783
0.0005442343548300266,11492.478484145793
0.0005655986461065005,11973.78075339094
0.0005878016072274912,12472.866860384042
0.0006108761607505036,12990.171628385291
0.0006348565216305217,13526.121711456428
0.0006597782479539537,14081.126714745811
0.0006856782936641739,14655.581454956076
0.0007125950633568407,15249.861961212646
0.0007405684692262436,15864.318615768767
0.0007696399902471156,16499.279307661058
0.0007998527336796708,17155.037004329595
0.000831251498989063,17831.849625451207
0.0008638828442740447,18529.939596719643
0.000897795155303332,19249.48255697994
0.0009330387172620361,19990.61141468352
0.0009696657893145519,20753.40950988553
0.001007730682094461,21537.906101600533
0.0010472898382363582,22344.074942291605
0.0010884019160690055,23171.819425965867
0.0011311278765939214,24020.97554163345
0.001175531073878369,24891.300584403674
0.0012216773489967915,25782.459548101102
0.0012696351276599736,26694.03977118862
0.0013194755216767058,27625.583053151062
0.0013712724343984,28576.571154650486
0.0014251026703029975,29546.388384193495
0.0014810460488806749,30534.287716898267
0.0015391855229902056,31539.41686529209
0.001599607301861487,32560.805697523945
0.0016624009789266115,33597.36183821705
0.0017276596646690358,34647.887918495115
0.0017954801246878305,35711.10625977511
0.0018659629231817451,36785.63893875014
0.001939212572065829,37869.99701544913
0.0020153376859417325,38962.579365424615
0.002094451143151469,40061.67788296799
0.002176670253153458,41165.51606010153
0.002262116930469025,42272.23508736284
0.002350917875457286,43379.87264596334
0.002443204762186487,44486.36024094523
0.0025391144336803463,45589.535366893186
0.002638789104828933,46687.212307154696
0.002742376573264949,47777.18540443403
0.0028500304385181063,48857.165642703054
0.0029619103297725525,49924.7308024565
0.0030781821425650787,50977.374332272506
0.003199018284775064,52012.574837818036
0.0033245979322709396,53027.828258583264
0.003455107294592217,54020.54409128366
0.0035907398910610534,54987.637025852644
0.0037316968377327513,55925.74039084363
0.0038781871456107214,56832.067208186396
0.0040304280305680515,57705.37829450502
0.00418864523543527,58544.60884269482
0.004353073364731888,59346.22123462359
0.00452395623253805,60104.53277026543
0.004701547224022131,60814.33982450369
0.004886109671160325,61473.13272270456
0.005077917243205399,62079.22576875951
0.005277254352483535,62631.09166988958
0.005484416576121017,63127.37501051821
0.005699711094326071,63566.73657411928
0.005923457145875801,63946.942709370735
0.006155986501483508,64265.42024871148
0.006397643955748424,64519.67058472132
0.0066487878384172625,64707.204704339674
0.0069097905457156435,64825.70930927775
0.007181039092537346,64873.26840862666
0.007462935686310132,64848.336962242196
0.007755898323389004,64749.66456065807
0.00806036140886134,64576.44644331144
0.008376776400682916,64328.17015973145
0.008705612479099857,64003.89026962036
0.009047357242349292,63602.08670504326
0.00940251742967013,63121.648506178346
0.009771619672696168,62562.65400033243
0.010155211276345676,61925.87377691321
0.010553861030365234,61212.022560942954
0.010968160052731372,60421.36317631033
0.011398722666160517,59554.46529708265
0.011846187309026826,58612.2367221025
0.012311217482038896,57595.96583263537
0.012794502732078732,56507.489794813584
0.013296759674662111,55349.42856642245
0.013818733056536317,54124.88144415158
0.014361196859990781,52837.088299833515
0.014924955450518284,51489.404604934534
0.015510844769528393,50085.691497110165
0.016119733573881575,48630.83765286258
0.01675252472408214,47130.25883632009
0.017410156523040152,45589.92334681762
0.018093604107387147,44016.55454756709
0.01880388089340914,42417.00900862578
0.019542040079740527,40798.93714125701
0.02030917620904734,39170.27451558148
0.021106426791015535,37539.168850062066
0.021934973989050584,35915.14332081711
0.02279604637318978,34307.18816181275
0.023690920741826323,32723.688448454097
0.02462092401494623,31172.371433897675
0.02558743520168586,29660.805132471083
0.02659188744512693,28200.560486238675
0.027635770147361564,26802.750665441967
0.028720631177978267,25473.216783007334
0.029848079169243254,24211.344977675766
0.03101978590138095,23015.876928950554
0.03223748878149028,21887.513137682825
0.0335029934197723,20827.609668554396
0.03481817630688963,19836.6889439972
0.03618498759642746,18914.43644406753
0.037605453996581675,18059.755640425392
0.03908168177536263,17264.711289964056
0.04061585988376978,16515.947229502595
0.04221026320156896,15801.303065954202
0.04386725591048496,15108.193488030676
0.0455892949998106,14425.353613213681
0.047378933909631396,13744.613838998708
0.049238826317067365,13061.257305757686
0.05117173007114603,12371.851067229823
0.05318051128214196,11672.027295411122
0.05526814857144601,10958.162058673432
0.057437737488265785,10237.412733403284
0.0596924950997073,9532.786891407437
0.0620357647610427,8861.206267327929
0.06447102107323864,8223.944444323173
0.06700187503509585,7622.577109646128
0.06963207939763882,7076.456151547512
0.0723655342286965,6601.368420354055
0.07520629269592405,6193.834582868972
0.07815856707684081,5843.47891734414
0.08122673500479707,5534.28394164093
0.08441534596012978,5253.29345371842
0.0877291280161335,4987.819834145776
0.09117299484984914,4713.746678677131
0.09475205302806537,4425.2788562258165
0.09847160957933764,4134.11811358538
0.1023371798632519,3840.4351322429893
0.10635449574860109,3543.337015236256
0.11052951411260206,3258.6607941473294
0.1148684256737553,3010.083938465819
0.1193776641714435,2795.655656115145
0.1240639159058831,2607.9105936051064
0.12893412965257148,2441.620039122768
0.13399552696593373,2290.8443624730953
0.1392556128874462,2138.27946060027
0.14472218707411338,1985.67818767335
0.15040335536380234,1837.1536561838075
0.15630754179458153,1697.6795772265923
0.16244350109588662,1570.8595448686713
0.16882033167003618,1455.7234732423728
0.17544748908334581,1352.5407001661863
0.1823348000868439,1255.799959701666
0.189492477187382,1163.140302854806
0.19693113379074215,1075.9732875707027
0.20466179993919872,994.3557533805649
0.21269593866686892,919.8048925775691
0.22104546299710207,850.6477270638085
0.22972275360711503,786.7614508379046
0.23874067718606454,726.8518030898205
0.2481126055137766,671.1472926649581
0.25785243528842716,619.6526956893289
0.26797460873256895,572.0021436785321
0.27849413500806414,527.8308550330551
0.28942661247167484,486.8628817327248
0.3007882518043098,448.87474656897353
0.31259590004822796,413.75167589067485
0.324867065587837,381.26788626785464
0.3376199441111335,351.2026015624312
0.35087344559027084,323.4002160254529
0.36464722232127456,297.7050427181996
0.37896169806447155,273.9662773828709
0.3938380983288488,252.04104649756596
0.4092984818452433,231.80634732222504
0.4253657732750382,213.1380785207833
0.44206379720285277,195.93543072714326
0.45941731346364734,180.07106533509213
0.47745205385661277,165.4532270020267
0.4961947603002895,151.9877084731311
0.5156732244854959,139.58435007011897
0.5359163290848509,128.15663799482576
0.556954090580013,117.6316611995759
0.5788177037701272,107.94017936836292
0.6015395880274836,99.01914105004926
0.6251534353689703,90.81180941858075
0.6496942604146115,83.26637830210267
0.6751984523072497,76.33295836999112
0.7017038286703824,69.96390265872398
0.7292496916841444,64.11532321321886
0.7578768863625915,58.74374636969865
0.7876278611187046,53.80849491862195
0.8185467307069019,49.27578953525887
0.850679341636415,45.114564098974725
0.8840733401525058,41.29592994642635
0.9187782428863317,37.79304900500965
0.9548455102782278,34.58100158400345
0.9923286228832539,31.636433868978827
1.0312831606721837,28.937525759881126
1.0717668854455022,26.464188905133966
1.1138398264826193,24.197946147045908
1.1575643695533022,22.121804642817
1.2030053494233226,20.22014195307951
1.2502301459914542,18.478634280894536
1.299308784200415,16.884130002249755
1.3503140378698726,15.424524784919978
1.4033215376054824,14.08868071548095
1.4584098829439835,12.866352078853964
1.5156607589006013,11.748117292266256
1.575159057091621,10.725319628024558
1.6369930016117014,9.79000328743066
1.7012542798525885,8.934855923028044
1.7680381784572046,8.153158585051575
1.8374437246107238,7.43873938128426
1.9095738328780953,6.785929150616519
1.9845354578058014,6.189517153360574
2.0624397525140905,5.644721207650562
2.143402233514853,5.147155675185283
2.227542951999554,4.6927994513330935
2.314986671851158,4.277966454917634
2.405863054644063,3.8992777462747745
2.5003068519063225,3.5536354189958717
2.598458104929248,3.2382017923187423
2.7004623524206774,2.9503784430801194
2.806470846309834,2.6877864491060808
2.916640776023701,2.4482482359478994
3.031135501567576,2.229772271502633
3.150124795755327,2.030538424024809
3.2737850959485697,1.848880723529749
3.4022997656780634,1.683274316860312
3.5358593665351745,1.5323238425541705
3.6746619407366854,1.3947526900193417
3.8189133047818515,1.2693916834678711
3.968827354637162,1.1551702270356672
4.1246263829013445,1.0511102672889372
4.286541408420921,0.9563185459692445
4.4548125188449825,0.8699793458378854
4.629689226627261,0.7913478957975936
4.811430839003257,0.7197450491507427
5.000306842491082,0.6545512714040107
5.196597302486189,0.5952007189754525
5.400593278542364,0.5411766586716495
5.612597255954967,0.4920072944465368
5.8329235942862,0.4472619055778849
6.06189899349756,0.40654705815279574
6.29986297838068,0.3695036514171168
6.547168402004727,0.33580417844820704
6.804181968927091,0.3051499885435995
7.071284778942991,0.2772687803386827
7.348872892180382,0.25191230508719664
7.637357916378006,0.22885425228885087
7.937167617217536,0.20788835694520613
8.248746552614573,0.18882665698639392
8.572556731909314,0.17149788971850402
8.909078300934132,0.15574602673418847
9.258810253973934,0.14142897123883064
9.622271173675122,0.1284174150255097
9.999999999999984,0.11659357842056572
