k [1/Mpc],P(k) [Mpc^3]
0.0001,1042.6566222600145
0.00010392556829367125,1080.4094152669427
0.00010800523745162529,1119.5247641942312
0.00011224505680853065,1160.0513707958012
0.00011665131316981963,1202.0396910038396
0.00012123054013376525,1245.5419032279096
0.00012598952777950273,1290.6117765466656
0.00013093533273536104,1337.3048753007524
0.00013607528864243335,1385.6787379328582
0.00014141701702890234,1435.792968615414
0.00014696843861124463,1487.7092078873227
0.00015273778503907136,1541.49102244302
0.00015873361110102093,1597.2040603878618
0.00016496480740980205,1654.916131088766
0.0001714406135851971,1714.697205885198
0.00017817063195457305,1776.6195716376844
0.00018516484179121546,1840.7578129742392
0.000192433614111598,1907.1889090224133
0.00019998772705352857,1975.9923111020503
0.0002078383818579757,2047.2498913049237
0.00021599721947827182,2121.046123182273
0.0002244763378413224,2197.4679054758817
0.0002332883097864157,2276.6046033312005
0.00024244620170823283,2358.5483065563176
0.0002519635929317015,2443.3937049602787
0.0002618545958474233,2531.238295741799
0.0002721338768375308,2622.182297036196
0.0002828166780230032,2716.328579170276
0.0002939188398646886,2813.782912704251
0.0003054568246515432,2914.6534762794886
0.00031744774091091926,3019.051165781776
0.00032990936877709396,3127.089771131911
0.00034286018635565856,3238.8858280186464
0.00035631939712285854,3354.5588385507817
0.000370306958400514,3474.230534706591
0.00038484361094874304,3598.025030303882
0.0003999509097203664,3726.0692221281006
0.00041565125582259895,3858.4923947250636
0.00043196792973341727,3995.426562673812
0.0004489251258218605,4137.005818665226
0.0004665479882234472,4283.366142072888
0.000484862648123908,4434.6458924070175
0.000503896262506515,4590.984937504698
0.0005236770544204653,4752.525129684819
0.0005442343548300266,4919.409995877533
0.0005655986461065005,5091.7842172450855
0.0005878016072274912,5269.794079298366
0.0006108761607505036,5453.585990148515
0.0006348565216305217,5643.306867245252
0.0006597782479539537,5839.10407112688
0.0006856782936641739,6041.12415114624
0.0007125950633568407,6249.513719269461
0.0007405684692262436,6464.417950985172
0.0007696399902471156,6685.9804120552035
0.0007998527336796708,6914.342893696631
0.000831251498989063,7149.6421102830145
0.0008638828442740447,7392.011685005985
0.000897795155303332,7641.580732545493
0.0009330387172620361,7898.472747686712
0.0009696657893145519,8162.80622067745
0.001007730682094461,8434.689754061936
0.0010472898382363582,8714.223972615484
0.0010884019160690055,9001.500588748166
0.0011311278765939214,9296.599664774918
0.001175531073878369,9599.59140842632
0.0012216773489967915,9910.530617760185
0.0012696351276599736,10229.457408352166
0.0013194755216767058,10556.399174699052
0.0013712724343984,10891.369449716572
0.0014251026703029975,11234.366884316145
0.0014810460488806749,11585.366456823016
0.0015391855229902056,11944.31822971182
0.001599607301861487,12311.151986363542
0.0016624009789266115,12685.773566236137
0.0017276596646690358,13068.065885107417
0.0017954801246878305,13457.886390210651
0.0018659629231817451,13855.06482902307
0.001939212572065829,14259.404054311446
0.0020153376859417325,14670.673678320323
0.002094451143151469,15088.61184876583
0.002176670253153458,15512.924457716048
0.002262116930469025,15943.281481434953
0.002350917875457286,16379.319387217807
0.002443204762186487,16820.636193624676
0.0025391144336803463,17266.791840125792
0.002638789104828933,17717.308750009746
0.002742376573264949,18171.667145776293
0.0028500304385181063,18629.308608791038
0.0029619103297725525,19089.63392281084
0.0030781821425650787,19552.00262163206
0.003199018284775064,20015.733277540527
0.0033245979322709396,20480.093372403637
0.003455107294592217,20944.3071535219
0.0035907398910610534,21407.55330769552
0.0037316968377327513,21868.961684246806
0.0038781871456107214,22327.622777091405
0.0040304280305680515,22782.587129608663
0.00418864523543527,23232.868251295342
0.004353073364731888,23677.402153190884
0.00452395623253805,24114.98789083812
0.004701547224022131,24544.3857794674
0.004886109671160325,24964.530599357622
0.005077917243205399,25374.497840665852
0.005277254352483535,25773.173584221302
0.005484416576121017,26158.742655794267
0.005699711094326071,26529.197054037635
0.005923457145875801,26882.797956571696
0.006155986501483508,27218.14241085779
0.006397643955748424,27533.848354699734
0.0066487878384172625,27828.525894159244
0.0069097905457156435,28100.795444633408
0.007181039092537346,28349.12128548034
0.007462935686310132,28571.686374389352
0.007755898323389004,28766.663660413993
0.00806036140886134,28932.15305740951
0.008376776400682916,29066.246827609477
0.008705612479099857,29167.04072115792
0.009047357242349292,29232.541296784017
0.00940251742967013,29260.829701826035
0.009771619672696168,29250.014923026356
0.010155211276345676,29198.274595466108
0.010553861030365234,29103.85658285791
0.010968160052731372,28964.78033864237
0.011398722666160517,28779.19234035263
0.011846187309026826,28545.285853761918
0.012311217482038896,28261.288174771373
0.012794502732078732,27925.720217530874
0.013296759674662111,27537.12609478264
0.013818733056536317,27094.368850924213
0.014361196859990781,26596.547481064372
0.014924955450518284,26042.810445423518
0.015510844769528393,25432.881833976022
0.016119733573881575,24766.729692016157
0.01675252472408214,24044.8490212529
0.017410156523040152,23268.39536924893
0.018093604107387147,22438.83368235103
0.01880388089340914,21558.541198102033
0.019542040079740527,20630.512305915454
0.02030917620904734,19658.468265165862
0.021106426791015535,18647.180765381247
0.021934973989050584,17602.104048759316
0.02279604637318978,16529.69133553495
0.023690920741826323,15437.312154482439
0.02462092401494623,14333.077992012284
0.02558743520168586,13225.850806144415
0.02659188744512693,12125.318394333843
0.027635770147361564,11041.37934660181
0.028720631177978267,9984.17838809987
0.029848079169243254,8964.109001977487
0.03101978590138095,7990.446630617802
0.03223748878149028,7072.902207150837
0.0335029934197723,6219.723433780389
0.03481817630688963,5437.158789137478
0.03618498759642746,4731.482483702061
0.037605453996581675,4105.078488062438
0.03908168177536263,3558.9515853146872
0.04061585988376978,3092.379933454555
0.04221026320156896,2701.798176428172
0.04386725591048496,2384.5663963819043
0.0455892949998106,2136.7857045600335
0.047378933909631396,1953.4122717186694
0.049238826317067365,1830.0267266257492
0.05117173007114603,1761.8018786672683
0.05318051128214196,1740.6574215309781
0.05526814857144601,1760.796050531558
0.057437737488265785,1817.1944204632773
0.0596924950997073,1903.860381826989
0.0620357647610427,2009.083009507229
0.06447102107323864,2117.676488087437
0.06700187503509585,2210.988709930082
0.06963207939763882,2269.451895959833
0.0723655342286965,2275.2543865215152
0.07520629269592405,2216.4053228725193
0.07815856707684081,2088.103954536109
0.08122673500479707,1894.188695206225
0.08441534596012978,1647.7168231778385
0.0877291280161335,1371.2425358199362
0.09117299484984914,1095.565170007135
0.09475205302806537,849.1637519376592
0.09847160957933764,651.2880430029516
0.1023371798632519,509.5895479725116
0.10635449574860109,422.7103595383156
0.11052951411260206,385.27911125824136
0.1148684256737553,390.4946283646084
0.1193776641714435,430.4157119506514
0.1240639159058831,493.9684284832783
0.12893412965257148,562.2393735733552
0.13399552696593373,607.8954658337132
0.1392556128874462,605.4110240676138
0.14472218707411338,546.9852878011219
0.15040335536380234,448.0886517781512
0.15630754179458153,337.9028624950682
0.16244350109588662,245.1353795629123
0.16882033167003618,187.0804856839777
0.17544748908334581,165.53895195950122
0.1823348000868439,173.9054663100852
0.189492477187382,201.69197131498615
0.19693113379074215,229.75481673115542
0.20466179993919872,235.13281005377735
0.21269593866686892,207.8439133065635
0.22104546299710207,160.9919531638188
0.22972275360711503,119.04909455982194
0.23874067718606454,96.6498273358167
0.2481126055137766,94.9781663838397
0.25785243528842716,105.51511598530027
0.26797460873256895,112.63169458518381
0.27849413500806414,103.98418235295756
0.28942661247167484,83.40319352535631
0.3007882518043098,65.69525915357404
0.31259590004822796,59.16464336792152
0.324867065587837,61.19354580527622
0.3376199441111335,62.09188323123332
0.35087344559027084,55.3344584787133
0.36464722232127456,45.43934349888261
0.37896169806447155,39.906871104699704
0.3938380983288488,39.15309384666242
0.4092984818452433,37.807415579564676
0.4253657732750382,33.190552030101664
0.44206379720285277,28.72979396613186
0.45941731346364734,26.865187650313736
0.47745205385661277,25.44674827251007
0.4961947603002895,22.702391178519406
0.5156732244854959,20.220584026079216
0.5359163290848509,18.813725288102983
0.556954090580013,17.253588441424363
0.5788177037701272,15.459428462539895
0.6015395880274836,14.12661141180559
0.6251534353689703,12.980152133671877
0.6496942604146115,11.869836181325566
0.6751984523072497,10.804632492715161
0.7017038286703824,9.803220922414479
0.7292496916841444,8.877982425717072
0.7578768863625915,8.035994988897846
0.7876278611187046,7.279923079736852
0.8185467307069019,6.6041565269060944
0.850679341636415,5.997377476199693
0.8840733401525058,5.4498835864589585
0.9187782428863317,4.953626272363075
0.9548455102782278,4.5019200498263245
0.9923286228832539,4.089307145381693
1.0312831606721837,3.7122958917315434
1.0717668854455022,3.3683814520914237
1.1138398264826193,3.055147015518983
1.1575643695533022,2.770265914199553
1.2030053494233226,2.5115141909387027
1.2502301459914542,2.2767456843290086
1.299308784200415,2.0637664860488285
1.3503140378698726,1.8705215945554616
1.4033215376054824,1.6951573072356088
1.4584098829439835,1.5360005332521227
1.5156607589006013,1.3915402773918375
1.575159057091621,1.2604205582567638
1.6369930016117014,1.1414385779379155
1.7012542798525885,1.0335010854916575
1.7680381784572046,0.9356094513110402
1.8374437246107238,0.8468519400107448
1.9095738328780953,0.7663965303595089
1.9845354578058014,0.6934823739034196
2.0624397525140905,0.6274134591069498
2.143402233514853,0.5675566299498775
2.227542951999554,0.5133363270851015
2.314986671851158,0.4642294458704723
2.405863054644063,0.4197606484386227
2.5003068519063225,0.37949816237969813
2.598458104929248,0.34304982897992675
2.7004623524206774,0.3100594503066776
2.806470846309834,0.2802035512281854
2.916640776023701,0.25318842973641553
3.031135501567576,0.22874747592673597
3.150124795755327,0.20663877780504145
3.2737850959485697,0.18664282425523068
3.4022997656780634,0.16856043024110665
3.5358593665351745,0.15221089043629593
3.6746619407366854,0.13743029708431576
3.8189133047818515,0.12406999067745318
3.968827354637162,0.11199511819751647
4.1246263829013445,0.10108343929600387
4.286541408420921,0.09122418640559789
4.4548125188449825,0.08231700384032337
4.629689226627261,0.0742709833889253
4.811430839003257,0.06700379598694972
5.000306842491082,0.060440901671281175
5.196597302486189,0.05451480391529252
5.400593278542364,0.049164391204871864
5.612597255954967,0.04433434208004166
5.8329235942862,0.03997458445064838
6.06189899349756,0.03603979743866962
6.29986297838068,0.03248896698089128
6.547168402004727,0.029284992523219137
6.804181968927091,0.02639431899509419
7.071284778942991,0.023786602185052286
7.348872892180382,0.021434404921821124
7.637357916378006,0.01931291788779141
7.937167617217536,0.0173997132453484
8.248746552614573,0.01567452221684951
8.572556731909314,0.014119029524130735
8.909078300934132,0.012716687085652899
9.258810253973934,0.011452546745784626
9.622271173675122,0.010313114606772929
9.999999999999984,0.009286203463825147
