k [1/Mpc],P(k) [Mpc^3]
0.0001,255.5514229522863
0.00010392556829367125,265.5806262312005
0.00010800523745162529,276.00319993298086
0.00011224505680853065,286.8345668500264
0.00011665131316981963,298.0907515334595
0.00012123054013376525,309.78837134133585
0.00012598952777950273,321.9446726281555
0.00013093533273536104,334.5775828109609
0.00013607528864243335,347.7057557077084
0.00014141701702890234,361.34857623226293
0.00014696843861124463,375.526161612968
0.00015273778503907136,390.2593915583645
0.00015873361110102093,405.5699581405217
0.00016496480740980205,421.4804079662709
0.0001714406135851971,438.01416622007673
0.00017817063195457305,455.19555450779154
0.00018516484179121546,473.04982010891365
0.000192433614111598,491.6031833111535
0.00019998772705352857,510.88286273785553
0.0002078383818579757,530.9171201997259
0.00021599721947827182,551.7353084424926
0.0002244763378413224,573.3679155969995
0.0002332883097864157,595.8466002647715
0.00024244620170823283,619.2041914381333
0.0002519635929317015,643.4747423779846
0.0002618545958474233,668.6936010878478
0.0002721338768375308,694.8974513416216
0.0002828166780230032,722.124369217235
0.0002939188398646886,750.413873336188
0.0003054568246515432,779.8069775684012
0.00031744774091091926,810.3462280339699
0.00032990936877709396,842.0756604775719
0.00034286018635565856,875.04091792569
0.00035631939712285854,909.2893587731631
0.000370306958400514,944.8701296855588
0.00038484361094874304,981.8341968449985
0.0003999509097203664,1020.2342938981984
0.00041565125582259895,1060.1250244733037
0.00043196792973341727,1101.5629663834507
0.0004489251258218605,1144.6066981125034
0.0004665479882234472,1189.3169067290094
0.000484862648123908,1235.7563893092795
0.000503896262506515,1283.990122415935
0.0005236770544204653,1334.0853580227008
0.0005442343548300266,1386.1115596069742
0.0005655986461065005,1440.1405752558264
0.0005878016072274912,1496.2466907733874
0.0006108761607505036,1554.5066703701661
0.0006348565216305217,1614.9998755258187
0.0006597782479539537,1677.808136676594
0.0006856782936641739,1743.0159232632827
0.0007125950633568407,1810.7104318175343
0.0007405684692262436,1880.9815472218488
0.0007696399902471156,1953.9220377207398
0.0007998527336796708,2029.6274302207125
0.000831251498989063,2108.1961107800225
0.0008638828442740447,2189.7294238259765
0.000897795155303332,2274.3314065912145
0.0009330387172620361,2362.1091257645185
0.0009696657893145519,2453.172633999944
0.001007730682094461,2547.6349674057046
0.0010472898382363582,2645.6122752875867
0.0010884019160690055,2747.223276775649
0.0011311278765939214,2852.5896345576202
0.001175531073878369,2961.8358924159406
0.0012216773489967915,3075.089174186647
0.0012696351276599736,3192.47958081846
0.0013194755216767058,3314.1394139905997
0.0013712724343984,3440.2033904763025
0.0014251026703029975,3570.8087783358137
0.0014810460488806749,3706.094674684139
0.0015391855229902056,3846.202564392956
0.001599607301861487,3991.2753123715984
0.0016624009789266115,4141.456946275984
0.0017276596646690358,4296.8932592625715
0.0017954801246878305,4457.730838513932
0.0018659629231817451,4624.117482816402
0.001939212572065829,4796.20109717769
0.0020153376859417325,4974.128657338385
0.002094451143151469,5158.047258899021
0.002176670253153458,5348.1023478824445
0.002262116930469025,5544.438069002254
0.002350917875457286,5747.196988018751
0.002443204762186487,5956.518523685224
0.0025391144336803463,6172.539736398977
0.002638789104828933,6395.392678328175
0.002742376573264949,6625.204055070294
0.0028500304385181063,6862.096024484729
0.0029619103297725525,7106.184185849869
0.0030781821425650787,7357.578097854786
0.003199018284775064,7616.378670265552
0.0033245979322709396,7882.676480733607
0.003455107294592217,8156.553221222135
0.0035907398910610534,8438.078871064215
0.0037316968377327513,8727.312034334878
0.0038781871456107214,9024.298241926355
0.0040304280305680515,9329.066983467397
0.00418864523543527,9641.633255731309
0.004353073364731888,9961.993437290463
0.00452395623253805,10290.12506324923
0.004701547224022131,10625.986167506477
0.004886109671160325,10969.509710432056
0.005077917243205399,11320.606565169495
0.005277254352483535,11679.162538717672
0.005484416576121017,12045.036703239984
0.005699711094326071,12418.058957980242
0.005923457145875801,12798.009784429458
0.006155986501483508,13184.631798590539
0.006397643955748424,13577.660653738609
0.0066487878384172625,13976.844059442117
0.0069097905457156435,14381.893129632112
0.007181039092537346,14792.354492081031
0.007462935686310132,15207.65426548619
0.007755898323389004,15627.21630408828
0.00806036140886134,16050.556053468265
0.008376776400682916,16477.171236122667
0.008705612479099857,16906.40926516062
0.009047357242349292,17337.468752433895
0.00940251742967013,17769.514343811494
0.009771619672696168,18201.769320704025
0.010155211276345676,18633.444789782254
0.010553861030365234,19063.640409980246
0.010968160052731372,19491.310695492135
0.011398722666160517,19915.348237679424
0.011846187309026826,20334.567022905594
0.012311217482038896,20747.71847238157
0.012794502732078732,21153.49576805924
0.013296759674662111,21550.523338391693
0.013818733056536317,21937.378918422786
0.014361196859990781,22312.569438589562
0.014924955450518284,22674.544201829514
0.015510844769528393,23021.70649522737
0.016119733573881575,23352.37173436841
0.01675252472408214,23664.824330326894
0.017410156523040152,23957.316942267786
0.018093604107387147,24228.076442702662
0.01880388089340914,24475.336854972258
0.019542040079740527,24697.32276760721
0.02030917620904734,24892.285020236504
0.021106426791015535,25058.52948325051
0.021934973989050584,25194.432966958393
0.02279604637318978,25298.462392046295
0.023690920741826323,25369.23357797117
0.02462092401494623,25405.508492249828
0.02558743520168586,25406.2307159261
0.02659188744512693,25370.63143232487
0.027635770147361564,25298.1350433112
0.028720631177978267,25188.540384811415
0.029848079169243254,25042.011866621084
0.03101978590138095,24858.97685124781
0.03223748878149028,24640.444943408285
0.0335029934197723,24387.703364894485
0.03481817630688963,24102.53864299163
0.03618498759642746,23787.378025134367
0.037605453996581675,23444.798449503556
0.03908168177536263,23077.865804151537
0.04061585988376978,22689.84285153417
0.04221026320156896,22284.41482906415
0.04386725591048496,21866.29266565157
0.0455892949998106,21440.000280994216
0.047378933909631396,21008.197693566177
0.049238826317067365,20572.159384092407
0.05117173007114603,20134.158320015482
0.05318051128214196,19700.524743195052
0.05526814857144601,19277.961531477857
0.057437737488265785,18868.24127214717
0.0596924950997073,18467.67748383247
0.0620357647610427,18072.441401170858
0.06447102107323864,17678.5040738076
0.06700187503509585,17281.98135231704
0.06963207939763882,16878.72046316433
0.0723655342286965,16464.60505029046
0.07520629269592405,16035.714692980406
0.07815856707684081,15588.350699579
0.08122673500479707,15118.129877945801
0.08441534596012978,14621.294010057063
0.0877291280161335,14098.065328606488
0.09117299484984914,13551.336058209137
0.09475205302806537,12986.72512387823
0.09847160957933764,12413.075366586414
0.1023371798632519,11841.702987160952
0.10635449574860109,11285.4854324897
0.11052951411260206,10755.556612536177
0.1148684256737553,10260.712969453964
0.1193776641714435,9806.822433938349
0.1240639159058831,9395.822060509556
0.12893412965257148,9022.875143941488
0.13399552696593373,8676.298016942586
0.1392556128874462,8338.597086726428
0.14472218707411338,7992.951692983193
0.15040335536380234,7628.800052420351
0.15630754179458153,7244.318317763711
0.16244350109588662,6846.061452170547
0.16882033167003618,6446.772291978959
0.17544748908334581,6061.711371274254
0.1823348000868439,5704.253972127249
0.189492477187382,5383.51129486076
0.19693113379074215,5101.952433900971
0.20466179993919872,4850.42365583989
0.21269593866686892,4609.59379106074
0.22104546299710207,4363.5362262403405
0.22972275360711503,4108.529618293058
0.23874067718606454,3849.514370752271
0.2481126055137766,3598.4750979338874
0.25785243528842716,3369.008203088741
0.26797460873256895,3165.1337076879518
0.27849413500806414,2981.2857123281465
0.28942661247167484,2806.4332395796273
0.3007882518043098,2631.6037687690127
0.31259590004822796,2457.728912364067
0.324867065587837,2291.819815181368
0.3376199441111335,2140.431263720065
0.35087344559027084,2002.8166834580663
0.36464722232127456,1873.5208037781106
0.37896169806447155,1747.7719359626199
0.3938380983288488,1627.1386198696582
0.4092984818452433,1514.6636638108887
0.4253657732750382,1411.2211824065507
0.44206379720285277,1314.2028591126573
0.45941731346364734,1221.8239593674778
0.47745205385661277,1134.978575208325
0.4961947603002895,1054.2722067043705
0.5156732244854959,979.0564664920904
0.5359163290848509,908.2828200989604
0.556954090580013,842.1284685384115
0.5788177037701272,780.5496083501444
0.6015395880274836,723.0546118586532
0.6251534353689703,669.3997710693535
0.6496942604146115,619.417838342625
0.6751984523072497,572.8917588666876
0.7017038286703824,529.589076022088
0.7292496916841444,489.321154051678
0.7578768863625915,451.895626560004
0.7876278611187046,417.1435520716624
0.8185467307069019,384.90395571595644
0.850679341636415,354.9977493412503
0.8840733401525058,327.2653841253814
0.9187782428863317,301.56551602524314
0.9548455102782278,277.7642265856209
0.9923286228832539,255.73481833386583
1.0312831606721837,235.35757782732102
1.0717668854455022,216.51888182911918
1.1138398264826193,199.11098895582785
1.1575643695533022,183.03283566741968
1.2030053494233226,168.18976834433414
1.2502301459914542,154.4932050310957
1.299308784200415,141.86031887364538
1.3503140378698726,130.21380942560378
1.4033215376054824,119.48152251193396
1.4584098829439835,109.5960930048694
1.5156607589006013,100.4946742614299
1.575159057091621,92.11867901512134
1.6369930016117014,84.41350523677073
1.7012542798525885,77.32824024895403
1.7680381784572046,70.81553385376034
1.8374437246107238,64.83140119393397
1.9095738328780953,59.335007980538364
1.9845354578058014,54.28846713413404
2.0624397525140905,49.65664870945673
2.143402233514853,45.406998399273085
2.227542951999554,41.50936172099515
2.314986671851158,37.9358222500899
2.405863054644063,34.6605496044265
2.5003068519063225,31.65965480790127
2.598458104929248,28.911039191761855
2.7004623524206774,26.39428116207563
2.806470846309834,24.090532089276874
2.916640776023701,21.982403332603237
3.031135501567576,20.053860332971375
3.150124795755327,18.29012310730154
3.2737850959485697,16.677572232154407
3.4022997656780634,15.203665371945535
3.5358593665351745,13.856857671827825
3.6746619407366854,12.626526755315272
3.8189133047818515,11.502902917791467
3.968827354637162,10.477002513312037
4.1246263829013445,9.540567047099918
4.286541408420921,8.686010756112818
4.4548125188449825,7.906368674963854
4.629689226627261,7.195248098573352
4.811430839003257,6.546783519529594
5.000306842491082,5.955593701823463
5.196597302486189,5.4167440215076
5.400593278542364,4.925712105562281
5.612597255954967,4.478354730562052
5.8329235942862,4.070877215309652
6.06189899349756,3.699805132919139
6.29986297838068,3.361958117081531
6.547168402004727,3.054425993436581
6.804181968927091,2.774546668397485
7.071284778942991,2.519885683900321
7.348872892180382,2.288217382382695
7.637357916378006,2.07750690893273
7.937167617217536,1.8858938480738587
8.248746552614573,1.7116791364403292
8.572556731909314,1.5533116236463493
8.909078300934132,1.4093755220720408
9.258810253973934,1.2785789605030573
9.622271173675122,1.159744658817952
9.999999999999984,1.051799549648099
