k [1/Mpc],P(k) [Mpc^3]
0.0001,133.16978817744774
0.00010392556829367125,138.39542473486378
0.00010800523745162529,143.8259494033362
0.00011224505680853065,149.46937405659978
0.00011665131316981963,155.33402212803958
0.00012123054013376525,161.42854029274227
0.00012598952777950273,167.76191088118
0.00013093533273536104,174.34346395207882
0.00013607528864243335,181.1828845729085
0.00014141701702890234,188.29023068682287
0.00014696843861124463,195.67595224310392
0.00015273778503907136,203.35090813091037
0.00015873361110102093,211.32637662538758
0.00016496480740980205,219.61405703661725
0.0001714406135851971,228.2260913620649
0.00017817063195457305,237.17508945183368
0.00018516484179121546,246.47414859809126
0.000192433614111598,256.1368693554757
0.00019998772705352857,266.177365459344
0.0002078383818579757,276.61028358871596
0.00021599721947827182,287.4508246975652
0.0002244763378413224,298.714747356198
0.0002332883097864157,310.41840224483093
0.00024244620170823283,322.5787581110951
0.0002519635929317015,335.21342401537964
0.0002618545958474233,348.3406705524881
0.0002721338768375308,361.97943279822874
0.0002828166780230032,376.1493452362927
0.0002939188398646886,390.87075874778776
0.0003054568246515432,406.16474491224676
0.00031744774091091926,422.05314865320497
0.00032990936877709396,438.55860833931627
0.00034286018635565856,455.7045855979433
0.00035631939712285854,473.51538296336145
0.000370306958400514,492.0161270509188
0.00038484361094874304,511.23283721288857
0.0003999509097203664,531.1924538649098
0.00041565125582259895,551.9228659604124
0.00043196792973341727,573.4529305938308
0.0004489251258218605,595.8123891605575
0.0004665479882234472,619.0319667863104
0.000484862648123908,643.1434524795252
0.000503896262506515,668.1797373340462
0.0005236770544204653,694.1748215148866
0.0005442343548300266,721.1637009416747
0.0005655986461065005,749.1824430185709
0.0005878016072274912,778.2682726450392
0.0006108761607505036,808.4595593901892
0.0006348565216305217,839.7958868343818
0.0006597782479539537,872.3179948201239
0.0006856782936641739,906.0678028969
0.0007125950633568407,941.0884750862084
0.0007405684692262436,977.4242952454425
0.0007696399902471156,1015.1207978587298
0.0007998527336796708,1054.224736825494
0.000831251498989063,1094.784046871172
0.0008638828442740447,1136.8479504517832
0.000897795155303332,1180.4667697029736
0.0009330387172620361,1225.6920318592502
0.0009696657893145519,1272.5764360614805
0.001007730682094461,1321.1736547579403
0.0010472898382363582,1371.5385544691226
0.0010884019160690055,1423.7269632790626
0.0011311278765939214,1477.7956915962131
0.001175531073878369,1533.8025346419179
0.0012216773489967915,1591.805765131038
0.0012696351276599736,1651.8644922546418
0.0013194755216767058,1714.0384014128158
0.0013712724343984,1778.3875872466447
0.0014251026703029975,1844.9727540324752
0.0014810460488806749,1913.8546377542436
0.0015391855229902056,1985.0942206441896
0.001599607301861487,2058.7524601383193
0.0016624009789266115,2134.8897801585745
0.0017276596646690358,2213.5664622825198
0.0017954801246878305,2294.841840884762
0.0018659629231817451,2378.7743552217303
0.001939212572065829,2465.4215693909846
0.0020153376859417325,2554.839414474354
0.002094451143151469,2647.0825261255986
0.002176670253153458,2742.203215098681
0.002262116930469025,2840.2511205113256
0.002350917875457286,2941.273688174874
0.002443204762186487,3045.3154326893896
0.0025391144336803463,3152.418004933461
0.002638789104828933,3262.619061911416
0.002742376573264949,3375.951240485532
0.0028500304385181063,3492.4430417204153
0.0029619103297725525,3612.117950646119
0.0030781821425650787,3734.9943456401866
0.003199018284775064,3861.084747464694
0.0033245979322709396,3990.3942506093385
0.003455107294592217,4122.921376420381
0.0035907398910610534,4258.6567103355055
0.0037316968377327513,4397.58254519503
0.0038781871456107214,4539.672915987919
0.0040304280305680515,4684.891757756603
0.00418864523543527,4833.1935550354765
0.004353073364731888,4984.521750802905
0.00452395623253805,5138.807632208473
0.004701547224022131,5295.971631424775
0.004886109671160325,5455.923217863869
0.005077917243205399,5618.56034645213
0.005277254352483535,5783.763801004782
0.005484416576121017,5951.39069220901
0.005699711094326071,6121.2845057755
0.005923457145875801,6293.301698258424
0.006155986501483508,6467.305796755757
0.006397643955748424,6643.124800334223
0.0066487878384172625,6820.487028761867
0.0069097905457156435,6999.082803964683
0.007181039092537346,7178.6400220094365
0.007462935686310132,7358.935096317204
0.007755898323389004,7539.72205518899
0.00806036140886134,7720.6620673868765
0.008376776400682916,7901.3690347662005
0.008705612479099857,8081.471909684778
0.009047357242349292,8260.644063960497
0.00940251742967013,8438.547743013285
0.009771619672696168,8614.782919669036
0.010155211276345676,8788.90601964452
0.010553861030365234,8960.455845513801
0.010968160052731372,9128.952455595247
0.011398722666160517,9293.901312851527
0.011846187309026826,9454.79080444558
0.012311217482038896,9611.094214816165
0.012794502732078732,9762.27541781668
0.013296759674662111,9907.790258937788
0.013818733056536317,10047.08944973002
0.014361196859990781,10179.609479365052
0.014924955450518284,10304.769907521897
0.015510844769528393,10421.990704445985
0.016119733573881575,10530.69220854054
0.01675252472408214,10630.301161469186
0.017410156523040152,10720.254431284255
0.018093604107387147,10800.00002275825
0.01880388089340914,10869.005511262932
0.019542040079740527,10926.766939488425
0.02030917620904734,10972.811792252622
0.021106426791015535,11006.703610719544
0.021934973989050584,11028.055838012366
0.02279604637318978,11036.525943439041
0.023690920741826323,11031.839247877928
0.02462092401494623,11013.795682366006
0.02558743520168586,10982.255327246363
0.02659188744512693,10937.185848381969
0.027635770147361564,10878.62847242067
0.028720631177978267,10806.718293603168
0.029848079169243254,10721.716462454173
0.03101978590138095,10623.947947105615
0.03223748878149028,10513.870482452372
0.0335029934197723,10392.03334072269
0.03481817630688963,10259.052214295936
0.03618498759642746,10115.66567390986
0.037605453996581675,9962.647567785973
0.03908168177536263,9800.817873082644
0.04061585988376978,9631.032737982752
0.04221026320156896,9454.146564491202
0.04386725591048496,9271.017097329579
0.0455892949998106,9082.486162294303
0.047378933909631396,8889.22068816492
0.049238826317067365,8691.649970127768
0.05117173007114603,8490.226594694206
0.05318051128214196,8285.702376872443
0.05526814857144601,8078.943740320162
0.057437737488265785,7870.085327337545
0.0596924950997073,7657.670740781472
0.0620357647610427,7440.319485522425
0.06447102107323864,7218.473192180516
0.06700187503509585,6993.8448575967695
0.06963207939763882,6767.880756051605
0.0723655342286965,6541.246998442767
0.07520629269592405,6314.38898694897
0.07815856707684081,6087.100155753274
0.08122673500479707,5858.689998239944
0.08441534596012978,5629.752226493679
0.0877291280161335,5402.897070330029
0.09117299484984914,5180.641128351489
0.09475205302806537,4965.199831287319
0.09847160957933764,4757.527418293244
0.1023371798632519,4556.750753561435
0.10635449574860109,4361.884740914243
0.11052951411260206,4172.08972588787
0.1148684256737553,3987.0495111062546
0.1193776641714435,3806.319182426119
0.1240639159058831,3628.824510263039
0.12893412965257148,3453.6636528973736
0.13399552696593373,3280.7596800299957
0.1392556128874462,3111.165742561578
0.14472218707411338,2946.5632194782643
0.15040335536380234,2788.9494832777423
0.15630754179458153,2639.57930154815
0.16244350109588662,2498.142412897808
0.16882033167003618,2362.950919402825
0.17544748908334581,2233.0856132347317
0.1823348000868439,2108.4292822692555
0.189492477187382,1988.3559639950863
0.19693113379074215,1872.243292353592
0.20466179993919872,1761.0300948748204
0.21269593866686892,1655.3647920180147
0.22104546299710207,1555.2471470982318
0.22972275360711503,1460.699827383009
0.23874067718606454,1370.903936958738
0.2481126055137766,1285.300191022233
0.25785243528842716,1204.045631676663
0.26797460873256895,1126.9280666952827
0.27849413500806414,1054.1400202914324
0.28942661247167484,985.4786218102684
0.3007882518043098,920.6156804741886
0.31259590004822796,859.43723302388
0.324867065587837,801.7311508908524
0.3376199441111335,747.3909038782092
0.35087344559027084,696.3470152007721
0.36464722232127456,648.3163760366119
0.37896169806447155,603.2586480723622
0.3938380983288488,560.9387725229406
0.4092984818452433,521.3115248162696
0.4253657732750382,484.16248277576307
0.44206379720285277,449.42818964132374
0.45941731346364734,416.93253044228123
0.47745205385661277,386.5864607045812
0.4961947603002895,358.2647514831615
0.5156732244854959,331.8339242292664
0.5359163290848509,307.20816268498635
0.556954090580013,284.2658034846296
0.5788177037701272,262.89642706549046
0.6015395880274836,243.0119894020347
0.6251534353689703,224.5215239131608
0.6496942604146115,207.33410758466735
0.6751984523072497,191.3682690820488
0.7017038286703824,176.5472186577319
0.7292496916841444,162.80800791205866
0.7578768863625915,150.0751375016811
0.7876278611187046,138.27958750846696
0.8185467307069019,127.35918192473962
0.850679341636415,117.25136522958078
0.8840733401525058,107.89889136739338
0.9187782428863317,99.25022466087917
0.9548455102782278,91.25900247694501
0.9923286228832539,83.88069408436216
1.0312831606721837,77.07070002989589
1.0717668854455022,70.78743546641961
1.1138398264826193,64.99285293125334
1.1575643695533022,59.65139509512614
1.2030053494233226,54.729845807765344
1.2502301459914542,50.197200067136265
1.299308784200415,46.02452588806068
1.3503140378698726,42.18480790549488
1.4033215376054824,38.652888811378396
1.4584098829439835,35.40537307475554
1.5156607589006013,32.420516933109894
1.575159057091621,29.678124052367526
1.6369930016117014,27.159453598232428
1.7012542798525885,24.847129544174628
1.7680381784572046,22.72503702111247
1.8374437246107238,20.77823816795894
1.9095738328780953,18.992894339929613
1.9845354578058014,17.356192079159026
2.0624397525140905,15.856264768274098
2.143402233514853,14.482132578298296
2.227542951999554,13.223650794854322
2.314986671851158,12.071451194137126
2.405863054644063,11.0168867722028
2.5003068519063225,10.051978593042461
2.598458104929248,9.169360855482289
2.7004623524206774,8.362243845345809
2.806470846309834,7.6243751456671625
2.916640776023701,6.949999374256291
3.031135501567576,6.333820716239902
3.150124795755327,5.770970010825268
3.2737850959485697,5.256974553790197
3.4022997656780634,4.787722392635939
3.5358593665351745,4.359433904460299
3.6746619407366854,3.9686363664618467
3.8189133047818515,3.612140212134068
3.968827354637162,3.287013648620817
4.1246263829013445,2.9905631642159967
4.286541408420921,2.72031959916822
4.4548125188449825,2.4740203850865425
4.629689226627261,2.2495928509202274
4.811430839003257,2.045139003283483
5.000306842491082,1.8589227049686017
5.196597302486189,1.6893552103084297
5.400593278542364,1.5349820998552304
5.612597255954967,1.3944723398123506
5.8329235942862,1.2666081998034364
6.06189899349756,1.1502756920064674
6.29986297838068,1.0444554214931885
6.547168402004727,0.9482157431909438
6.804181968927091,0.8607056798383458
7.071284778942991,0.7811481307515069
7.348872892180382,0.7088336314879867
7.637357916378006,0.6431145198026141
7.937167617217536,0.5833996568587969
8.248746552614573,0.5291498022663939
8.572556731909314,0.4798731835669489
8.909078300934132,0.43512141519755515
9.258810253973934,0.39448578754675917
9.622271173675122,0.3575942094345407
9.999999999999984,0.3241078035446626
