k [1/Mpc],P(k) [Mpc^3]
0.0001,232.1183673750896
0.00010392556829367125,242.59043000333693
0.00010800523745162529,253.53188266042838
0.00011224505680853065,264.9633766329881
0.00011665131316981963,276.9064315462788
0.00012123054013376525,289.38344826181776
0.00012598952777950273,302.4177636889852
0.00013093533273536104,316.03364978568027
0.00013607528864243335,330.2563456471426
0.00014141701702890234,345.11212290484025
0.00014696843861124463,360.62829561262475
0.00015273778503907136,376.83327858112744
0.00015873361110102093,393.75657747645823
0.00016496480740980205,411.4287863511313
0.0001714406135851971,429.8816898162213
0.00017817063195457305,449.14823147811745
0.00018516484179121546,469.2625821840845
0.000192433614111598,490.26017379347047
0.00019998772705352857,512.17766355959
0.0002078383818579757,535.0530430082214
0.00021599721947827182,558.9255538333572
0.0002244763378413224,583.8357239146568
0.0002332883097864157,609.8254529789546
0.00024244620170823283,636.9378795678209
0.0002519635929317015,665.217528873283
0.0002618545958474233,694.7102716054087
0.0002721338768375308,725.4632876334356
0.0002828166780230032,757.5251687456897
0.0002939188398646886,790.9456563533765
0.0003054568246515432,825.775778912794
0.00031744774091091926,862.0678681237001
0.00032990936877709396,899.8754037024404
0.00034286018635565856,939.2531661307994
0.00035631939712285854,980.2569566253184
0.000370306958400514,1022.9436094651658
0.00038484361094874304,1067.3710697326346
0.0003999509097203664,1113.5981115521204
0.00041565125582259895,1161.6844812057282
0.00043196792973341727,1211.6905887760968
0.0004489251258218605,1263.6773298229375
0.0004665479882234472,1317.706247738033
0.000484862648123908,1373.8390973958994
0.000503896262506515,1432.137929900147
0.0005236770544204653,1492.6648207083915
0.0005442343548300266,1555.4814186568813
0.0005655986461065005,1620.649156078092
0.0005878016072274912,1688.2284411082135
0.0006108761607505036,1758.2786246666176
0.0006348565216305217,1830.8578411928193
0.0006597782479539537,1906.0219354561327
0.0006856782936641739,1983.8249293193335
0.0007125950633568407,2064.3178677734727
0.0007405684692262436,2147.5483084343855
0.0007696399902471156,2233.560655193296
0.0007998527336796708,2322.394527429283
0.000831251498989063,2414.085178398452
0.0008638828442740447,2508.66253074423
0.000897795155303332,2606.1499036445803
0.0009330387172620361,2706.564818121267
0.0009696657893145519,2809.918087315313
0.001007730682094461,2916.2135145984744
0.0010472898382363582,3025.4469870209487
0.0010884019160690055,3137.604613204481
0.0011311278765939214,3252.6634583198497
0.001175531073878369,3370.5895810888546
0.0012216773489967915,3491.3373965525357
0.0012696351276599736,3614.8512805037326
0.0013194755216767058,3741.068147152221
0.0013712724343984,3869.914744814508
0.0014251026703029975,4001.30476170111
0.0014810460488806749,4135.137491263137
0.0015391855229902056,4271.298320366521
0.001599607301861487,4409.652716987612
0.0016624009789266115,4550.0483058854825
0.0017276596646690358,4692.319685952072
0.0017954801246878305,4836.29179961895
0.0018659629231817451,4981.775390743252
0.001939212572065829,5128.565944745443
0.0020153376859417325,5276.443608915357
0.002094451143151469,5425.173118933963
0.002176670253153458,5574.503352723352
0.002262116930469025,5724.167894006849
0.002350917875457286,5873.885066817161
0.002443204762186487,6023.358141742873
0.0025391144336803463,6172.276984155846
0.002638789104828933,6320.323525013883
0.002742376573264949,6467.169673677607
0.0028500304385181063,6612.4705474294415
0.0029619103297725525,6755.859169363444
0.0030781821425650787,6896.95692364894
0.003199018284775064,7035.38344580249
0.0033245979322709396,7170.756041814043
0.003455107294592217,7302.662811795349
0.0035907398910610534,7430.606085393346
0.0037316968377327513,7554.0665392078
0.0038781871456107214,7672.659293063379
0.0040304280305680515,7786.159960377912
0.00418864523543527,7894.284607054882
0.004353073364731888,7996.283986293562
0.00452395623253805,8091.226548565657
0.004701547224022131,8178.352759397371
0.004886109671160325,8257.23344601263
0.005077917243205399,8327.48833047663
0.005277254352483535,8388.724658768211
0.005484416576121017,8440.552919555977
0.005699711094326071,8482.54095114135
0.005923457145875801,8514.083463083243
0.006155986501483508,8534.566226438761
0.006397643955748424,8543.34738766818
0.0066487878384172625,8539.767519215553
0.0069097905457156435,8523.204346035896
0.007181039092537346,8493.03182363932
0.007462935686310132,8448.675271475766
0.007755898323389004,8389.57821575609
0.00806036140886134,8315.180749716563
0.008376776400682916,8224.992770618643
0.008705612479099857,8118.359541836752
0.009047357242349292,7994.633096495868
0.00940251742967013,7853.292941321076
0.009771619672696168,7693.890426633325
0.010155211276345676,7516.169932852821
0.010553861030365234,7319.7573812703495
0.010968160052731372,7104.288702889769
0.011398722666160517,6869.68033769952
0.011846187309026826,6615.8988488167515
0.012311217482038896,6343.288752790992
0.012794502732078732,6052.065641638775
0.013296759674662111,5742.270602033783
0.013818733056536317,5414.796164938304
0.014361196859990781,5071.79034251476
0.014924955450518284,4716.262364846145
0.015510844769528393,4349.308718450897
0.016119733573881575,3968.3553223703548
0.01675252472408214,3574.055822798476
0.017410156523040152,3178.5141892040538
0.018093604107387147,2797.7334856764364
0.01880388089340914,2432.761693626151
0.019542040079740527,2053.5195616671112
0.02030917620904734,1649.2046511829292
0.021106426791015535,1276.25849255592
0.021934973989050584,1001.9594951061619
0.02279604637318978,815.1693317113787
0.023690920741826323,570.4259370272732
0.02462092401494623,263.22203625584166
0.02558743520168586,81.50773816775275
0.02659188744512693,29.636848605662102
0.027635770147361564,22.395045985283268
0.028720631177978267,34.78927142476
0.029848079169243254,75.4133063771598
0.03101978590138095,164.51035482247931
0.03223748878149028,322.5076353096109
0.0335029934197723,530.9079615358249
0.03481817630688963,732.9009424725696
0.03618498759642746,907.9358452285337
0.037605453996581675,1073.3136155179116
0.03908168177536263,1221.5470536187097
0.04061585988376978,1326.483333513906
0.04221026320156896,1366.3311772662348
0.04386725591048496,1332.3417527064112
0.0455892949998106,1232.7401107390328
0.047378933909631396,1095.635696602354
0.049238826317067365,924.4869907878331
0.05117173007114603,675.6450894656033
0.05318051128214196,430.14816064867506
0.05526814857144601,314.01048468724713
0.057437737488265785,161.8355082913048
0.0596924950997073,16.132812376531348
0.0620357647610427,2.894044033693512
0.06447102107323864,10.944255855009207
0.06700187503509585,47.82012417774235
0.06963207939763882,85.35621890854144
0.0723655342286965,107.8356402550524
0.07520629269592405,88.44463493170613
0.07815856707684081,113.75711436710628
0.08122673500479707,20.604209205952472
0.08441534596012978,0.232286365273266
0.0877291280161335,1.5236822961000718
0.09117299484984914,70.25325771968666
0.09475205302806537,101.63312725195074
0.09847160957933764,158.0574328044766
0.1023371798632519,182.12084557031326
0.10635449574860109,161.0685098497271
0.11052951411260206,88.66457438071721
0.1148684256737553,59.56229651270374
0.1193776641714435,1.1296998378552816
0.1240639159058831,1.0907487318908142
0.12893412965257148,17.870505761510035
0.13399552696593373,19.286488728113973
0.1392556128874462,11.78467003519767
0.14472218707411338,1.0235093319435675
0.15040335536380234,5.145830101156142
0.15630754179458153,28.879298067205774
0.16244350109588662,43.623150394130626
0.16882033167003618,37.46505248608348
0.17544748908334581,14.028657255119995
0.1823348000868439,0.18426760130545292
0.189492477187382,1.5375318089013386
0.19693113379074215,2.2997002949945284
0.20466179993919872,0.019723049845303584
0.21269593866686892,4.035661788958788
0.22104546299710207,9.889340815594435
0.22972275360711503,11.485608633687724
0.23874067718606454,4.723271735247875
0.2481126055137766,0.2006574975457608
0.25785243528842716,0.2709326863018686
0.26797460873256895,0.032370587924315006
0.27849413500806414,1.5241661206249368
0.28942661247167484,3.7564443615956984
0.3007882518043098,2.2912700940415234
0.31259590004822796,0.27705383991963384
0.324867065587837,0.009216774341144717
0.3376199441111335,0.31329761429459047
0.35087344559027084,1.275081049907397
0.36464722232127456,1.0232903629557408
0.37896169806447155,0.23070425699124653
0.3938380983288488,0.11818878570903979
0.4092984818452433,0.4330125678832237
0.4253657732750382,0.5777377794471247
0.44206379720285277,0.249224681073528
0.45941731346364734,0.15359308974410613
0.47745205385661277,0.2850823644798426
0.4961947603002895,0.27626908467546774
0.5156732244854959,0.15934578923416767
0.5359163290848509,0.16150896628884923
0.556954090580013,0.2054366937197328
0.5788177037701272,0.22399463022659688
0.6015395880274836,0.20895360358107173
0.6251534353689703,0.17521965627271918
0.6496942604146115,0.13877285275618514
0.6751984523072497,0.10906438995558325
0.7017038286703824,0.08917205577254675
0.7292496916841444,0.07687816042436904
0.7578768863625915,0.06899566212007029
0.7876278611187046,0.06359121799173104
0.8185467307069019,0.059380110989153204
0.850679341636415,0.05541984724055476
0.8840733401525058,0.051137941398920334
0.9187782428863317,0.046665298842246156
0.9548455102782278,0.042247508896081525
0.9923286228832539,0.03806692178251735
1.0312831606721837,0.03424659255687079
1.0717668854455022,0.03085870239282266
1.1138398264826193,0.027893243654378234
1.1575643695533022,0.025274938403088077
1.2030053494233226,0.022939785826674594
1.2502301459914542,0.020837001469417898
1.299308784200415,0.018926318273598516
1.3503140378698726,0.017177318693487643
1.4033215376054824,0.015576181516903846
1.4584098829439835,0.01411498246151551
1.5156607589006013,0.01278532214640403
1.575159057091621,0.011578525832246804
1.6369930016117014,0.010485842025287035
1.7012542798525885,0.009497905871574924
1.7680381784572046,0.0086042451683349
1.8374437246107238,0.007795277893874353
1.9095738328780953,0.007062490593941038
1.9845354578058014,0.006398308309039573
2.0624397525140905,0.005795994789066113
2.143402233514853,0.005249755618394282
2.227542951999554,0.004754524571518503
2.314986671851158,0.004305674348910673
2.405863054644063,0.0038989754758483285
2.5003068519063225,0.0035305651780509484
2.598458104929248,0.003196904164524568
2.7004623524206774,0.0028947082707067116
2.806470846309834,0.0026209892354544925
2.916640776023701,0.002373047180229051
3.031135501567576,0.0021484421203643274
3.150124795755327,0.0019449685504182017
3.2737850959485697,0.001760641935317395
3.4022997656780634,0.0015936782283199008
3.5358593665351745,0.001442458413044835
3.6746619407366854,0.0013055122457588323
3.8189133047818515,0.0011815048540366221
3.968827354637162,0.0010692242410078833
4.1246263829013445,0.000967568202939603
4.286541408420921,0.000875536175735582
4.4548125188449825,0.0007922213152548593
4.629689226627261,0.0007168017827296591
4.811430839003257,0.0006485328220485559
5.000306842491082,0.0005867394730285034
5.196597302486189,0.0005308099338273262
5.400593278542364,0.0004801899407135275
5.612597255954967,0.0004343774245955315
5.8329235942862,0.0003929176133809668
6.06189899349756,0.00035539858348173915
6.29986297838068,0.0003214470707932091
6.547168402004727,0.0002907249104712254
6.804181968927091,0.00026292592418976064
7.071284778942991,0.00023777290384117413
7.348872892180382,0.00021501487261331702
7.637357916378006,0.00019442465186740352
7.937167617217536,0.0001757967793972067
8.248746552614573,0.00015894523422036645
8.572556731909314,0.0001437015241402114
8.909078300934132,0.00012991304488316614
9.258810253973934,0.00011744159109368706
9.622271173675122,0.00010616195694929424
9.999999999999984,9.59607026697019e-05
