k [1/Mpc],P(k) [Mpc^3]
0.0001,1038.0713434423083
0.00010392556829367125,1078.7689126654952
0.00010800523745162529,1121.0577771545018
0.00011224505680853065,1164.9996372127023
0.00011665131316981963,1210.6584490812386
0.00012123054013376525,1258.1005771564126
0.00012598952777950273,1307.3949085538345
0.00013093533273536104,1358.6129476971264
0.00013607528864243335,1411.8288964496905
0.00014141701702890234,1467.1196973947426
0.00014696843861124463,1524.5651650007749
0.00015273778503907136,1584.2479942736834
0.00015873361110102093,1646.2537398270651
0.00016496480740980205,1710.6710986128533
0.0001714406135851971,1777.5920878080547
0.00017817063195457305,1847.1121505111917
0.00018516484179121546,1919.3301427998656
0.000192433614111598,1994.3481907428493
0.00019998772705352857,2072.2720354302623
0.0002078383818579757,2153.2111098971222
0.00021599721947827182,2237.278634250572
0.0002244763378413224,2324.591783500701
0.0002332883097864157,2415.2715048371756
0.00024244620170823283,2509.4428209687007
0.0002519635929317015,2607.2349576040788
0.0002618545958474233,2708.7813494376687
0.0002721338768375308,2814.219879675529
0.0002828166780230032,2923.6923867147257
0.0002939188398646886,3037.3449328056154
0.0003054568246515432,3155.328278241079
0.00031744774091091926,3277.797943205559
0.00032990936877709396,3404.914351330896
0.00034286018635565856,3536.8421273291065
0.00035631939712285854,3673.7500075583894
0.000370306958400514,3815.8115934285415
0.00038484361094874304,3963.2049506449125
0.0003999509097203664,4116.112995517648
0.00041565125582259895,4274.723405641009
0.00043196792973341727,4439.228335633748
0.0004489251258218605,4609.824838862096
0.0004665479882234472,4786.713556864171
0.000484862648123908,4970.099093293437
0.000503896262506515,5160.190676379379
0.0005236770544204653,5357.201788688038
0.0005442343548300266,5561.3504251995655
0.0005655986461065005,5772.857726470248
0.0005878016072274912,5991.947623741155
0.0006108761607505036,6218.847728121837
0.0006348565216305217,6453.787925911614
0.0006597782479539537,6697.001021421957
0.0006856782936641739,6948.722159993928
0.0007125950633568407,7209.187806476346
0.0007405684692262436,7478.636389602643
0.0007696399902471156,7757.305048988145
0.0007998527336796708,8045.430142773351
0.000831251498989063,8343.247664745839
0.0008638828442740447,8650.990716738072
0.000897795155303332,8968.890840716107
0.0009330387172620361,9297.174245188582
0.0009696657893145519,9636.060567426248
0.001007730682094461,9985.764500564237
0.0010472898382363582,10346.490778452026
0.0010884019160690055,10718.436052343603
0.0011311278765939214,11101.786387338432
0.001175531073878369,11496.713558566305
0.0012216773489967915,11903.377794953503
0.0012696351276599736,12321.922851967427
0.0013194755216767058,12752.476092142673
0.0013712724343984,13195.148251669898
0.0014251026703029975,13650.02931006066
0.0014810460488806749,14117.189378354866
0.0015391855229902056,14596.667631069955
0.001599607301861487,15088.469423371635
0.0016624009789266115,15592.573358429167
0.0017276596646690358,16108.929364857884
0.0017954801246878305,16637.457316126558
0.0018659629231817451,17178.041091378782
0.001939212572065829,17730.523280890375
0.0020153376859417325,18294.70896584686
0.002094451143151469,18870.361865736857
0.002176670253153458,19457.20347327274
0.002262116930469025,20054.91083555861
0.002350917875457286,20663.110966739478
0.002443204762186487,21281.38311571955
0.0025391144336803463,21909.25582825866
0.002638789104828933,22546.2053098317
0.002742376573264949,23191.654220174405
0.0028500304385181063,23844.962798084758
0.0029619103297725525,24505.433109120335
0.0030781821425650787,25172.307519004666
0.003199018284775064,25844.76558389649
0.0033245979322709396,26521.926164581826
0.003455107294592217,27202.83225364902
0.0035907398910610534,27886.456836975056
0.0037316968377327513,28571.720747379466
0.0038781871456107214,29257.510402091608
0.0040304280305680515,29942.655128542494
0.00418864523543527,30625.827149086337
0.004353073364731888,31305.540955406206
0.00452395623253805,31980.31828847428
0.004701547224022131,32649.013266768743
0.004886109671160325,33310.56690527745
0.005077917243205399,33963.34855041901
0.005277254352483535,34604.80527805326
0.005484416576121017,35232.30322338901
0.005699711094326071,35844.06611594339
0.005923457145875801,36438.80477410917
0.006155986501483508,37014.91935767669
0.006397643955748424,37569.933811152056
0.0066487878384172625,38101.21268419664
0.0069097905457156435,38606.64388279639
0.007181039092537346,39084.62447022852
0.007462935686310132,39533.46389242346
0.007755898323389004,39950.83496826991
0.00806036140886134,40334.2316268074
0.008376776400682916,40681.10363872674
0.008705612479099857,40988.83480273255
0.009047357242349292,41254.86404205145
0.00940251742967013,41476.738417675755
0.009771619672696168,41652.12215699951
0.010155211276345676,41778.72679607859
0.010553861030365234,41854.21070337452
0.010968160052731372,41876.3540442833
0.011398722666160517,41842.840876162736
0.011846187309026826,41751.327270526686
0.012311217482038896,41599.691840336054
0.012794502732078732,41385.98806517203
0.013296759674662111,41108.55695243558
0.013818733056536317,40765.898106771754
0.014361196859990781,40356.62286869029
0.014924955450518284,39879.74293767857
0.015510844769528393,39334.601110999865
0.016119733573881575,38720.9819781559
0.01675252472408214,38039.1628826051
0.017410156523040152,37289.868901834074
0.018093604107387147,36474.41040136627
0.01880388089340914,35594.81364166952
0.019542040079740527,34653.793317612886
0.02030917620904734,33654.759778416985
0.021106426791015535,32602.141622768577
0.021934973989050584,31500.96410569268
0.02279604637318978,30357.255637821352
0.023690920741826323,29178.113411436865
0.02462092401494623,27970.930283708192
0.02558743520168586,26744.4989804442
0.02659188744512693,25507.87896075461
0.027635770147361564,24270.52454518664
0.028720631177978267,23043.307826966193
0.029848079169243254,21836.139510380366
0.03101978590138095,20659.231769324368
0.03223748878149028,19522.355265605504
0.0335029934197723,18434.33839108725
0.03481817630688963,17406.078816603025
0.03618498759642746,16446.739829704045
0.037605453996581675,15561.675480550577
0.03908168177536263,14752.801840890272
0.04061585988376978,14020.879171680846
0.04221026320156896,13366.052671474645
0.04386725591048496,12788.050141870966
0.0455892949998106,12284.531344272878
0.047378933909631396,11849.273123959178
0.049238826317067365,11475.540311188604
0.05117173007114603,11148.817696980557
0.05318051128214196,10851.452847101978
0.05526814857144601,10568.110268262095
0.057437737488265785,10285.431367264697
0.0596924950997073,9986.569305887651
0.0620357647610427,9650.179528935947
0.06447102107323864,9260.02687156193
0.06700187503509585,8806.83844915476
0.06963207939763882,8292.270298500189
0.0723655342286965,7726.868216475224
0.07520629269592405,7129.339237988457
0.07815856707684081,6522.9554198042215
0.08122673500479707,5931.691072315967
0.08441534596012978,5373.428603193023
0.0877291280161335,4875.225968084469
0.09117299484984914,4463.899253869473
0.09475205302806537,4147.3020289699425
0.09847160957933764,3918.839140323594
0.1023371798632519,3761.7415263307885
0.10635449574860109,3650.592623004029
0.11052951411260206,3556.3975659098596
0.1148684256737553,3448.2858656151066
0.1193776641714435,3301.3829790054483
0.1240639159058831,3104.2879244573364
0.12893412965257148,2859.0261292266405
0.13399552696593373,2581.3741618661006
0.1392556128874462,2305.7638847079975
0.14472218707411338,2069.102051539245
0.15040335536380234,1888.7509807169533
0.15630754179458153,1764.139307984891
0.16244350109588662,1684.2220737672678
0.16882033167003618,1623.9367653089687
0.17544748908334581,1551.901591034603
0.1823348000868439,1452.3061112942114
0.189492477187382,1328.246221064353
0.19693113379074215,1196.3164432156177
0.20466179993919872,1080.2195511017019
0.21269593866686892,992.8108936035953
0.22104546299710207,932.5111799174974
0.22972275360711503,882.2251053278859
0.23874067718606454,826.1363681440927
0.2481126055137766,759.7775575184515
0.25785243528842716,690.3868202078188
0.26797460873256895,630.4609657787037
0.27849413500806414,583.6593076683611
0.28942661247167484,544.566750690688
0.3007882518043098,504.7021560291622
0.31259590004822796,462.936514197943
0.324867065587837,423.53353849885065
0.3376199441111335,390.04085463370376
0.35087344559027084,360.7009912739253
0.36464722232127456,332.33627457698634
0.37896169806447155,304.8045177957558
0.3938380983288488,279.8307317164874
0.4092984818452433,257.58980237335453
0.4253657732750382,236.79880646418053
0.44206379720285277,217.2385656056307
0.45941731346364734,199.38674091882294
0.47745205385661277,183.08123056890364
0.4961947603002895,167.93283325444216
0.5156732244854959,153.9745678698634
0.5359163290848509,141.18664171720602
0.556954090580013,129.39442376256832
0.5788177037701272,118.54433679406559
0.6015395880274836,108.57950348615546
0.6251534353689703,99.4149866116922
0.6496942604146115,90.99515964449448
0.6751984523072497,83.26730424310057
0.7017038286703824,76.17371632270985
0.7292496916841444,69.66454379042023
0.7578768863625915,63.693692284975796
0.7876278611187046,58.21849701842421
0.8185467307069019,53.19948775352935
0.850679341636415,48.60017154285524
0.8840733401525058,44.38683539962511
0.9187782428863317,40.52833588842904
0.9548455102782278,36.995912963943844
0.9923286228832539,33.76302063422576
1.0312831606721837,30.805168184495702
1.0717668854455022,28.09975695317214
1.1138398264826193,25.625937373096903
1.1575643695533022,23.364509073745
1.2030053494233226,21.297800180635583
1.2502301459914542,19.409551907677074
1.299308784200415,17.68481132251648
1.3503140378698726,16.109832453996493
1.4033215376054824,14.67198310164088
1.4584098829439835,13.359658121848307
1.5156607589006013,12.162199790430261
1.575159057091621,11.069823974462013
1.6369930016117014,10.073550951299662
1.7012542798525885,9.16513959795482
1.7680381784572046,8.337032376982114
1.8374437246107238,7.582302054596766
1.9095738328780953,6.894601133809568
1.9845354578058014,6.268115142236959
2.0624397525140905,5.697519111644907
2.143402233514853,5.177937611391789
2.227542951999554,4.704908900084177
2.314986671851158,4.274351089914219
2.405863054644063,3.882530868079717
2.5003068519063225,3.5260346557388687
2.598458104929248,3.2017416356561026
2.7004623524206774,2.9067996376953618
2.806470846309834,2.6386031382224298
2.916640776023701,2.394772554544133
3.031135501567576,2.173135203198664
3.150124795755327,1.9717077335798852
3.2737850959485697,1.7886797921799131
3.4022997656780634,1.6223996641610372
3.5358593665351745,1.471360863687428
3.6746619407366854,1.3341896781547247
3.8189133047818515,1.2096337484837447
3.968827354637162,1.0965515389732825
4.1246263829013445,0.9939027106115831
4.286541408420921,0.9007394914859781
4.4548125188449825,0.8161986389528781
4.629689226627261,0.7394940630102648
4.811430839003257,0.6699100741643663
5.000306842491082,0.6067951648627539
5.196597302486189,0.5495563899358386
5.400593278542364,0.4976542542866308
5.612597255954967,0.4505979896596963
5.8329235942862,0.40794123759314294
6.06189899349756,0.3692780979756605
6.29986297838068,0.33423949335175257
6.547168402004727,0.30248992865566987
6.804181968927091,0.27372450798318365
7.071284778942991,0.24766619125720418
7.348872892180382,0.224063291834954
7.637357916378006,0.20268716907208437
7.937167617217536,0.18333012825237036
8.248746552614573,0.16580359073071904
8.572556731909314,0.14993636873781555
8.909078300934132,0.13557308439369264
9.258810253973934,0.1225727339500559
9.622271173675122,0.11080745117036735
9.999999999999984,0.10016127660856781
