k [1/Mpc],P(k) [Mpc^3]
0.0001,75.57971630722601
0.00010392556829367125,78.99970421354746
0.00010800523745162529,82.57428569172353
0.00011224505680853065,86.31042868028517
0.00011665131316981963,90.21541353434573
0.00012123054013376525,94.29684491027626
0.00012598952777950273,98.56266648676161
0.00013093533273536104,103.02117651293274
0.00013607528864243335,107.68104111267314
0.00014141701702890234,112.55131250515144
0.00014696843861124463,117.64144377116172
0.00015273778503907136,122.9613054773298
0.00015873361110102093,128.52120653931536
0.00016496480740980205,134.33191092222924
0.0001714406135851971,140.40465895629086
0.00017817063195457305,146.7511841871982
0.00018516484179121546,153.38372890604126
0.000192433614111598,160.31507368695685
0.00019998772705352857,167.55855795966218
0.0002078383818579757,175.1281047598164
0.00021599721947827182,183.0382444545388
0.0002244763378413224,191.30413084043445
0.0002332883097864157,199.94157581057624
0.00024244620170823283,208.96706721671427
0.0002519635929317015,218.39779359106225
0.0002618545958474233,228.25168273421133
0.0002721338768375308,238.54741709928788
0.0002828166780230032,249.3044737538991
0.0002939188398646886,260.54315002837484
0.0003054568246515432,272.28458267614695
0.00031744774091091926,284.55079837702715
0.00032990936877709396,297.3647194804167
0.00034286018635565856,310.75020648763336
0.00035631939712285854,324.73210596094356
0.000370306958400514,339.3362678001057
0.00038484361094874304,354.5896006799208
0.0003999509097203664,370.52006852799815
0.00041565125582259895,387.1567178225364
0.00043196792973341727,404.52975454463405
0.0004489251258218605,422.67054665549705
0.0004665479882234472,441.6116888175659
0.000484862648123908,461.3870158213446
0.000503896262506515,482.03160067416115
0.0005236770544204653,503.5818516493228
0.0005442343548300266,526.0754892871397
0.0005655986461065005,549.5516059687038
0.0005878016072274912,574.0507173801419
0.0006108761607505036,599.6147281593871
0.0006348565216305217,626.2870378432923
0.0006597782479539537,654.1125053043012
0.0006856782936641739,683.1374680031142
0.0007125950633568407,713.4098313863641
0.0007405684692262436,744.9789602101183
0.0007696399902471156,777.8957981272201
0.0007998527336796708,812.2128530601555
0.000831251498989063,847.9841358329986
0.0008638828442740447,885.2652912257267
0.000897795155303332,924.1133915047975
0.0009330387172620361,964.5870172375343
0.0009696657893145519,1006.746276087189
0.001007730682094461,1050.652537868153
0.0010472898382363582,1096.3686694827418
0.0010884019160690055,1143.958794847543
0.0011311278765939214,1193.4882300462884
0.001175531073878369,1245.023584686653
0.0012216773489967915,1298.6322101555115
0.0012696351276599736,1354.3824682572126
0.0013194755216767058,1412.343569734927
0.0013712724343984,1472.5852716978245
0.0014251026703029975,1535.1780943518002
0.0014810460488806749,1600.192811749237
0.0015391855229902056,1667.7004716069678
0.001599607301861487,1737.7721492530995
0.0016624009789266115,1810.4781003498629
0.0017276596646690358,1885.8882391532072
0.0017954801246878305,1964.071575871632
0.0018659629231817451,2045.0959515713566
0.001939212572065829,2129.028064242888
0.0020153376859417325,2215.9325233845616
0.002094451143151469,2305.8720331114973
0.002176670253153458,2398.9067701424183
0.002262116930469025,2495.0936545570144
0.002350917875457286,2594.4866250987593
0.002443204762186487,2697.13569434243
0.0025391144336803463,2803.086791465652
0.002638789104828933,2912.3811763290473
0.002742376573264949,3025.0540714004806
0.0028500304385181063,3141.135142543584
0.0029619103297725525,3260.6476223265745
0.0030781821425650787,3383.6077942794077
0.003199018284775064,3510.024632163756
0.0033245979322709396,3639.8979955491045
0.003455107294592217,3773.2189878495105
0.0035907398910610534,3909.969279145792
0.0037316968377327513,4050.1202041956494
0.0038781871456107214,4193.632651595492
0.0040304280305680515,4340.455007231018
0.00418864523543527,4490.5232068336445
0.004353073364731888,4643.76154351843
0.00452395623253805,4800.083131123822
0.004701547224022131,4959.387738870535
0.004886109671160325,5121.551647335089
0.005077917243205399,5286.427299278255
0.005277254352483535,5453.859079062915
0.005484416576121017,5623.715581063742
0.005699711094326071,5795.863682019146
0.005923457145875801,5970.09677654679
0.006155986501483508,6146.100787780481
0.006397643955748424,6323.539381534736
0.0066487878384172625,6502.154364588098
0.0069097905457156435,6681.722439286768
0.007181039092537346,6861.968778838377
0.007462935686310132,7042.505795816622
0.007755898323389004,7222.911781469961
0.00806036140886134,7402.818462613551
0.008376776400682916,7581.90461526389
0.008705612479099857,7759.820914990682
0.009047357242349292,7936.124384093801
0.00940251742967013,8110.33281864537
0.009771619672696168,8281.942201445343
0.010155211276345676,8450.426620493554
0.010553861030365234,8615.245919560697
0.010968160052731372,8775.859579771733
0.011398722666160517,8931.722610232331
0.011846187309026826,9082.274754533299
0.012311217482038896,9226.933056737029
0.012794502732078732,9365.107223377165
0.013296759674662111,9496.191599882357
0.013818733056536317,9619.570978241665
0.014361196859990781,9734.632851185665
0.014924955450518284,9840.767496482538
0.015510844769528393,9937.375763454243
0.016119733573881575,10023.873159710947
0.01675252472408214,10099.693794196135
0.017410156523040152,10164.29670001846
0.018093604107387147,10217.171720674762
0.01880388089340914,10257.843325698177
0.019542040079740527,10285.884692987425
0.02030917620904734,10300.93352984622
0.021106426791015535,10302.680026488022
0.021934973989050584,10290.901530515706
0.02279604637318978,10265.455302209135
0.023690920741826323,10226.275066309421
0.02462092401494623,10173.42519756817
0.02558743520168586,10107.045533027107
0.02659188744512693,10027.403377993127
0.027635770147361564,9934.903212685664
0.028720631177978267,9830.019950309892
0.029848079169243254,9713.394617956948
0.03101978590138095,9585.7496885685
0.03223748878149028,9447.886263311637
0.0335029934197723,9300.72843138929
0.03481817630688963,9145.219926459888
0.03618498759642746,8982.381644178482
0.037605453996581675,8813.271047428037
0.03908168177536263,8638.878800653714
0.04061585988376978,8460.037953760011
0.04221026320156896,8277.529577157477
0.04386725591048496,8092.187538881665
0.0455892949998106,7904.897388584141
0.047378933909631396,7716.391956880724
0.049238826317067365,7526.716030321474
0.05117173007114603,7335.689482240166
0.05318051128214196,7142.793577969604
0.05526814857144601,6946.886774459558
0.057437737488265785,6747.009662341502
0.0596924950997073,6543.411278123652
0.0620357647610427,6337.043451133869
0.06447102107323864,6128.636824342396
0.06700187503509585,5918.296104557407
0.06963207939763882,5706.090302983179
0.0723655342286965,5492.514603733539
0.07520629269592405,5278.3641835932785
0.07815856707684081,5065.359467057353
0.08122673500479707,4856.447353792238
0.08441534596012978,4653.712514611876
0.0877291280161335,4457.8854206116785
0.09117299484984914,4269.246616338306
0.09475205302806537,4087.712405028585
0.09847160957933764,3913.3704829885687
0.1023371798632519,3746.2203474226917
0.10635449574860109,3584.884738973484
0.11052951411260206,3427.1648217924976
0.1148684256737553,3270.4971436064757
0.1193776641714435,3113.94465328653
0.1240639159058831,2957.9586545681914
0.12893412965257148,2804.110034559478
0.13399552696593373,2654.920197982823
0.1392556128874462,2513.2008330427975
0.14472218707411338,2379.931939004394
0.15040335536380234,2253.6215951919867
0.15630754179458153,2133.4117306165213
0.16244350109588662,2019.3282053301807
0.16882033167003618,1910.172544408274
0.17544748908334581,1803.3011947755983
0.1823348000868439,1699.4374637161065
0.189492477187382,1600.3532575424274
0.19693113379074215,1505.7750709656093
0.20466179993919872,1416.3663504704464
0.21269593866686892,1332.4859698922503
0.22104546299710207,1252.6822970357491
0.22972275360711503,1176.4823899914797
0.23874067718606454,1103.9104664322622
0.2481126055137766,1035.0098424030123
0.25785243528842716,969.8943342576865
0.26797460873256895,908.406176325344
0.27849413500806414,850.4238168069767
0.28942661247167484,795.5164576738752
0.3007882518043098,743.6956106256666
0.31259590004822796,694.822446777968
0.324867065587837,648.8435812525737
0.3376199441111335,605.5196459568896
0.35087344559027084,564.8008974753437
0.36464722232127456,526.4824135402364
0.37896169806447155,490.52457285281037
0.3938380983288488,456.7726612944086
0.4092984818452433,425.1092370621941
0.4253657732750382,395.4468312998045
0.44206379720285277,367.6769580124353
0.45941731346364734,341.6919438005995
0.47745205385661277,317.3955882776477
0.4961947603002895,294.6977008911367
0.5156732244854959,273.5053792223296
0.5359163290848509,253.72587571751455
0.556954090580013,235.2725454613771
0.5788177037701272,218.06364362525267
0.6015395880274836,202.02253163383088
0.6251534353689703,187.07996881240973
0.6496942604146115,173.16479828999175
0.6751984523072497,160.2209669908639
0.7017038286703824,148.18792896247774
0.7292496916841444,137.0077464830571
0.7578768863625915,126.62667580646117
0.7876278611187046,116.99252097071442
0.8185467307069019,108.05012097294208
0.850679341636415,99.75419133826115
0.8840733401525058,92.05956546621908
0.9187782428863317,84.92805276672945
0.9548455102782278,78.32393828857884
0.9923286228832539,72.21024131999411
1.0312831606721837,66.55266240844676
1.0717668854455022,61.31911903090912
1.1138398264826193,56.479610420018325
1.1575643695533022,52.00609781746053
1.2030053494233226,47.87239679320076
1.2502301459914542,44.05411167475473
1.299308784200415,40.528488519210384
1.3503140378698726,37.274288209199554
1.4033215376054824,34.271697315176844
1.4584098829439835,31.502243320487704
1.5156607589006013,28.948711181502755
1.575159057091621,26.5950564887417
1.6369930016117014,24.426346045027483
1.7012542798525885,22.42869322249128
1.7680381784572046,20.5891911498013
1.8374437246107238,18.895849555186462
1.9095738328780953,17.337535325993063
1.9845354578058014,15.90391663020621
2.0624397525140905,14.585409148383764
2.143402233514853,13.373125995439805
2.227542951999554,12.258830769195935
2.314986671851158,11.234893375258224
2.405863054644063,10.294242410489824
2.5003068519063225,9.430321134231956
2.598458104929248,8.63706654846625
2.7004623524206774,7.908876222172599
2.806470846309834,7.240575017146242
2.916640776023701,6.627384135592907
3.031135501567576,6.064896411303583
3.150124795755327,5.549049881569397
3.2737850959485697,5.07609512223015
3.4022997656780634,4.642571925196123
3.5358593665351745,4.245288211393568
3.6746619407366854,3.881300180352841
3.8189133047818515,3.5478897237763674
3.968827354637162,3.2425488868040735
4.1246263829013445,2.962969454967663
4.286541408420921,2.7070278273974253
4.4548125188449825,2.472770733432301
4.629689226627261,2.2584021615653698
4.811430839003257,2.062272913027541
5.000306842491082,1.882867974367469
5.196597302486189,1.7187943919003152
5.400593278542364,1.56877178511827
5.612597255954967,1.4316235968852509
5.8329235942862,1.3062688413567116
6.06189899349756,1.1917136332721359
6.29986297838068,1.0870452667289436
6.547168402004727,0.9914264288634733
6.804181968927091,0.9040891445942731
7.071284778942991,0.8243291869021302
7.348872892180382,0.7515009108694386
7.637357916378006,0.6850124582276954
7.937167617217536,0.6243214443743373
8.248746552614573,0.5689309470161646
8.572556731909314,0.5183857868283936
8.909078300934132,0.47226910367908737
9.258810253973934,0.4301993481654666
9.622271173675122,0.39182765288661736
9.999999999999984,0.3568346422542533
