k [1/Mpc],P(k) [Mpc^3]
0.0001,115.21422933195616
0.00010392556829367125,120.42974504267113
0.00010800523745162529,125.88129003401674
0.00011224505680853065,131.57953569488416
0.00011665131316981963,137.5356339221973
0.00012123054013376525,143.76123874835807
0.00012598952777950273,150.2685295723331
0.00013093533273536104,157.07023403450555
0.00013607528864243335,164.17965334212442
0.00014141701702890234,171.61069205450121
0.00014696843861124463,179.37788696375455
0.00015273778503907136,187.49642916275013
0.00015873361110102093,195.98217919901867
0.00016496480740980205,204.85170420943678
0.0001714406135851971,214.1223200011683
0.00017817063195457305,223.81212978056337
0.00018516484179121546,233.94005199589415
0.000192433614111598,244.5258508007882
0.00019998772705352857,255.5901750377
0.0002078383818579757,267.1545955191026
0.00021599721947827182,279.24163379422555
0.0002244763378413224,291.87481623517743
0.0002332883097864157,305.0787283404115
0.00024244620170823283,318.8790626839931
0.0002519635929317015,333.3026588530113
0.0002618545958474233,348.3775402160797
0.0002721338768375308,364.13297527630607
0.0002828166780230032,380.5995234253255
0.0002939188398646886,397.8090824500115
0.0003054568246515432,415.7949662502065
0.00031744774091091926,434.59198430971344
0.00032990936877709396,454.23650043761216
0.00034286018635565856,474.7664636635281
0.00035631939712285854,496.2214333490871
0.000370306958400514,518.6426993483446
0.00038484361094874304,542.0733623796522
0.0003999509097203664,566.5584119570941
0.00041565125582259895,592.1448087570304
0.00043196792973341727,618.8815678958535
0.0004489251258218605,646.8198446514397
0.0004665479882234472,676.0129460025325
0.000484862648123908,706.516396983291
0.000503896262506515,738.3881118736973
0.0005236770544204653,771.6885002887825
0.0005442343548300266,806.4805682392886
0.0005655986461065005,842.8299787107533
0.0005878016072274912,880.8051188155042
0.0006108761607505036,920.4772643994701
0.0006348565216305217,961.9206244851931
0.0006597782479539537,1005.2124828399038
0.0006856782936641739,1050.4333243039807
0.0007125950633568407,1097.6668875044486
0.0007405684692262436,1147.0003615486673
0.0007696399902471156,1198.5244656602392
0.0007998527336796708,1252.3335817293812
0.000831251498989063,1308.525886217554
0.0008638828442740447,1367.203281687518
0.000897795155303332,1428.4716870366253
0.0009330387172620361,1492.4412180469837
0.0009696657893145519,1559.2263230051585
0.001007730682094461,1628.9459011850588
0.0010472898382363582,1701.7230687209935
0.0010884019160690055,1777.6854871655514
0.0011311278765939214,1856.9655852182698
0.001175531073878369,1939.7005978626787
0.0012216773489967915,2026.0328220339636
0.0012696351276599736,2116.1093916779478
0.0013194755216767058,2210.0824953326405
0.0013712724343984,2308.1095319759647
0.0014251026703029975,2410.3527085211103
0.0014810460488806749,2516.9796262117093
0.0015391855229902056,2628.1631815406486
0.001599607301861487,2744.08161538547
0.0016624009789266115,2864.9187160191445
0.0017276596646690358,2990.8630406435595
0.0017954801246878305,3122.108535925272
0.0018659629231817451,3258.854372981108
0.001939212572065829,3401.3046158885268
0.0020153376859417325,3549.668732516716
0.002094451143151469,3704.1605287091015
0.002176670253153458,3864.998547344897
0.002262116930469025,4032.4060116874807
0.002350917875457286,4206.609888884195
0.002443204762186487,4387.841637684489
0.0025391144336803463,4576.336026269925
0.002638789104828933,4772.331038612114
0.002742376573264949,4976.067919058927
0.0028500304385181063,5187.789234266456
0.0029619103297725525,5407.739858289729
0.0030781821425650787,5636.165755171242
0.003199018284775064,5873.3131172252815
0.0033245979322709396,6119.428747869986
0.003455107294592217,6374.757359944587
0.0035907398910610534,6639.542202072357
0.0037316968377327513,6914.023578402497
0.0038781871456107214,7198.436503003265
0.0040304280305680515,7493.01186541183
0.00418864523543527,7797.972617816878
0.004353073364731888,8113.5337224539435
0.00452395623253805,8439.901179056607
0.004701547224022131,8777.267609229162
0.004886109671160325,9125.814052265703
0.005077917243205399,9485.705287683835
0.005277254352483535,9857.088227138003
0.005484416576121017,10240.09160544318
0.005699711094326071,10634.817238028745
0.005923457145875801,11041.343384753984
0.006155986501483508,11459.720423711957
0.006397643955748424,11889.966528362482
0.0066487878384172625,12332.06791754582
0.0069097905457156435,12785.958143331101
0.007181039092537346,13251.524929051711
0.007462935686310132,13728.623794767002
0.007755898323389004,14217.08529841373
0.00806036140886134,14716.693647172298
0.008376776400682916,15227.098415582304
0.008705612479099857,15747.8285680048
0.009047357242349292,16278.353783522725
0.00940251742967013,16818.10980218326
0.009771619672696168,17366.471036629828
0.010155211276345676,17922.734326729653
0.010553861030365234,18486.115859557645
0.010968160052731372,19055.736798708334
0.011398722666160517,19630.53625065443
0.011846187309026826,20209.32710032822
0.012311217482038896,20790.792169507306
0.012794502732078732,21373.46122147858
0.013296759674662111,21955.746116241222
0.013818733056536317,22535.881492079727
0.014361196859990781,23111.95523753357
0.014924955450518284,23681.90583236767
0.015510844769528393,24243.46733021621
0.016119733573881575,24794.24263858862
0.01675252472408214,25331.614013942333
0.017410156523040152,25852.77008140647
0.018093604107387147,26354.762755120748
0.01880388089340914,26834.409282938424
0.019542040079740527,27288.415416499214
0.02030917620904734,27713.318792913244
0.021106426791015535,28105.487962071966
0.021934973989050584,28461.248425003076
0.02279604637318978,28776.770997732492
0.023690920741826323,29048.217870997687
0.02462092401494623,29271.77392649893
0.02558743520168586,29443.629605969436
0.02659188744512693,29560.153692453525
0.027635770147361564,29617.88270329161
0.028720631177978267,29613.61774009496
0.029848079169243254,29544.56448266767
0.03101978590138095,29408.43994107775
0.03223748878149028,29203.479127793278
0.0335029934197723,28928.666925965055
0.03481817630688963,28583.749479633196
0.03618498759642746,28169.306513200438
0.037605453996581675,27687.493761880323
0.03908168177536263,27141.28050963385
0.04061585988376978,26534.475615175877
0.04221026320156896,25871.763399726144
0.04386725591048496,25158.8204378949
0.0455892949998106,24405.962387028205
0.047378933909631396,23624.920674703273
0.049238826317067365,22825.14633227749
0.05117173007114603,22012.477697197042
0.05318051128214196,21192.677913273437
0.05526814857144601,20378.66827688201
0.057437737488265785,19586.64364145778
0.0596924950997073,18830.07317150341
0.0620357647610427,18119.313657333536
0.06447102107323864,17462.697476632467
0.06700187503509585,16866.30455526502
0.06963207939763882,16334.524546856814
0.0723655342286965,15868.106387139751
0.07520629269592405,15465.827603099775
0.07815856707684081,15122.7720854325
0.08122673500479707,14831.78006363568
0.08441534596012978,14581.761244783342
0.0877291280161335,14358.127096669547
0.09117299484984914,14142.311003315548
0.09475205302806537,13912.034603502732
0.09847160957933764,13643.355161786434
0.1023371798632519,13313.120949269707
0.10635449574860109,12904.046877696106
0.11052951411260206,12407.209341352414
0.1148684256737553,11822.551941556503
0.1193776641714435,11158.692383416457
0.1240639159058831,10437.441962757706
0.12893412965257148,9690.600302271861
0.13399552696593373,8956.722776265637
0.1392556128874462,8277.278681611087
0.14472218707411338,7689.244485149191
0.15040335536380234,7217.8203399512
0.15630754179458153,6871.82188481198
0.16244350109588662,6642.095412785036
0.16882033167003618,6502.34854869881
0.17544748908334581,6411.378501776028
0.1823348000868439,6317.639335245577
0.189492477187382,6168.384773311513
0.19693113379074215,5923.052595839518
0.20466179993919872,5567.252383133697
0.21269593866686892,5122.709255069013
0.22104546299710207,4646.055161347994
0.22972275360711503,4209.018185440031
0.23874067718606454,3868.6649624647434
0.2481126055137766,3649.032243430528
0.25785243528842716,3536.5944454892847
0.26797460873256895,3480.7299836649063
0.27849413500806414,3408.125032875256
0.28942661247167484,3258.130763949165
0.3007882518043098,3015.5069672688633
0.31259590004822796,2722.6297274977037
0.324867065587837,2455.8267460923985
0.3376199441111335,2273.52334951187
0.35087344559027084,2181.0816368304695
0.36464722232127456,2128.8425897278785
0.37896169806447155,2046.9702480479373
0.3938380983288488,1899.102471973258
0.4092984818452433,1715.4410898696785
0.4253657732750382,1562.176603690866
0.44206379720285277,1472.725447342426
0.45941731346364734,1419.7866493230802
0.47745205385661277,1347.4079445840287
0.4961947603002895,1236.1823803215266
0.5156732244854959,1124.0980322591674
0.5359163290848509,1049.4703374380294
0.556954090580013,999.8183414376045
0.5788177037701272,936.729691501777
0.6015395880274836,856.9115745007198
0.6251534353689703,790.9964546238193
0.6496942604146115,745.4382324075438
0.6751984523072497,696.3612245401889
0.7017038286703824,639.6539139730436
0.7292496916841444,593.2935415825438
0.7578768863625915,555.3681344180544
0.7876278611187046,513.4782238019109
0.8185467307069019,474.2040154465706
0.850679341636415,441.668647855336
0.8840733401525058,410.41700803458235
0.9187782428863317,379.92514607964307
0.9548455102782278,350.9677681436278
0.9923286228832539,324.09960318528573
1.0312831606721837,299.46040051739595
1.0717668854455022,276.81104313994666
1.1138398264826193,255.9225383050983
1.1575643695533022,236.59892750424868
1.2030053494233226,218.67247780017763
1.2502301459914542,202.00190691708247
1.299308784200415,186.49619918112725
1.3503140378698726,172.09320139288255
1.4033215376054824,158.73181511261427
1.4584098829439835,146.3518172638396
1.5156607589006013,134.8942545826811
1.575159057091621,124.30085583173727
1.6369930016117014,114.51013849234053
1.7012542798525885,105.46267188593407
1.7680381784572046,97.10340170177109
1.8374437246107238,89.38132702891329
1.9095738328780953,82.24919728321295
1.9845354578058014,75.66352600079223
2.0624397525140905,69.58478275825948
2.143402233514853,63.976213553784206
2.227542951999554,58.8034913640016
2.314986671851158,54.034580015135596
2.405863054644063,49.63960171741643
2.5003068519063225,45.59062220586539
2.598458104929248,41.86151798727064
2.7004623524206774,38.42802143690042
2.806470846309834,35.267611654603705
2.916640776023701,32.35939740464984
3.031135501567576,29.684007584933326
3.150124795755327,27.22349476403721
3.2737850959485697,24.961234187416014
3.4022997656780634,22.881825835119873
3.5358593665351745,20.971009846624725
3.6746619407366854,19.215587450875066
3.8189133047818515,17.603346192068653
3.968827354637162,16.12298680751582
4.1246263829013445,14.764062603388618
4.286541408420921,13.516920955300872
4.4548125188449825,12.37264615413141
4.629689226627261,11.323006056888946
4.811430839003257,10.360401769710363
5.000306842491082,9.477820186601223
5.196597302486189,8.668792802829971
5.400593278542364,7.927355804265964
5.612597255954967,7.248012444463496
5.8329235942862,6.625698052468315
6.06189899349756,6.055746804702089
6.29986297838068,5.533861294637551
6.547168402004727,5.056085929219126
6.804181968927091,4.618780919690442
7.071284778942991,4.2185980120814905
7.348872892180382,3.852457925561761
7.637357916378006,3.5175282716822527
7.937167617217536,3.211204872453135
8.248746552614573,2.9310953281002092
8.572556731909314,2.675002368140234
8.909078300934132,2.4409084094145683
9.258810253973934,2.226961618177049
9.622271173675122,2.0314648709543595
9.999999999999984,1.8528613417271431
