k [1/Mpc],P(k) [Mpc^3]
0.0001,70.81111261160326
0.00010392556829367125,73.37811610905115
0.00010800523745162529,76.03813311228161
0.00011224505680853065,78.7945264994764
0.00011665131316981963,81.65078236544711
0.00012123054013376525,84.6105146875045
0.00012598952777950273,87.67746752112588
0.00013093533273536104,90.85551709570187
0.00013607528864243335,94.148678299242
0.00014141701702890234,97.56111028465271
0.00014696843861124463,101.09712147369589
0.00015273778503907136,104.76117478155035
0.00015873361110102093,108.55788997793431
0.00016496480740980205,112.49205062887619
0.0001714406135851971,116.56861352048426
0.00017817063195457305,120.79271790168349
0.00018516484179121546,125.1696880267237
0.000192433614111598,129.7050344200963
0.00019998772705352857,134.40446097226982
0.0002078383818579757,139.273872446014
0.00021599721947827182,144.31937312897696
0.0002244763378413224,149.5472812889086
0.0002332883097864157,154.96415005636874
0.00024244620170823283,160.57677941859384
0.0002519635929317015,166.39220908378232
0.0002618545958474233,172.41770266697452
0.0002721338768375308,178.66076900231693
0.0002828166780230032,185.1291840103906
0.0002939188398646886,191.8310036279214
0.0003054568246515432,198.77456693528583
0.00031744774091091926,205.96849618653903
0.00032990936877709396,213.4217090152374
0.00034286018635565856,221.14342879779474
0.00035631939712285854,229.1431842354476
0.000370306958400514,237.43083028483497
0.00038484361094874304,246.016560752888
0.0003999509097203664,254.91091940348224
0.00041565125582259895,264.1248052844699
0.00043196792973341727,273.669456619201
0.0004489251258218605,283.5564814743472
0.0004665479882234472,293.7978783429318
0.000484862648123908,304.4060481462037
0.000503896262506515,315.3938025868
0.0005236770544204653,326.77434162287307
0.0005442343548300266,338.561281008733
0.0005655986461065005,350.7686764266139
0.0005878016072274912,363.41102831497477
0.0006108761607505036,376.50330177423456
0.0006348565216305217,390.0608991386522
0.0006597782479539537,404.0996776526325
0.0006856782936641739,418.63598630703586
0.0007125950633568407,433.6866630331208
0.0007405684692262436,449.2690602215359
0.0007696399902471156,465.40101338729437
0.0007998527336796708,482.10083813783007
0.000831251498989063,499.38738681500973
0.0008638828442740447,517.2800388750554
0.000897795155303332,535.7987267066329
0.0009330387172620361,554.9639013941036
0.0009696657893145519,574.7964895809888
0.001007730682094461,595.3179774647066
0.0010472898382363582,616.550374278482
0.0010884019160690055,638.5162374286245
0.0011311278765939214,661.2386648376851
0.001175531073878369,684.7412050652641
0.0012216773489967915,709.047953542192
0.0012696351276599736,734.1834639699587
0.0013194755216767058,760.1727430593976
0.0013712724343984,787.0413018104966
0.0014251026703029975,814.8149877297424
0.0014810460488806749,843.5200990713138
0.0015391855229902056,873.1832938168546
0.001599607301861487,903.8315001738692
0.0016624009789266115,935.4920354303557
0.0017276596646690358,968.1923730720227
0.0017954801246878305,1001.9602279915861
0.0018659629231817451,1036.8234875250862
0.001939212572065829,1072.809970906297
0.0020153376859417325,1109.9476376697346
0.002094451143151469,1148.2643167695678
0.002176670253153458,1187.78770642035
0.002262116930469025,1228.5453937450613
0.002350917875457286,1270.5644685973214
0.002443204762186487,1313.8717466037153
0.0025391144336803463,1358.4934255548906
0.002638789104828933,1404.45491578142
0.002742376573264949,1451.781050748739
0.0028500304385181063,1500.4956484078416
0.0029619103297725525,1550.621644787861
0.0030781821425650787,1602.180775952769
0.003199018284775064,1655.1931483291226
0.0033245979322709396,1709.6775805840778
0.003455107294592217,1765.6510178380838
0.0035907398910610534,1823.1285773219274
0.0037316968377327513,1882.123376364782
0.0038781871456107214,1942.6457620585354
0.0040304280305680515,2004.703778169954
0.00418864523543527,2068.3023787295165
0.004353073364731888,2133.4432485409625
0.00452395623253805,2200.124995999535
0.004701547224022131,2268.3420662393974
0.004886109671160325,2338.0852320018143
0.005077917243205399,2409.340749631049
0.005277254352483535,2482.0896828444916
0.005484416576121017,2556.3085538875325
0.005699711094326071,2631.9676685909258
0.005923457145875801,2709.0316698070815
0.006155986501483508,2787.4591062791615
0.006397643955748424,2867.201041345526
0.0066487878384172625,2948.202070597883
0.0069097905457156435,3030.3964014367593
0.007181039092537346,3113.7084307841137
0.007462935686310132,3198.0562692723893
0.007755898323389004,3283.3543838330743
0.00806036140886134,3369.5103123509725
0.008376776400682916,3456.408365310597
0.008705612479099857,3543.906463252353
0.009047357242349292,3631.852241181027
0.00940251742967013,3720.090047919669
0.009771619672696168,3808.456810770555
0.010155211276345676,3896.7791963571412
0.010553861030365234,3984.8733251829135
0.010968160052731372,4072.543656020444
0.011398722666160517,4159.56543841118
0.011846187309026826,4245.692232519346
0.012311217482038896,4330.662117901484
0.012794502732078732,4414.191044058384
0.013296759674662111,4495.981663069991
0.013818733056536317,4575.715522868411
0.014361196859990781,4653.055040610108
0.014924955450518284,4727.649304174945
0.015510844769528393,4799.122124573842
0.016119733573881575,4867.085456672496
0.01675252472408214,4931.130269911577
0.017410156523040152,4990.823165235896
0.018093604107387147,5045.724820292606
0.01880388089340914,5095.37525072948
0.019542040079740527,5139.309307875835
0.02030917620904734,5177.0571206845825
0.021106426791015535,5208.134895943199
0.021934973989050584,5232.070733096834
0.02279604637318978,5248.39442161613
0.023690920741826323,5256.649717990195
0.02462092401494623,5256.408386552773
0.02558743520168586,5247.264911941569
0.02659188744512693,5228.857000358589
0.027635770147361564,5200.875758894423
0.028720631177978267,5163.0721361722435
0.029848079169243254,5115.269071267097
0.03101978590138095,5057.392532698287
0.03223748878149028,4989.453727800885
0.0335029934197723,4911.580722987606
0.03481817630688963,4824.039912785495
0.03618498759642746,4727.193148705771
0.037605453996581675,4621.628222134007
0.03908168177536263,4508.063287153884
0.04061585988376978,4387.305103001035
0.04221026320156896,4260.309660842963
0.04386725591048496,4128.078857130979
0.0455892949998106,3992.08894025031
0.047378933909631396,3854.105280565128
0.049238826317067365,3715.641406852518
0.05117173007114603,3577.6762522245594
0.05318051128214196,3441.0162304462447
0.05526814857144601,3307.1152525433918
0.057437737488265785,3178.107289008724
0.0596924950997073,3055.759716595995
0.0620357647610427,2941.142944954988
0.06447102107323864,2834.9947208437443
0.06700187503509585,2737.637928364729
0.06963207939763882,2649.129237535815
0.0723655342286965,2569.060396096264
0.07520629269592405,2496.6924111886906
0.07815856707684081,2430.8694995905175
0.08122673500479707,2370.1496828364784
0.08441534596012978,2312.6355964206323
0.0877291280161335,2256.129241542957
0.09117299484984914,2198.033586486273
0.09475205302806537,2135.641529593086
0.09847160957933764,2066.3803267716075
0.1023371798632519,1988.20201389336
0.10635449574860109,1900.4200344827345
0.11052951411260206,1803.5457132599224
0.1148684256737553,1699.137678514027
0.1193776641714435,1589.7922457956768
0.1240639159058831,1479.173239522565
0.12893412965257148,1371.5986793409904
0.13399552696593373,1271.5923834160349
0.1392556128874462,1183.27848788281
0.14472218707411338,1109.5081497539245
0.15040335536380234,1051.2026888710614
0.15630754179458153,1007.0191803756193
0.16244350109588662,973.4862774849366
0.16882033167003618,945.5403082927991
0.17544748908334581,917.3261725803219
0.1823348000868439,883.3203153953041
0.189492477187382,839.7381012726372
0.19693113379074215,785.738841370756
0.20466179993919872,723.9336444605459
0.21269593866686892,660.0228215358393
0.22104546299710207,601.2385368639996
0.22972275360711503,553.559652999548
0.23874067718606454,519.2515824748826
0.2481126055137766,496.3986772950791
0.25785243528842716,479.6000348031271
0.26797460873256895,461.4799196085765
0.27849413500806414,436.1912848109153
0.28942661247167484,402.85052542951536
0.3007882518043098,365.7161608537271
0.31259590004822796,331.7395630502793
0.324867065587837,306.3512946759941
0.3376199441111335,289.9066478989059
0.35087344559027084,277.61279717495546
0.36464722232127456,262.971557033367
0.37896169806447155,243.0865388583748
0.3938380983288488,220.6654767591192
0.4092984818452433,201.29062080819816
0.4253657732750382,187.853888416767
0.44206379720285277,177.9050338572598
0.45941731346364734,166.75129368593514
0.47745205385661277,152.90475281635855
0.4961947603002895,139.32255990368606
0.5156732244854959,129.0190309142259
0.5359163290848509,121.00687343633383
0.556954090580013,112.34780751398242
0.5788177037701272,102.76588655756579
0.6015395880274836,94.43757644959467
0.6251534353689703,87.84827918404535
0.6496942604146115,81.32819560698238
0.6751984523072497,74.5308955421674
0.7017038286703824,68.6361912311441
0.7292496916841444,63.53151960362617
0.7578768863625915,58.41639107287184
0.7876278611187046,53.646627705831
0.8185467307069019,49.47826249472127
0.850679341636415,45.48145725788289
0.8840733401525058,41.76768887520204
0.9187782428863317,38.371856648042645
0.9548455102782278,35.25379760264764
0.9923286228832539,32.3797917711376
1.0312831606721837,29.723996672983326
1.0717668854455022,27.27125054008726
1.1138398264826193,25.00854036780227
1.1575643695533022,22.92333620233483
1.2030053494233226,21.003624069432348
1.2502301459914542,19.237922653792708
1.299308784200415,17.614969699071487
1.3503140378698726,16.123720181505583
1.4033215376054824,14.753907429823883
1.4584098829439835,13.496032918424294
1.5156607589006013,12.34131109522836
1.575159057091621,11.281622457528494
1.6369930016117014,10.309518666811021
1.7012542798525885,9.418139722114555
1.7680381784572046,8.601123309524745
1.8374437246107238,7.85257181008637
1.9095738328780953,7.167022202429652
1.9845354578058014,6.539414917011499
2.0624397525140905,5.965056137657276
2.143402233514853,5.439606446465733
2.227542951999554,4.959061930689776
2.314986671851158,4.519730048465765
2.405863054644063,4.11820704784313
2.5003068519063225,3.751357158465465
2.598458104929248,3.416293222809568
2.7004623524206774,3.1103574440592663
2.806470846309834,2.831104163426215
2.916640776023701,2.5762839593374482
3.031135501567576,2.3438288209343834
3.150124795755327,2.1318378292579396
3.2737850959485697,1.9385644087485143
3.4022997656780634,1.762405235443441
3.5358593665351745,1.6018891308192036
3.6746619407366854,1.4556667041090943
3.8189133047818515,1.3225007210251205
3.968827354637162,1.2012568950759945
4.1246263829013445,1.0908959245944296
4.286541408420921,0.9904661464207278
4.4548125188449825,0.8990964551114331
4.629689226627261,0.8159897587499721
4.811430839003257,0.7404169048122187
5.000306842491082,0.6717109917108911
5.196597302486189,0.6092624013851652
5.400593278542364,0.5525141137339892
5.612597255954967,0.5009573263666461
5.8329235942862,0.4541274230115704
6.06189899349756,0.4116002538302936
6.29986297838068,0.3729887155610773
6.547168402004727,0.33793964494218026
6.804181968927091,0.30613093960721405
7.071284778942991,0.2772689096490992
7.348872892180382,0.25108584317008104
7.637357916378006,0.2273376821359145
7.937167617217536,0.2058020033261381
8.248746552614573,0.1862762749526809
8.572556731909314,0.1685761280984966
8.909078300934132,0.15253376678914385
9.258810253973934,0.13799652919056624
9.622271173675122,0.12482569064449345
9.999999999999984,0.11289511939922982
