k [1/Mpc],P(k) [Mpc^3]
0.0001,1054.1290444947713
0.00010392556829367125,1092.182925502709
0.00010800523745162529,1131.5968991688776
0.00011224505680853065,1172.418040502958
0.00011665131316981963,1214.6948579206714
0.00012123054013376525,1258.4771759807543
0.00012598952777950273,1303.8163510746108
0.00013093533273536104,1350.76528270502
0.00013607528864243335,1399.378458452778
0.00014141701702890234,1449.7119595869756
0.00014696843861124463,1501.8232331165198
0.00015273778503907136,1555.7713332578642
0.00015873361110102093,1611.6168394250915
0.00016496480740980205,1669.4218034770329
0.0001714406135851971,1729.2499506990114
0.00017817063195457305,1791.166468145784
0.00018516484179121546,1855.2381567392251
0.000192433614111598,1921.5332337731516
0.00019998772705352857,1990.120943410094
0.0002078383818579757,2061.072064652766
0.00021599721947827182,2134.4587070862967
0.0002244763378413224,2210.3543638177007
0.0002332883097864157,2288.8338240449166
0.00024244620170823283,2369.9724687046782
0.0002519635929317015,2453.846837269307
0.0002618545958474233,2540.5342463521633
0.0002721338768375308,2630.1126160457948
0.0002828166780230032,2722.6607369000953
0.0002939188398646886,2818.2573267992343
0.0003054568246515432,2916.9814898682534
0.00031744774091091926,3018.9125351716343
0.00032990936877709396,3124.1294793193865
0.00034286018635565856,3232.7113985118867
0.00035631939712285854,3344.736068694971
0.000370306958400514,3460.280205959855
0.00038484361094874304,3579.419784675814
0.0003999509097203664,3702.229357934295
0.00041565125582259895,3828.782301934167
0.00043196792973341727,3959.1494339638434
0.0004489251258218605,4093.398671039161
0.0004665479882234472,4231.595578454206
0.000484862648123908,4373.802052954286
0.000503896262506515,4520.076761041354
0.0005236770544204653,4670.474115658373
0.0005442343548300266,4825.043249803488
0.0005655986461065005,4983.828671128059
0.0005878016072274912,5146.867750749639
0.0006108761607505036,5314.191241215204
0.0006348565216305217,5485.822611399327
0.0006597782479539537,5661.775474608094
0.0006856782936641739,5842.0553152958355
0.0007125950633568407,6026.656136878086
0.0007405684692262436,6215.5601623744815
0.0007696399902471156,6408.738529944785
0.0007998527336796708,6606.1470048690435
0.000831251498989063,6807.728333634288
0.0008638828442740447,7013.4096754648035
0.000897795155303332,7223.100717803161
0.0009330387172620361,7436.696053517568
0.0009696657893145519,7654.072774735777
0.001007730682094461,7875.09092477189
0.0010472898382363582,8099.591538599073
0.0010884019160690055,8327.393406833948
0.0011311278765939214,8558.295768101189
0.001175531073878369,8792.073583515712
0.0012216773489967915,9028.478110934135
0.0012696351276599736,9267.241778799957
0.0013194755216767058,9508.08337561686
0.0013712724343984,9750.702655961788
0.0014251026703029975,9994.776470958705
0.0014810460488806749,10239.95824148621
0.0015391855229902056,10485.877165525733
0.001599607301861487,10732.12346137679
0.0016624009789266115,10978.258472737352
0.0017276596646690358,11223.828504156427
0.0017954801246878305,11468.37180180957
0.0018659629231817451,11711.407942143409
0.001939212572065829,11952.434627021534
0.0020153376859417325,12190.92965060243
0.002094451143151469,12426.353706508638
0.002176670253153458,12658.151802421029
0.002262116930469025,12885.754675247206
0.002350917875457286,13108.582442638575
0.002443204762186487,13326.046366102408
0.0025391144336803463,13537.548101006912
0.002638789104828933,13742.47847735731
0.002742376573264949,13940.222245740444
0.0028500304385181063,14130.160377128275
0.0029619103297725525,14311.67193729881
0.0030781821425650787,14484.138184894971
0.003199018284775064,14646.944412636638
0.0033245979322709396,14799.48321892475
0.003455107294592217,14941.097282690846
0.0035907398910610534,15070.995921619191
0.0037316968377327513,15188.39957242805
0.0038781871456107214,15292.87287566269
0.0040304280305680515,15384.269406215908
0.00418864523543527,15462.246016401268
0.004353073364731888,15525.53580801517
0.00452395623253805,15572.669725090014
0.004701547224022131,15602.660436307091
0.004886109671160325,15615.130247995257
0.005077917243205399,15609.781209664048
0.005277254352483535,15586.28794239804
0.005484416576121017,15544.35179145475
0.005699711094326071,15483.568920795304
0.005923457145875801,15403.26542855255
0.006155986501483508,15302.80496254052
0.006397643955748424,15181.509327031456
0.0066487878384172625,15038.721371827096
0.0069097905457156435,14873.871959821714
0.007181039092537346,14686.40001901312
0.007462935686310132,14475.875970690711
0.007755898323389004,14241.894389949097
0.00806036140886134,13984.089494294136
0.008376776400682916,13702.217107617871
0.008705612479099857,13395.732805334046
0.009047357242349292,13064.220940677807
0.00940251742967013,12707.47559970555
0.009771619672696168,12325.439577484767
0.010155211276345676,11918.393824498162
0.010553861030365234,11486.307191967313
0.010968160052731372,11029.318824409807
0.011398722666160517,10548.032448179478
0.011846187309026826,10043.207454212356
0.012311217482038896,9516.276064838887
0.012794502732078732,8967.94722536894
0.013296759674662111,8398.79972289226
0.013818733056536317,7811.225210863066
0.014361196859990781,7210.26325385075
0.014924955450518284,6602.023830442057
0.015510844769528393,5986.475039573112
0.016119733573881575,5357.916734553856
0.01675252472408214,4719.5227871411125
0.017410156523040152,4098.096075194709
0.018093604107387147,3521.2149290715993
0.01880388089340914,2976.6738224099413
0.019542040079740527,2406.843257820958
0.02030917620904734,1810.6729461268567
0.021106426791015535,1306.866078629741
0.021934973989050584,976.7524258393647
0.02279604637318978,749.6597673932462
0.023690920741826323,417.6643268684609
0.02462092401494623,112.10741045347552
0.02558743520168586,19.619089572120068
0.02659188744512693,7.339744018620862
0.027635770147361564,15.92422342697364
0.028720631177978267,104.42601649408094
0.029848079169243254,548.1841650765194
0.03101978590138095,1094.6060883606415
0.03223748878149028,1270.9867750408398
0.0335029934197723,1459.071658350529
0.03481817630688963,1900.4865653363395
0.03618498759642746,2477.4146195916096
0.037605453996581675,2937.767858395665
0.03908168177536263,3231.6531265474437
0.04061585988376978,3436.9489299221145
0.04221026320156896,3573.798796115792
0.04386725591048496,3587.911484348757
0.0455892949998106,3451.3070438494283
0.047378933909631396,3184.1390232789977
0.049238826317067365,2808.11392671023
0.05117173007114603,2336.4341967888063
0.05318051128214196,1822.1646932461363
0.05526814857144601,1335.709769097129
0.057437737488265785,870.611540335329
0.0596924950997073,468.2059249802498
0.0620357647610427,236.69263924226865
0.06447102107323864,69.96619509600653
0.06700187503509585,4.532453824091711
0.06963207939763882,3.5293361080485033
0.0723655342286965,51.45043257354965
0.07520629269592405,86.83320611369558
0.07815856707684081,77.3796382564579
0.08122673500479707,61.35048957327325
0.08441534596012978,21.35355531861517
0.0877291280161335,3.1268136281402703
0.09117299484984914,8.68545524222249
0.09475205302806537,104.68657139224044
0.09847160957933764,180.70193211821
0.1023371798632519,271.6871140043455
0.10635449574860109,313.94644546260054
0.11052951411260206,277.57774958702527
0.1148684256737553,205.25956315279984
0.1193776641714435,83.41668400121253
0.1240639159058831,40.876436353806405
0.12893412965257148,0.05482340939237114
0.13399552696593373,7.430579974878506
0.1392556128874462,13.13352526509973
0.14472218707411338,10.35450969507617
0.15040335536380234,0.3332784341555888
0.15630754179458153,11.36953111994901
0.16244350109588662,39.27582005328412
0.16882033167003618,67.37998665179725
0.17544748908334581,60.388647244590416
0.1823348000868439,30.692078100945558
0.189492477187382,6.919351166245731
0.19693113379074215,0.042095660853677865
0.20466179993919872,1.5176602364378662
0.21269593866686892,0.0001110618082543019
0.22104546299710207,10.985719352073728
0.22972275360711503,15.841511931759198
0.23874067718606454,18.643411807096147
0.2481126055137766,9.49925197173475
0.25785243528842716,1.2712932504319003
0.26797460873256895,0.008544455175224137
0.27849413500806414,0.017263510952151284
0.28942661247167484,2.3135850041624333
0.3007882518043098,5.982047066552051
0.31259590004822796,4.295392482082053
0.324867065587837,0.8859501709917007
0.3376199441111335,0.10616123377195191
0.35087344559027084,0.5750572449244756
0.36464722232127456,2.0682346649393013
0.37896169806447155,1.8889314640487296
0.3938380983288488,0.5550209247137151
0.4092984818452433,0.2560761259564495
0.4253657732750382,0.7175595256160977
0.44206379720285277,1.0122734377630906
0.45941731346364734,0.47710695628017613
0.47745205385661277,0.28928264421464495
0.4961947603002895,0.4634424485414214
0.5156732244854959,0.4845203944792058
0.5359163290848509,0.2892144219903158
0.556954090580013,0.1907751096476535
0.5788177037701272,0.15375883584782832
0.6015395880274836,0.14369679718978254
0.6251534353689703,0.14735140281972056
0.6496942604146115,0.15688202469103216
0.6751984523072497,0.16410256375868912
0.7017038286703824,0.16152160908632046
0.7292496916841444,0.1502364762023648
0.7578768863625915,0.13417527344565572
0.7876278611187046,0.11690814992114877
0.8185467307069019,0.10097529701334437
0.850679341636415,0.08782817827544386
0.8840733401525058,0.07754455852234685
0.9187782428863317,0.06928390106052193
0.9548455102782278,0.062399615257915084
0.9923286228832539,0.05642935511292972
1.0312831606721837,0.051039555130392336
1.0717668854455022,0.046008062080858794
1.1138398264826193,0.04130809485338662
1.1575643695533022,0.03697946734066884
1.2030053494233226,0.03304207169917144
1.2502301459914542,0.029499312294249794
1.299308784200415,0.026342155003587532
1.3503140378698726,0.023545961308987513
1.4033215376054824,0.021065012689325254
1.4584098829439835,0.01885695502492688
1.5156607589006013,0.016886137207873807
1.575159057091621,0.015122456292425862
1.6369930016117014,0.013540489963009064
1.7012542798525885,0.012120457469263119
1.7680381784572046,0.010846797896880488
1.8374437246107238,0.00970534688025302
1.9095738328780953,0.008683136487053399
1.9845354578058014,0.007768323775864976
2.0624397525140905,0.006950066283478453
2.143402233514853,0.006218206256057347
2.227542951999554,0.005563527092724088
2.314986671851158,0.004977812410639383
2.405863054644063,0.004453735361162423
2.5003068519063225,0.003984760160338408
2.598458104929248,0.003565067133266457
2.7004623524206774,0.0031894831681477617
2.806470846309834,0.002853381289121002
2.916640776023701,0.002552619082883814
3.031135501567576,0.002283488023178696
3.150124795755327,0.002042668270135328
3.2737850959485697,0.0018271907018223058
3.4022997656780634,0.0016343986500767277
3.5358593665351745,0.001461912480566476
3.6746619407366854,0.001307600833777067
3.8189133047818515,0.0011695549084376371
3.968827354637162,0.001046064627581007
4.1246263829013445,0.0009355955435406699
4.286541408420921,0.0008367741180381203
4.4548125188449825,0.0007483720149476409
4.629689226627261,0.0006692906907108967
4.811430839003257,0.0005985476373744205
5.000306842491082,0.0005352647673816652
5.196597302486189,0.0004786575439666445
5.400593278542364,0.0004280237698228826
5.612597255954967,0.0003827348537404857
5.8329235942862,0.00034222812681328674
6.06189899349756,0.0003059999386086958
6.29986297838068,0.0002735993082797061
6.547168402004727,0.00024462256166816207
6.804181968927091,0.00021870853003673382
7.071284778942991,0.0001955340829823908
7.348872892180382,0.0001748101276095171
7.637357916378006,0.0001562779859352807
7.937167617217536,0.00013970610452175951
8.248746552614573,0.00012488735853208899
8.572556731909314,0.00011163651051463695
8.909078300934132,9.978789453557554e-05
9.258810253973934,8.919334749763365e-05
9.622271173675122,7.972041914920973e-05
9.999999999999984,7.125070619865629e-05
