k [1/Mpc],P(k) [Mpc^3]
0.0001,193.33479511762926
0.00010392556829367125,199.7657121518268
0.00010800523745162529,206.41043230854768
0.00011224505680853065,213.2760484892297
0.00011665131316981963,220.3698861116023
0.00012123054013376525,227.69951081971294
0.00012598952777950273,235.27273743454205
0.00013093533273536104,243.09763697316134
0.00013607528864243335,251.18254614292687
0.00014141701702890234,259.53608211193574
0.00014696843861124463,268.16715406641754
0.00015273778503907136,277.0849630208628
0.00015873361110102093,286.2989906242972
0.00016496480740980205,295.8190195518545
0.0001714406135851971,305.65515863479953
0.00017817063195457305,315.817860560173
0.00018516484179121546,326.31792213554996
0.000192433614111598,337.166487070954
0.00019998772705352857,348.375059089938
0.0002078383818579757,359.9555107323889
0.00021599721947827182,371.9200790595118
0.0002244763378413224,384.2813938076578
0.0002332883097864157,397.0525026962862
0.00024244620170823283,410.2468855581386
0.0002519635929317015,423.87845598201096
0.0002618545958474233,437.9615574895315
0.0002721338768375308,452.5109891374592
0.0002828166780230032,467.54200879457255
0.0002939188398646886,483.0703368543515
0.0003054568246515432,499.1121944652341
0.00031744774091091926,515.6843396898578
0.00032990936877709396,532.8040752461493
0.00034286018635565856,550.4892217249871
0.00035631939712285854,568.7580842850598
0.000370306958400514,587.6295276269781
0.00038484361094874304,607.1229995750751
0.0003999509097203664,627.258548501317
0.00041565125582259895,648.056842502328
0.00043196792973341727,669.539186282844
0.0004489251258218605,691.727537469213
0.0004665479882234472,714.6444412993828
0.000484862648123908,738.3130249596496
0.000503896262506515,762.7570985746049
0.0005236770544204653,788.0011807145247
0.0005442343548300266,814.0705147989229
0.0005655986461065005,840.9910416281388
0.0005878016072274912,868.7893778815619
0.0006108761607505036,897.4928887344693
0.0006348565216305217,927.1296372825365
0.0006597782479539537,957.7284274459737
0.0006856782936641739,989.3188270909438
0.0007125950633568407,1021.9311184344036
0.0007405684692262436,1055.5963817088139
0.0007696399902471156,1090.3464639713845
0.0007998527336796708,1126.2139948542078
0.000831251498989063,1163.232397889342
0.0008638828442740447,1201.4357221440114
0.000897795155303332,1240.85879416435
0.0009330387172620361,1281.5372626793903
0.0009696657893145519,1323.5075991706933
0.001007730682094461,1366.8070809855153
0.0010472898382363582,1411.4734800709427
0.0010884019160690055,1457.5452314320498
0.0011311278765939214,1505.0615009002695
0.001175531073878369,1554.062099085425
0.0012216773489967915,1604.5875697241015
0.0012696351276599736,1656.6788927908183
0.0013194755216767058,1710.377547442694
0.0013712724343984,1765.725520860418
0.0014251026703029975,1822.7648915514621
0.0014810460488806749,1881.538177873362
0.0015391855229902056,1942.0881540672967
0.001599607301861487,2004.4577845920942
0.0016624009789266115,2068.6902717868206
0.0017276596646690358,2134.828397489437
0.0017954801246878305,2202.91489482954
0.0018659629231817451,2272.9922454650473
0.001939212572065829,2345.102374246104
0.0020153376859417325,2419.286937629618
0.002094451143151469,2495.586529213235
0.002176670253153458,2574.0409142616986
0.002262116930469025,2654.6889482796446
0.002350917875457286,2737.5679283856157
0.002443204762186487,2822.7140727952983
0.0025391144336803463,2910.1617412651244
0.002638789104828933,2999.943393848761
0.002742376573264949,3092.089640284558
0.0028500304385181063,3186.628070143914
0.0029619103297725525,3283.583940506702
0.0030781821425650787,3382.9794985752933
0.003199018284775064,3484.8335650610015
0.0033245979322709396,3589.1618806786373
0.003455107294592217,3695.9756457692047
0.0035907398910610534,3805.2820727038143
0.0037316968377327513,3917.0837144707384
0.0038781871456107214,4031.377361679192
0.0040304280305680515,4148.154967576444
0.00418864523543527,4267.401795472473
0.004353073364731888,4389.096736827255
0.00452395623253805,4513.2121281684595
0.004701547224022131,4639.71177285448
0.004886109671160325,4768.552357667474
0.005077917243205399,4899.681445052813
0.005277254352483535,5033.037185330572
0.005484416576121017,5168.548723031301
0.005699711094326071,5306.1323868269055
0.005923457145875801,5445.694131913919
0.006155986501483508,5587.128091621358
0.006397643955748424,5730.31525275739
0.0066487878384172625,5875.1244263301505
0.0069097905457156435,6021.403308006024
0.007181039092537346,6168.983007058263
0.007462935686310132,6317.685431801187
0.007755898323389004,6467.327298707976
0.00806036140886134,6617.711013949141
0.008376776400682916,6768.586463752096
0.008705612479099857,6919.660424112493
0.009047357242349292,7070.625977718996
0.00940251742967013,7221.174548130828
0.009771619672696168,7370.984757780371
0.010155211276345676,7519.716741291588
0.010553861030365234,7667.01234543285
0.010968160052731372,7812.490732558159
0.011398722666160517,7955.714885200761
0.011846187309026826,8096.217710612893
0.012311217482038896,8233.502836148937
0.012794502732078732,8367.037924786471
0.013296759674662111,8496.271026416456
0.013818733056536317,8620.609750261108
0.014361196859990781,8739.435880983126
0.014924955450518284,8852.106701032748
0.015510844769528393,8957.936945510639
0.016119733573881575,9056.228930124751
0.01675252472408214,9146.2419327733
0.017410156523040152,9227.205321049334
0.018093604107387147,9298.341432422936
0.01880388089340914,9358.832946398452
0.019542040079740527,9407.86877882222
0.02030917620904734,9444.625646476281
0.021106426791015535,9468.269663006378
0.021934973989050584,9478.000172740147
0.02279604637318978,9473.01237278418
0.023690920741826323,9452.546329969085
0.02462092401494623,9415.895746163964
0.02558743520168586,9362.400653667
0.02659188744512693,9291.500228853747
0.027635770147361564,9202.724918681051
0.028720631177978267,9095.721942860335
0.029848079169243254,8970.291978829693
0.03101978590138095,8826.413129598022
0.03223748878149028,8664.233259548042
0.0335029934197723,8484.128563184688
0.03481817630688963,8286.69384898011
0.03618498759642746,8072.750502543811
0.037605453996581675,7843.543296644941
0.03908168177536263,7600.501755424096
0.04061585988376978,7345.2353732178635
0.04221026320156896,7079.531462682223
0.04386725591048496,6805.374640047442
0.0455892949998106,6525.908467645088
0.047378933909631396,6244.514480008472
0.049238826317067365,5963.828775116557
0.05117173007114603,5685.436354349713
0.05318051128214196,5410.831237239995
0.05526814857144601,5143.245187051432
0.057437737488265785,4886.57678996406
0.0596924950997073,4643.869332692359
0.0620357647610427,4417.260422937521
0.06447102107323864,4208.292025583386
0.06700187503509585,4017.887334149739
0.06963207939763882,3846.516430179025
0.0723655342286965,3693.7668135444164
0.07520629269592405,3558.7773183669888
0.07815856707684081,3439.8724058671846
0.08122673500479707,3334.9358254101476
0.08441534596012978,3241.0629401568126
0.0877291280161335,3154.7035381056835
0.09117299484984914,3071.5983150799007
0.09475205302806537,2986.881300219395
0.09847160957933764,2895.554722981249
0.1023371798632519,2793.0180828280613
0.10635449574860109,2676.104569268566
0.11052951411260206,2543.516357904901
0.1148684256737553,2395.8241229183755
0.1193776641714435,2235.3229941811496
0.1240639159058831,2066.827976263064
0.12893412965257148,1896.8990389548603
0.13399552696593373,1733.1092707658727
0.1392556128874462,1583.2433333972838
0.14472218707411338,1453.874897269383
0.15040335536380234,1349.0644980753555
0.15630754179458153,1269.643570128824
0.16244350109588662,1213.1047713240544
0.16882033167003618,1173.942225620872
0.17544748908334581,1144.2243161184492
0.1823348000868439,1114.5456541650517
0.189492477187382,1075.7163455442408
0.19693113379074215,1021.0692045783152
0.20466179993919872,948.7106510850846
0.21269593866686892,862.9305647658762
0.22104546299710207,773.6486703807444
0.22972275360711503,692.8249218934635
0.23874067718606454,629.4874804983351
0.2481126055137766,586.9308744209818
0.25785243528842716,562.3125709118309
0.26797460873256895,547.0740867484601
0.27849413500806414,529.5105366595781
0.28942661247167484,500.39259642428624
0.3007882518043098,457.81074202314073
0.31259590004822796,408.5991907716435
0.324867065587837,364.32579608269873
0.3376199441111335,333.4071384393277
0.35087344559027084,316.1772910242042
0.36464722232127456,305.06022101391363
0.37896169806447155,289.95916364815963
0.3938380983288488,265.92366317836496
0.4092984818452433,237.44753842814177
0.4253657732750382,213.74957997246707
0.44206379720285277,199.1958148126675
0.45941731346364734,189.8299721533436
0.47745205385661277,178.08366185049664
0.4961947603002895,161.50679552313673
0.5156732244854959,145.17629754595154
0.5359163290848509,133.98154280090566
0.556954090580013,126.17670542913324
0.5788177037701272,116.85724621888572
0.6015395880274836,105.67217541619318
0.6251534353689703,96.42340277340837
0.6496942604146115,89.82616481555945
0.6751984523072497,82.94859842841738
0.7017038286703824,75.3186992413343
0.7292496916841444,69.05746752149075
0.7578768863625915,63.90064797918822
0.7876278611187046,58.402254502124045
0.8185467307069019,53.315819256889135
0.850679341636415,49.08747681047887
0.8840733401525058,45.09026264783063
0.9187782428863317,41.260903325275876
0.9548455102782278,37.67829171166682
0.9923286228832539,34.394242352532274
1.0312831606721837,31.414483704902082
1.0717668854455022,28.704977774018793
1.1138398264826193,26.234066502375665
1.1575643695533022,23.974697149613814
1.2030053494233226,21.903714080860226
1.2502301459914542,20.00149152965065
1.299308784200415,18.25408952767185
1.3503140378698726,16.650879666767835
1.4033215376054824,15.181711304314787
1.4584098829439835,13.836879001564597
1.5156607589006013,12.607145175685964
1.575159057091621,11.48366983706313
1.6369930016117014,10.457642626773254
1.7012542798525885,9.520766280152166
1.7680381784572046,8.665444717529061
1.8374437246107238,7.8847238517682605
1.9095738328780953,7.17223704955828
1.9845354578058014,6.522180602641344
2.0624397525140905,5.929305095654108
2.143402233514853,5.388790903118849
2.227542951999554,4.89620045172921
2.314986671851158,4.447450622814038
2.405863054644063,4.038786730546451
2.5003068519063225,3.666751086744618
2.598458104929248,3.328159721652456
2.7004623524206774,3.020094201532014
2.806470846309834,2.7398815806666565
2.916640776023701,2.4850746889387842
3.031135501567576,2.2534339437892585
3.150124795755327,2.042911022856669
3.2737850959485697,1.8516329821415825
3.4022997656780634,1.6778873754827794
3.5358593665351745,1.5201090776946664
3.6746619407366854,1.3768681441407113
3.8189133047818515,1.246858566796618
3.968827354637162,1.1288876964107428
4.1246263829013445,1.021867052744509
4.286541408420921,0.9248037251278477
4.4548125188449825,0.836792283327842
4.629689226627261,0.757007341125733
4.811430839003257,0.6846966870020114
5.000306842491082,0.6191749413346392
5.196597302486189,0.5598179338649174
5.400593278542364,0.506057438579155
5.612597255954967,0.45737631357597835
5.8329235942862,0.4133040464812144
6.06189899349756,0.37341263021595505
6.29986297838068,0.33731281552017894
6.547168402004727,0.30465078118574146
6.804181968927091,0.27510500428453233
7.071284778942991,0.24838338915411337
7.348872892180382,0.22422063949880158
7.637357916378006,0.2023757899090172
7.937167617217536,0.18263005583507202
8.248746552614573,0.16478491739024792
8.572556731909314,0.14866028593495106
8.909078300934132,0.13409282926350063
9.258810253973934,0.12093446290438833
9.622271173675122,0.10905107282361627
9.999999999999984,0.0983211214757602
