k [1/Mpc],P(k) [Mpc^3]
0.0001,254.42751802547266
0.00010392556829367125,265.17733393836477
0.00010800523745162529,276.3811097198128
0.00011224505680853065,288.0579870358364
0.00011665131316981963,300.2279143798564
0.00012123054013376525,312.91168799433564
0.00012598952777950273,326.13098515493954
0.00013093533273536104,339.908384141223
0.00013607528864243335,354.2673756046438
0.00014141701702890234,369.232427428364
0.00014696843861124463,384.8290493627618
0.00015273778503907136,401.0838382370458
0.00015873361110102093,418.02450550765445
0.00016496480740980205,435.67991318535843
0.0001714406135851971,454.0801282970064
0.00017817063195457305,473.256461261557
0.00018516484179121546,493.24150693486564
0.000192433614111598,514.0692181854812
0.00019998772705352857,535.7749751214468
0.0002078383818579757,558.3956394723165
0.00021599721947827182,581.9695878151767
0.0002244763378413224,606.5367367257601
0.0002332883097864157,632.1386483487695
0.00024244620170823283,658.8186321531734
0.0002519635929317015,686.6218153750643
0.0002618545958474233,715.5951800417321
0.0002721338768375308,745.7875804754774
0.0002828166780230032,777.2498624859464
0.0002939188398646886,810.0349345163215
0.0003054568246515432,844.1978375374966
0.00031744774091091926,879.7958565219644
0.00032990936877709396,916.8885921774477
0.00034286018635565856,955.5380620052279
0.00035631939712285854,995.8087702847597
0.000370306958400514,1037.7677604068954
0.00038484361094874304,1081.4847670257425
0.0003999509097203664,1127.0322841902187
0.00041565125582259895,1174.4856785094278
0.00043196792973341727,1223.9232834115492
0.0004489251258218605,1275.4263834034773
0.0004665479882234472,1329.0794345706454
0.000484862648123908,1384.9702039529795
0.000503896262506515,1443.1898880362285
0.0005236770544204653,1503.833207444179
0.0005442343548300266,1566.998296935401
0.0005655986461065005,1632.7869626008314
0.0005878016072274912,1701.3048671284182
0.0006108761607505036,1772.6616247899474
0.0006348565216305217,1846.9709721340105
0.0006597782479539537,1924.3506874425073
0.0006856782936641739,2004.9227842470727
0.0007125950633568407,2088.8137031822653
0.0007405684692262436,2176.1542699598626
0.0007696399902471156,2267.0799993054334
0.0007998527336796708,2361.7310573019854
0.000831251498989063,2460.252366440039
0.0008638828442740447,2562.7938629785394
0.000897795155303332,2669.510285988081
0.0009330387172620361,2780.561539196089
0.0009696657893145519,2896.1126912628547
0.001007730682094461,3016.333904482033
0.0010472898382363582,3141.400813484098
0.0010884019160690055,3271.493980327402
0.0011311278765939214,3406.799243805723
0.001175531073878369,3547.5079121401036
0.0012216773489967915,3693.816362065986
0.0012696351276599736,3845.9265870404383
0.0013194755216767058,4004.045505514805
0.0013712724343984,4168.384990845694
0.0014251026703029975,4339.162209965609
0.0014810460488806749,4516.598304439966
0.0015391855229902056,4700.919331187935
0.001599607301861487,4892.3558614811545
0.0016624009789266115,5091.142484778245
0.0017276596646690358,5297.518363851913
0.0017954801246878305,5511.725456761562
0.0018659629231817451,5734.009114254805
0.001939212572065829,5964.617742263089
0.0020153376859417325,6203.80122038261
0.002094451143151469,6451.8120518007745
0.002176670253153458,6708.903221221197
0.002262116930469025,6975.328031419884
0.002350917875457286,7251.340390745931
0.002443204762186487,7537.192220406758
0.0025391144336803463,7833.134589277938
0.002638789104828933,8139.415701805676
0.002742376573264949,8456.279500185285
0.0028500304385181063,8783.966429694963
0.0029619103297725525,9122.709681756773
0.0030781821425650787,9472.735947724714
0.003199018284775064,9834.263512617543
0.0033245979322709396,10207.498767719359
0.003455107294592217,10592.638092669065
0.0035907398910610534,10989.863405905251
0.0037316968377327513,11399.34172219885
0.0038781871456107214,11821.223982602645
0.0040304280305680515,12255.638621878861
0.00418864523543527,12702.694442473654
0.004353073364731888,13162.475765246358
0.00452395623253805,13635.039873723874
0.004701547224022131,14120.417324216542
0.004886109671160325,14618.600949548696
0.005077917243205399,15129.549723563001
0.005277254352483535,15653.186579323303
0.005484416576121017,16189.393436809443
0.005699711094326071,16738.010564285458
0.005923457145875801,17298.80510084832
0.006155986501483508,17871.478774864026
0.006397643955748424,18455.70266128509
0.0066487878384172625,19051.154858163238
0.0069097905457156435,19657.469327587765
0.007181039092537346,20274.069435255038
0.007462935686310132,20900.16000645467
0.007755898323389004,21534.890861368796
0.00806036140886134,22177.509921581004
0.008376776400682916,22827.24904885316
0.008705612479099857,23483.143849322554
0.009047357242349292,24143.957097975497
0.00940251742967013,24808.35115007272
0.009771619672696168,25475.012034216903
0.010155211276345676,26142.598880618738
0.010553861030365234,26809.604117305393
0.010968160052731372,27474.22806685177
0.011398722666160517,28134.532604369073
0.011846187309026826,28788.40566720914
0.012311217482038896,29433.57463224325
0.012794502732078732,30067.634411424955
0.013296759674662111,30687.97428562382
0.013818733056536317,31291.857182267235
0.014361196859990781,31876.368004826392
0.014924955450518284,32438.398434635063
0.015510844769528393,32974.730449074515
0.016119733573881575,33481.87938613449
0.01675252472408214,33956.227316495424
0.017410156523040152,34394.03975242647
0.018093604107387147,34791.397465425376
0.01880388089340914,35144.371217458014
0.019542040079740527,35448.891083326685
0.02030917620904734,35700.85026226533
0.021106426791015535,35896.21780925903
0.021934973989050584,36030.93378273865
0.02279604637318978,36101.1373316122
0.023690920741826323,36103.15511018745
0.02462092401494623,36033.555932124254
0.02558743520168586,35889.333405508514
0.02659188744512693,35667.94123305923
0.027635770147361564,35367.38729930961
0.028720631177978267,34986.42025334954
0.029848079169243254,34524.65454836248
0.03101978590138095,33982.48572036132
0.03223748878149028,33361.5966705033
0.0335029934197723,32664.687327505453
0.03481817630688963,31895.579994688796
0.03618498759642746,31059.932210615058
0.037605453996581675,30164.093037222185
0.03908168177536263,29216.138304580018
0.04061585988376978,28225.44460578809
0.04221026320156896,27201.861534192278
0.04386725591048496,26157.931728959113
0.0455892949998106,25106.046712457646
0.047378933909631396,24058.40841844318
0.049238826317067365,23027.273045970123
0.05117173007114603,22023.79325069362
0.05318051128214196,21061.80005133995
0.05526814857144601,20154.803962877857
0.057437737488265785,19313.679969103243
0.0596924950997073,18547.003708197455
0.0620357647610427,17860.57945405658
0.06447102107323864,17255.165321586454
0.06700187503509585,16729.548064477534
0.06963207939763882,16278.385782882002
0.0723655342286965,15894.526319995453
0.07520629269592405,15566.657842247161
0.07815856707684081,15280.791024832128
0.08122673500479707,15018.376124373597
0.08441534596012978,14756.408192431198
0.0877291280161335,14469.167742648662
0.09117299484984914,14132.941896190112
0.09475205302806537,13723.42465959447
0.09847160957933764,13219.870077135796
0.1023371798632519,12615.592332586808
0.10635449574860109,11916.936125789862
0.11052951411260206,11143.850577109983
0.1148684256737553,10326.592892164332
0.1193776641714435,9504.322246141108
0.1240639159058831,8719.943187177365
0.12893412965257148,8014.4964947714025
0.13399552696593373,7421.310942199977
0.1392556128874462,6959.348196386195
0.14472218707411338,6630.028731198576
0.15040335536380234,6417.282008924888
0.15630754179458153,6288.506193700804
0.16244350109588662,6196.398675590152
0.16882033167003618,6084.454855661036
0.17544748908334581,5899.201424508256
0.1823348000868439,5606.656642473129
0.189492477187382,5205.91307263725
0.19693113379074215,4734.01391057409
0.20466179993919872,4256.603701408916
0.21269593866686892,3842.4160214616463
0.22104546299710207,3536.3898807213986
0.22972275360711503,3349.6487910557694
0.23874067718606454,3258.101206475424
0.2481126055137766,3202.6941415350375
0.25785243528842716,3110.319255541438
0.26797460873256895,2934.452562514451
0.27849413500806414,2679.745816406995
0.28942661247167484,2399.5433298581966
0.3007882518043098,2163.9637508752107
0.31259590004822796,2014.497349312541
0.324867065587837,1940.0150091345865
0.3376199441111335,1884.2193901772773
0.35087344559027084,1788.7030711929235
0.36464722232127456,1637.7579861253148
0.37896169806447155,1471.8003482386182
0.3938380983288488,1345.8513537755086
0.4092984818452433,1273.8121443528817
0.4253657732750382,1220.973149722803
0.44206379720285277,1143.6866279779592
0.45941731346364734,1040.3080791091195
0.47745205385661277,947.6465178520833
0.4961947603002895,887.2278146197035
0.5156732244854959,839.523147031143
0.5359163290848509,777.8440957369999
0.556954090580013,709.4419718443344
0.5788177037701272,656.3320021962055
0.6015395880274836,615.424481125283
0.6251534353689703,569.744830023677
0.6496942604146115,522.2225355392628
0.6751984523072497,484.1585892700804
0.7017038286703824,450.0785748417274
0.7292496916841444,414.0626974591984
0.7578768863625915,382.0101558781761
0.7876278611187046,353.86812809516437
0.8185467307069019,327.1032538883788
0.850679341636415,301.7367422827074
0.8840733401525058,277.95115255236135
0.9187782428863317,255.86045205486835
0.9548455102782278,235.51780976067886
0.9923286228832539,216.84855223307505
1.0312831606721837,199.68478371985856
1.0717668854455022,183.8751802071726
1.1138398264826193,169.28752906450637
1.1575643695533022,155.80613627060933
1.2030053494233226,143.33073901085524
1.2502301459914542,131.78775994974842
1.299308784200415,121.11926508175601
1.3503140378698726,111.26948793229143
1.4033215376054824,102.18472024839221
1.4584098829439835,93.81345627347275
1.5156607589006013,86.10610959397958
1.575159057091621,79.01270448914875
1.6369930016117014,72.48543492095388
1.7012542798525885,66.48016889224436
1.7680381784572046,60.95617450191278
1.8374437246107238,55.8758572302342
1.9095738328780953,51.20462220636021
1.9845354578058014,46.910992375710414
2.0624397525140905,42.96590575650733
2.143402233514853,39.34238015750339
2.227542951999554,36.01538056564926
2.314986671851158,32.96169337118461
2.405863054644063,30.159773880717342
2.5003068519063225,27.589581659071474
2.598458104929248,25.232583883247898
2.7004623524206774,23.071669424097827
2.806470846309834,21.09104545307343
2.916640776023701,19.276141105748867
3.031135501567576,17.613525163079718
3.150124795755327,16.09082631450561
3.2737850959485697,14.696638408474922
3.4022997656780634,13.4204473866736
3.5358593665351745,12.252565275674746
3.6746619407366854,11.184068556050292
3.8189133047818515,10.206735725823187
3.968827354637162,9.312994684913999
4.1246263829013445,8.495881286606584
4.286541408420921,7.748993038646699
4.4548125188449825,7.066445618390123
4.629689226627261,6.442832581484788
4.811430839003257,5.873188049878309
5.000306842491082,5.352952162865091
5.196597302486189,4.8779391039542315
5.400593278542364,4.444307531305426
5.612597255954967,4.048533237770422
5.8329235942862,3.687383870242934
6.06189899349756,3.357895484317873
6.29986297838068,3.057351080948742
6.547168402004727,2.783260781653452
6.804181968927091,2.5333434520901266
7.071284778942991,2.305509751534712
7.348872892180382,2.0978462577915056
7.637357916378006,1.9085999801624967
7.937167617217536,1.736166496612159
8.248746552614573,1.5790782841552602
8.572556731909314,1.4359933188132337
8.909078300934132,1.3056845967949757
9.258810253973934,1.1870309561486152
9.622271173675122,1.079009236784061
9.999999999999984,0.9806843507636535
