k [1/Mpc],P(k) [Mpc^3]
0.0001,4724.293303268304
0.00010392556829367125,4894.840725337653
0.00010800523745162529,5071.483755203713
0.00011224505680853065,5254.4330621857125
0.00011665131316981963,5443.90598653762
0.00012123054013376525,5640.126238724902
0.00012598952777950273,5843.32445784469
0.00013093533273536104,6053.737901784039
0.00013607528864243335,6271.610309923691
0.00014141701702890234,6497.192666850649
0.00014696843861124463,6730.742497450069
0.00015273778503907136,6972.524466471189
0.00015873361110102093,7222.810324999951
0.00016496480740980205,7481.87816450223
0.0001714406135851971,7750.013538942577
0.00017817063195457305,8027.508445378119
0.00018516484179121546,8314.66157831322
0.000192433614111598,8611.778693671009
0.00019998772705352857,8919.170691027954
0.0002078383818579757,9237.15523983361
0.00021599721947827182,9566.05556080033
0.0002244763378413224,9906.199690995383
0.0002332883097864157,10257.921921535044
0.00024244620170823283,10621.560201149301
0.0002519635929317015,10997.457370918364
0.0002618545958474233,11385.960251092809
0.0002721338768375308,11787.417082463067
0.0002828166780230032,12202.180019431538
0.0002939188398646886,12630.601531158974
0.0003054568246515432,13073.034667701606
0.00031744774091091926,13529.833919458564
0.00032990936877709396,14001.351468622095
0.00034286018635565856,14487.939376242535
0.00035631939712285854,14989.946008515688
0.000370306958400514,15507.714141106158
0.00038484361094874304,16041.583134484134
0.0003999509097203664,16591.88319686541
0.00041565125582259895,17158.93729429112
0.00043196792973341727,17743.059569760593
0.0004489251258218605,18344.551368661112
0.0004665479882234472,18963.703624803104
0.000484862648123908,19600.79095490731
0.000503896262506515,20256.071481797404
0.0005236770544204653,20929.785759826656
0.0005442343548300266,21622.14814329132
0.0005655986461065005,22333.351390694093
0.0005878016072274912,23063.559896928848
0.0006108761607505036,23812.906288887378
0.0006348565216305217,24581.493340169956
0.0006597782479539537,25369.379019067495
0.0006856782936641739,26176.58223791012
0.0007125950633568407,27003.077267797154
0.0007405684692262436,27848.783462598014
0.0007696399902471156,28713.57298802127
0.0007998527336796708,29597.251327054884
0.000831251498989063,30499.559887926076
0.0008638828442740447,31420.17800861156
0.000897795155303332,32358.70669638106
0.0009330387172620361,33314.67885959614
0.0009696657893145519,34287.551100499906
0.001007730682094461,35276.699820805254
0.0010472898382363582,36281.4226310126
0.0010884019160690055,37300.91816836285
0.0011311278765939214,38334.29546861056
0.001175531073878369,39380.560437723965
0.0012216773489967915,40438.599496044495
0.0012696351276599736,41507.208125742196
0.0013194755216767058,42585.14501631954
0.0013712724343984,43671.11228255965
0.0014251026703029975,44763.70204691789
0.0014810460488806749,45861.35116960905
0.0015391855229902056,46962.38772900433
0.001599607301861487,48065.01822925411
0.0016624009789266115,49167.32758531656
0.0017276596646690358,50267.31067388724
0.0017954801246878305,51362.913101381535
0.0018659629231817451,52452.00636531785
0.001939212572065829,53532.377334464356
0.0020153376859417325,54601.73184152907
0.002094451143151469,55657.70706298641
0.002176670253153458,56697.929346224344
0.002262116930469025,57719.99749461889
0.002350917875457286,58721.45706735438
0.002443204762186487,59699.80095305089
0.0025391144336803463,60652.48973822667
0.002638789104828933,61577.0484463834
0.002742376573264949,62471.07004273862
0.0028500304385181063,63332.132273237694
0.0029619103297725525,64157.73620844624
0.0030781821425650787,64945.37378310538
0.003199018284775064,65692.61799909624
0.0033245979322709396,66397.1617850999
0.003455107294592217,67056.68602803779
0.0035907398910610534,67668.35950654517
0.0037316968377327513,68229.12335687161
0.0038781871456107214,68736.74468519441
0.0040304280305680515,69190.94429505318
0.00418864523543527,69591.68181547902
0.004353073364731888,69936.0263760549
0.00452395623253805,70218.6645099643
0.004701547224022131,70435.04471843697
0.004886109671160325,70583.8920438635
0.005077917243205399,70664.941926223
0.005277254352483535,70678.14689614225
0.005484416576121017,70623.68290648554
0.005699711094326071,70501.76749660324
0.005923457145875801,70311.65702731027
0.006155986501483508,70052.29329298926
0.006397643955748424,69722.76554247926
0.0066487878384172625,69322.23574514463
0.0069097905457156435,68850.11301172202
0.007181039092537346,68306.27733169668
0.007462935686310132,67691.03265316445
0.007755898323389004,67005.0101753209
0.00806036140886134,66249.30940814727
0.008376776400682916,65425.322020168736
0.008705612479099857,64533.987580312925
0.009047357242349292,63575.670905785635
0.00940251742967013,62551.16145329456
0.009771619672696168,61462.42164321323
0.010155211276345676,60312.0520605348
0.010553861030365234,59102.5405737906
0.010968160052731372,57835.8866090631
0.011398722666160517,56514.340807111745
0.011846187309026826,55140.42253112923
0.012311217482038896,53716.94659738975
0.012794502732078732,52247.164563034166
0.013296759674662111,50734.95866226694
0.013818733056536317,49184.53678415068
0.014361196859990781,47600.11068507602
0.014924955450518284,45985.87069532413
0.015510844769528393,44346.329162365284
0.016119733573881575,42686.761787660515
0.01675252472408214,41012.73608535551
0.017410156523040152,39330.11702877714
0.018093604107387147,37645.22346265796
0.01880388089340914,35964.27704341348
0.019542040079740527,34293.95713138821
0.02030917620904734,32640.952589681627
0.021106426791015535,31011.89610805259
0.021934973989050584,29414.314369268825
0.02279604637318978,27855.035001432214
0.023690920741826323,26340.152889627057
0.02462092401494623,24875.014516009313
0.02558743520168586,23464.63992960941
0.02659188744512693,22116.996887609374
0.027635770147361564,20839.40146667194
0.028720631177978267,19634.829064195546
0.029848079169243254,18501.191875929802
0.03101978590138095,17435.956474284085
0.03223748878149028,16438.119282258886
0.0335029934197723,15507.171713183265
0.03481817630688963,14641.979937530581
0.03618498759642746,13840.809409657259
0.037605453996581675,13101.3910699541
0.03908168177536263,12416.589376219163
0.04061585988376978,11775.624365942942
0.04221026320156896,11168.910684412678
0.04386725591048496,10586.878073930977
0.0455892949998106,10021.190072204568
0.047378933909631396,9465.920057021229
0.049238826317067365,8917.697430193475
0.05117173007114603,8374.133679567929
0.05318051128214196,7832.293596694341
0.05526814857144601,7289.837398116028
0.057437737488265785,6751.616928523514
0.0596924950997073,6232.681340798566
0.0620357647610427,5743.615291484615
0.06447102107323864,5284.57569635591
0.06700187503509585,4855.894468919683
0.06963207939763882,4469.106371213769
0.0723655342286965,4133.1036925440385
0.07520629269592405,3844.495798688786
0.07815856707684081,3595.743696073576
0.08122673500479707,3376.1065281536235
0.08441534596012978,3177.0483499760503
0.0877291280161335,2990.476394935733
0.09117299484984914,2801.7754040777177
0.09475205302806537,2607.6252631446196
0.09847160957933764,2415.043044853695
0.1023371798632519,2224.128563362677
0.10635449574860109,2034.3673300545292
0.11052951411260206,1854.784788604839
0.1148684256737553,1698.519098688172
0.1193776641714435,1563.9143486151304
0.1240639159058831,1446.3035196206417
0.12893412965257148,1342.401050814737
0.13399552696593373,1248.6400065277296
0.1392556128874462,1155.4298508883764
0.14472218707411338,1063.7153895304748
0.15040335536380234,975.6622842165126
0.15630754179458153,893.8141340148906
0.16244350109588662,819.9102338592388
0.16882033167003618,753.2606750109796
0.17544748908334581,693.8318162834738
0.1823348000868439,638.6483453261554
0.189492477187382,586.4228564045653
0.19693113379074215,537.7962039814312
0.20466179993919872,492.71466880389755
0.21269593866686892,451.84228844309786
0.22104546299710207,414.26511520159573
0.22972275360711503,379.8473913715097
0.23874067718606454,347.895976449743
0.2481126055137766,318.46289202168464
0.25785243528842716,291.4921030764142
0.26797460873256895,266.75561198280064
0.27849413500806414,244.03276489915157
0.28942661247167484,223.15030778121996
0.3007882518043098,203.96396971287115
0.31259590004822796,186.38266066402454
0.324867065587837,170.2681534449819
0.3376199441111335,155.48853866751801
0.35087344559027084,141.94445167257783
0.36464722232127456,129.53936537393452
0.37896169806447155,118.18167495827136
0.3938380983288488,107.7858533873285
0.4092984818452433,98.27731261660738
0.4253657732750382,89.58317549140138
0.44206379720285277,81.64241465632462
0.45941731346364734,74.3848098425017
0.47745205385661277,67.75682127490738
0.4961947603002895,61.70547598390877
0.5156732244854959,56.180994993059656
0.5359163290848509,51.13653084962759
0.556954090580013,46.53201338304368
0.5788177037701272,42.32999408101904
0.6015395880274836,38.496538897429055
0.6251534353689703,35.00115032054054
0.6496942604146115,31.816113128882208
0.6751984523072497,28.91525318535948
0.7017038286703824,26.274011773189887
0.7292496916841444,23.869958142151244
0.7578768863625915,21.681479777030933
0.7876278611187046,19.688633847810237
0.8185467307069019,17.874577602183177
0.850679341636415,16.223943297594378
0.8840733401525058,14.72259491798576
0.9187782428863317,13.35754055063934
0.9548455102782278,12.116846234428944
0.9923286228832539,10.98947663445179
1.0312831606721837,9.965253254025326
1.0717668854455022,9.034892537882383
1.1138398264826193,8.189933350451353
1.1575643695533022,7.422665208280923
1.2030053494233226,6.7260637334557645
1.2502301459914542,6.093742611066323
1.299308784200415,5.519889473840213
1.3503140378698726,4.99920499177025
1.4033215376054824,4.52685869032799
1.4584098829439835,4.0984486713316075
1.5156607589006013,3.709964902090539
1.575159057091621,3.3577567354874747
1.6369930016117014,3.0385002835236463
1.7012542798525885,2.7491691104302665
1.7680381784572046,2.487008386220117
1.8374437246107238,2.2495112086877573
1.9095738328780953,2.034396487670229
1.9845354578058014,1.8395877351733818
2.0624397525140905,1.6631969877091144
2.143402233514853,1.503508731486434
2.227542951999554,1.3589644752902161
2.314986671851158,1.2281486695760568
2.405863054644063,1.1097756630588256
2.5003068519063225,1.002677693967576
2.598458104929248,0.9057948575140135
2.7004623524206774,0.8181654319447554
2.806470846309834,0.7389169319408828
2.916640776023701,0.6672579651655896
3.031135501567576,0.602471191699324
3.150124795755327,0.5439067455177965
3.2737850959485697,0.4909752337516927
3.4022997656780634,0.44314213560464594
3.5358593665351745,0.3999228020157258
3.6746619407366854,0.36087788875157933
3.8189133047818515,0.32560882905953276
3.968827354637162,0.29375412175562554
4.1246263829013445,0.2649864814534719
4.286541408420921,0.2390096723843171
4.4548125188449825,0.2155555944124583
4.629689226627261,0.1943816510818435
4.811430839003257,0.1752685360637074
5.000306842491082,0.15801794223753804
5.196597302486189,0.142450388015467
5.400593278542364,0.12840345348429236
5.612597255954967,0.11573018500866424
5.8329235942862,0.104297638138299
6.06189899349756,0.09398549756474164
6.29986297838068,0.0846849459719289
6.547168402004727,0.07629762762812681
6.804181968927091,0.06873465461716666
7.071284778942991,0.06191570565753764
7.348872892180382,0.055768208703517584
7.637357916378006,0.05022659737819801
7.937167617217536,0.04523164642803182
8.248746552614573,0.040729867016574835
8.572556731909314,0.03667295675418954
8.909078300934132,0.03301730185493025
9.258810253973934,0.029723534048384907
9.622271173675122,0.026756139034993087
9.999999999999984,0.02408305681898238
