k [1/Mpc],P(k) [Mpc^3]
0.0001,421.33301189013963
0.00010392556829367125,437.86842182851746
0.00010800523745162529,455.05239201647964
0.00011224505680853065,472.91031433736794
0.00011665131316981963,491.4685745748642
0.00012123054013376525,510.75460260458516
0.00012598952777950273,530.7969091499705
0.00013093533273536104,551.6251001526476
0.00013607528864243335,573.2698768247262
0.00014141701702890234,595.7631218590786
0.00014696843861124463,619.1379836355213
0.00015273778503907136,643.4289276468008
0.00015873361110102093,668.6717586066911
0.00016496480740980205,694.9036553583992
0.0001714406135851971,722.1632344717211
0.00017817063195457305,750.4905870415356
0.00018516484179121546,779.9273188713335
0.000192433614111598,810.5166410485929
0.00019998772705352857,842.3034519065958
0.0002078383818579757,875.3343940762884
0.00021599721947827182,909.6578772504015
0.0002244763378413224,945.3240877281323
0.0002332883097864157,982.3851225273736
0.00024244620170823283,1020.8951150186491
0.0002519635929317015,1060.910309740186
0.0002618545958474233,1102.489084151104
0.0002721338768375308,1145.6919397300724
0.0002828166780230032,1190.5816486986193
0.0002939188398646886,1237.2233245270077
0.0003054568246515432,1285.684488999504
0.00031744774091091926,1336.0352009372762
0.00032990936877709396,1388.348122186171
0.00034286018635565856,1442.6986263873202
0.00035631939712285854,1499.1648587248585
0.000370306958400514,1557.8277677676608
0.00038484361094874304,1618.7712857851807
0.0003999509097203664,1682.082380154788
0.00041565125582259895,1747.851170485024
0.00043196792973341727,1816.1710152359803
0.0004489251258218605,1887.1384336472202
0.0004665479882234472,1960.8533771030156
0.000484862648123908,2037.419376019995
0.000503896262506515,2116.943653081581
0.0005236770544204653,2199.5371992069545
0.0005442343548300266,2285.3145491640257
0.0005655986461065005,2374.394094522682
0.0005878016072274912,2466.898286391808
0.0006108761607505036,2562.9537035835547
0.0006348565216305217,2662.6912281736463
0.0006597782479539537,2766.245856295658
0.0006856782936641739,2873.756904431725
0.0007125950633568407,2985.36820917712
0.0007405684692262436,3101.2279896410946
0.0007696399902471156,3221.48920320137
0.0007998527336796708,3346.3094104843763
0.000831251498989063,3475.850843631129
0.0008638828442740447,3610.28068729449
0.000897795155303332,3749.7706962816014
0.0009330387172620361,3894.497621386801
0.0009696657893145519,4044.643122242424
0.001007730682094461,4200.393581294236
0.0010472898382363582,4361.940545137231
0.0010884019160690055,4529.479878764944
0.0011311278765939214,4703.212168211619
0.001175531073878369,4883.34290000102
0.0012216773489967915,5070.081822027659
0.0012696351276599736,5263.643613774816
0.0013194755216767058,5464.246852183853
0.0013712724343984,5672.113976660217
0.0014251026703029975,5887.471673020703
0.0014810460488806749,6110.5490076023625
0.0015391855229902056,6341.578641316448
0.001599607301861487,6580.79621750852
0.0016624009789266115,6828.439632205682
0.0017276596646690358,7084.749722466913
0.0017954801246878305,7349.967831124754
0.0018659629231817451,7624.336571707649
0.001939212572065829,7908.099340408823
0.0020153376859417325,8201.498191613595
0.002094451143151469,8504.775350551161
0.002176670253153458,8818.17037281429
0.002262116930469025,9141.919946087586
0.002350917875457286,9476.258284819916
0.002443204762186487,9821.413765206804
0.0025391144336803463,10177.610461760578
0.002638789104828933,10545.065580905917
0.002742376573264949,10923.98773292915
0.0028500304385181063,11314.578020912393
0.0029619103297725525,11717.025303466526
0.0030781821425650787,12131.507317034093
0.003199018284775064,12558.188383346831
0.0033245979322709396,12997.215144576583
0.003455107294592217,13448.719191110626
0.0035907398910610534,13912.811630317095
0.0037316968377327513,14389.582809291442
0.0038781871456107214,14879.101129086408
0.0040304280305680515,15381.405277267619
0.00418864523543527,15896.508244017085
0.004353073364731888,16424.39163519459
0.00452395623253805,16965.002940620543
0.004701547224022131,17518.25640900047
0.004886109671160325,18084.01992533632
0.005077917243205399,18662.12045013297
0.005277254352483535,19252.34193377054
0.005484416576121017,19854.41984988136
0.005699711094326071,20468.041128168858
0.005923457145875801,21092.806492087468
0.006155986501483508,21728.24110890338
0.006397643955748424,22373.837845597038
0.0066487878384172625,23029.10331468223
0.0069097905457156435,23693.496052486324
0.007181039092537346,24366.22719157369
0.007462935686310132,25046.25455048973
0.007755898323389004,25732.48176101404
0.00806036140886134,26423.941556409514
0.008376776400682916,27119.658371194862
0.008705612479099857,27818.435077235685
0.009047357242349292,28518.765807194482
0.00940251742967013,29219.04356892
0.009771619672696168,29917.707561939136
0.010155211276345676,30613.183424569255
0.010553861030365234,31303.720319788805
0.010968160052731372,31987.247608318652
0.011398722666160517,32661.557988325785
0.011846187309026826,33324.268556912866
0.012311217482038896,33972.83896733417
0.012794502732078732,34604.60623417977
0.013296759674662111,35216.70275187957
0.013818733056536317,35806.150184173974
0.014361196859990781,36369.80234872004
0.014924955450518284,36904.33059875449
0.015510844769528393,37406.32146327856
0.016119733573881575,37872.10063969136
0.01675252472408214,38297.88747031771
0.017410156523040152,38679.815579999944
0.018093604107387147,39013.85797758449
0.01880388089340914,39296.02507517972
0.019542040079740527,39522.21880067903
0.02030917620904734,39688.34991156124
0.021106426791015535,39790.46318179592
0.021934973989050584,39824.619930724424
0.02279604637318978,39787.14950298283
0.023690920741826323,39674.63301568177
0.02462092401494623,39483.95993708601
0.02558743520168586,39212.523488382125
0.02659188744512693,38858.252114626775
0.027635770147361564,38419.704210388714
0.028720631177978267,37896.261329475215
0.029848079169243254,37288.25150465731
0.03101978590138095,36596.8444335686
0.03223748878149028,35824.582996033896
0.0335029934197723,34975.073919411276
0.03481817630688963,34053.08472130186
0.03618498759642746,33065.28557820905
0.037605453996581675,32019.007471040197
0.03908168177536263,30923.327857639255
0.04061585988376978,29788.595300102937
0.04221026320156896,28625.539311093875
0.04386725591048496,27447.59351301923
0.0455892949998106,26267.879984425632
0.047378933909631396,25099.172505959967
0.049238826317067365,23954.15416445146
0.05117173007114603,22844.216660152448
0.05318051128214196,21783.38934636607
0.05526814857144601,20785.207580344035
0.057437737488265785,19860.338118889955
0.0596924950997073,19016.96404632616
0.0620357647610427,18260.337100099634
0.06447102107323864,17590.500235761287
0.06700187503509585,17005.487787586797
0.06963207939763882,16499.167854256262
0.0723655342286965,16063.64557699316
0.07520629269592405,15686.921477721035
0.07815856707684081,15354.440608481053
0.08122673500479707,15047.243831777689
0.08441534596012978,14742.137630351897
0.0877291280161335,14413.490695606422
0.09117299484984914,14037.96041617574
0.09475205302806537,13591.8872053523
0.09847160957933764,13055.402501478218
0.1023371798632519,12422.71565431457
0.10635449574860109,11700.901654459847
0.11052951411260206,10910.27800955126
0.1148684256737553,10080.995304044698
0.1193776641714435,9251.52503782252
0.1240639159058831,8463.532194671647
0.12893412965257148,7756.397502854517
0.13399552696593373,7161.603326732902
0.1392556128874462,6696.44057828237
0.14472218707411338,6361.165328918007
0.15040335536380234,6139.2909687403035
0.15630754179458153,5998.745049867858
0.16244350109588662,5893.83649212418
0.16882033167003618,5770.669786619926
0.17544748908334581,5578.836002133668
0.1823348000868439,5286.888477461143
0.189492477187382,4894.84473645123
0.19693113379074215,4438.307187842655
0.20466179993919872,3979.210058269497
0.21269593866686892,3581.655831011959
0.22104546299710207,3286.89193160526
0.22972275360711503,3104.347852223278
0.23874067718606454,3010.7971455679713
0.2481126055137766,2951.061156356814
0.25785243528842716,2857.67958826461
0.26797460873256895,2688.3231776058688
0.27849413500806414,2447.900742822427
0.28942661247167484,2185.619810947893
0.3007882518043098,1965.3586877155346
0.31259590004822796,1824.334037291136
0.324867065587837,1751.8163284782497
0.3376199441111335,1696.5269706207566
0.35087344559027084,1605.8810437050238
0.36464722232127456,1466.1238686287888
0.37896169806447155,1313.7588634264898
0.3938380983288488,1197.869957056839
0.4092984818452433,1130.4823380464588
0.4253657732750382,1080.4640702757265
0.44206379720285277,1009.153146508228
0.45941731346364734,915.2881210660596
0.47745205385661277,831.3579329060901
0.4961947603002895,776.1088611894861
0.5156732244854959,732.2611406069168
0.5359163290848509,676.5060608651951
0.556954090580013,615.2361279545244
0.5788177037701272,567.5372241487252
0.6015395880274836,530.6294609290109
0.6251534353689703,489.827093021198
0.6496942604146115,447.67602675470476
0.6751984523072497,413.84878984431197
0.7017038286703824,383.6084876552098
0.7292496916841444,351.8939454056429
0.7578768863625915,323.7176774398389
0.7876278611187046,299.00522326508496
0.8185467307069019,275.59289060669
0.850679341636415,253.48785837441608
0.8840733401525058,232.83231898115426
0.9187782428863317,213.70946974009465
0.9548455102782278,196.15084218905952
0.9923286228832539,180.08136322627573
1.0312831606721837,165.34955646841658
1.0717668854455022,151.81930285120785
1.1138398264826193,139.37172229500166
1.1575643695533022,127.90280771511135
1.2030053494233226,117.32233009327204
1.2502301459914542,107.56283375081624
1.299308784200415,98.57032884753791
1.3503140378698726,90.29316725935311
1.4033215376054824,82.68192466400944
1.4584098829439835,75.6894889936998
1.5156607589006013,69.2708032457051
1.575159057091621,63.38098770091058
1.6369930016117014,57.977387773695845
1.7012542798525885,53.02074531502522
1.7680381784572046,48.47493521091821
1.8374437246107238,44.30671503954941
1.9095738328780953,40.4855775060598
1.9845354578058014,36.98380683486703
2.0624397525140905,33.77588853514742
2.143402233514853,30.838217076270922
2.227542951999554,28.148966762581455
2.314986671851158,25.687969944711213
2.405863054644063,23.436576369726644
2.5003068519063225,21.377505337439498
2.598458104929248,19.494830041939213
2.7004623524206774,17.77389324857548
2.806470846309834,16.201210845640414
2.916640776023701,14.764382318963612
3.031135501567576,13.452013341804395
3.150124795755327,12.253641541394238
3.2737850959485697,11.159652030610669
3.4022997656780634,10.161210707898668
3.5358593665351745,9.250203938500531
3.6746619407366854,8.419182481714579
3.8189133047818515,7.66130569785707
3.968827354637162,6.970293991989245
4.1246263829013445,6.340390341872807
4.286541408420921,5.766318815449777
4.4548125188449825,5.243245831814859
4.629689226627261,4.766744397883425
4.811430839003257,4.3327611090373646
5.000306842491082,3.9375857047441403
5.196597302486189,3.5778229956882415
5.400593278542364,3.2503669935795325
5.612597255954967,2.9523770769381286
5.8329235942862,2.681256032189596
6.06189899349756,2.434629773733478
6.29986297838068,2.210328818762486
6.547168402004727,2.00637123717229
6.804181968927091,1.820946913141169
7.071284778942991,1.6524030786103259
7.348872892180382,1.4992308451231922
7.637357916378006,1.3600522264408015
7.937167617217536,1.2336099436443784
8.248746552614573,1.1187575279059727
8.572556731909314,1.014449770526386
8.909078300934132,0.9197339738920807
9.258810253973934,0.833742255135264
9.622271173675122,0.7556849092361763
9.999999999999984,0.684842417499861
