k [1/Mpc],P(k) [Mpc^3]
0.0001,116.74776064182475
0.00010392556829367125,120.98001919951113
0.00010800523745162529,125.36563091665113
0.00011224505680853065,129.91015302753084
0.00011665131316981963,134.61933324662888
0.00012123054013376525,139.49911873384934
0.00012598952777950273,144.55567217242879
0.00013093533273536104,149.79538483952769
0.00013607528864243335,155.22487975381625
0.00014141701702890234,160.85101575258443
0.00014696843861124463,166.68089548495635
0.00015273778503907136,172.7218763894378
0.00015873361110102093,178.9815780439549
0.00016496480740980205,185.467892804215
0.0001714406135851971,192.18899700252052
0.00017817063195457305,199.15336161169895
0.00018516484179121546,206.3697604453614
0.000192433614111598,213.84727145383152
0.00019998772705352857,221.59529155612
0.0002078383818579757,229.62355211304
0.00021599721947827182,237.94212999760532
0.0002244763378413224,246.56146063842309
0.0002332883097864157,255.49235142737268
0.00024244620170823283,264.74599465890935
0.0002519635929317015,274.3339757708396
0.0002618545958474233,284.2682739006475
0.0002721338768375308,294.5612868825667
0.0002828166780230032,305.2258419452751
0.0002939188398646886,316.2752086507416
0.0003054568246515432,327.7231209988547
0.00031744774091091926,339.5837926049022
0.00032990936877709396,351.87193351449196
0.00034286018635565856,364.60275684996736
0.00035631939712285854,377.7919872605434
0.000370306958400514,391.4558882428708
0.00038484361094874304,405.6112452130493
0.0003999509097203664,420.2753964610252
0.00041565125582259895,435.466276648645
0.00043196792973341727,451.20244633720415
0.0004489251258218605,467.50309741749373
0.0004665479882234472,484.38801930662993
0.000484862648123908,501.87762164791684
0.000503896262506515,519.9929865628994
0.0005236770544204653,538.75587127217
0.0005442343548300266,558.1887432471351
0.0005655986461065005,578.314769880811
0.0005878016072274912,599.1578264650414
0.0006108761607505036,620.742550509816
0.0006348565216305217,643.0943384478303
0.0006597782479539537,666.2393823046953
0.0006856782936641739,690.2046401701575
0.0007125950633568407,715.0177973191896
0.0007405684692262436,740.7073747950317
0.0007696399902471156,767.3027524015375
0.0007998527336796708,794.8341926721072
0.000831251498989063,823.3328045659717
0.0008638828442740447,852.8304434646016
0.000897795155303332,883.3598500339739
0.0009330387172620361,914.9546467893665
0.0009696657893145519,947.6493552823002
0.001007730682094461,981.4794089015365
0.0010472898382363582,1016.4810207918763
0.0010884019160690055,1052.6913070607932
0.0011311278765939214,1090.1482172750498
0.001175531073878369,1128.8904869307214
0.0012216773489967915,1168.957750602623
0.0012696351276599736,1210.3903501766424
0.0013194755216767058,1253.2294441129388
0.0013712724343984,1297.516926526925
0.0014251026703029975,1343.295234351958
0.0014810460488806749,1390.607574838824
0.0015391855229902056,1439.4977018263485
0.001599607301861487,1490.0099625328255
0.0016624009789266115,1542.1892385301655
0.0017276596646690358,1596.0805132703779
0.0017954801246878305,1651.7292217395832
0.0018659629231817451,1709.1810426346965
0.001939212572065829,1768.4818315338428
0.0020153376859417325,1829.6776500652472
0.002094451143151469,1892.8141524680148
0.002176670253153458,1957.9369122968374
0.002262116930469025,2025.0911440045709
0.002350917875457286,2094.3214035665023
0.002443204762186487,2165.6718525547963
0.0025391144336803463,2239.1855532460795
0.002638789104828933,2314.9046569570155
0.002742376573264949,2392.870205953062
0.0028500304385181063,2473.121531213526
0.0029619103297725525,2555.6966474072997
0.0030781821425650787,2640.631456669886
0.003199018284775064,2727.9597270844574
0.0033245979322709396,2817.713084549886
0.003455107294592217,2909.920094506459
0.0035907398910610534,3004.6067024813924
0.0037316968377327513,3101.7953004156207
0.0038781871456107214,3201.504357379607
0.0040304280305680515,3303.7487562364154
0.00418864523543527,3408.5385358909625
0.004353073364731888,3515.879322841418
0.00452395623253805,3625.7715228068205
0.004701547224022131,3738.2094412378706
0.004886109671160325,3853.181921279955
0.005077917243205399,3970.670630374802
0.005277254352483535,4090.650410096125
0.005484416576121017,4213.088821382441
0.005699711094326071,4337.94454772119
0.005923457145875801,4465.168542968048
0.006155986501483508,4594.70276714859
0.006397643955748424,4726.48005213248
0.0066487878384172625,4860.423037890781
0.0069097905457156435,4996.439578753586
0.007181039092537346,5134.426523481522
0.007462935686310132,5274.277300156769
0.007755898323389004,5415.883178169211
0.00806036140886134,5559.12043710712
0.008376776400682916,5703.820824979584
0.008705612479099857,5849.790375798032
0.009047357242349292,5996.830823781726
0.00940251742967013,6144.747642627816
0.009771619672696168,6293.33570995531
0.010155211276345676,6442.380203558515
0.010553861030365234,6591.65566891722
0.010968160052731372,6740.916128412666
0.011398722666160517,6889.881302642602
0.011846187309026826,7038.253392593041
0.012311217482038896,7185.717704915318
0.012794502732078732,7331.9434907207915
0.013296759674662111,7476.585934633786
0.013818733056536317,7619.284587304104
0.014361196859990781,7759.66617716898
0.014924955450518284,7897.341519269456
0.015510844769528393,8031.9053645677395
0.016119733573881575,8162.940929411382
0.01675252472408214,8290.011840064955
0.017410156523040152,8412.670219401962
0.018093604107387147,8530.461094437354
0.01880388089340914,8642.923105898739
0.019542040079740527,8749.592616634056
0.02030917620904734,8850.002895447626
0.021106426791015535,8943.688002007235
0.021934973989050584,9030.186912842297
0.02279604637318978,9109.045362790177
0.023690920741826323,9179.820316299763
0.02462092401494623,9242.090673063429
0.02558743520168586,9295.45933107052
0.02659188744512693,9339.553687611939
0.027635770147361564,9374.0411143581
0.028720631177978267,9398.620220394405
0.029848079169243254,9413.038874028985
0.03101978590138095,9417.10210953439
0.03223748878149028,9410.657043342775
0.0335029934197723,9393.631320288756
0.03481817630688963,9366.00730180637
0.03618498759642746,9327.827452223733
0.037605453996581675,9279.214899080182
0.03908168177536263,9220.339154010106
0.04061585988376978,9151.472887728409
0.04221026320156896,9072.961486231417
0.04386725591048496,8985.157120230764
0.0455892949998106,8888.377957297118
0.047378933909631396,8782.954045694323
0.049238826317067365,8669.183451451847
0.05117173007114603,8547.338643991301
0.05318051128214196,8417.86891747489
0.05526814857144601,8281.921358099062
0.057437737488265785,8140.783871048983
0.0596924950997073,7994.986189719546
0.0620357647610427,7844.10550488822
0.06447102107323864,7687.717342148211
0.06700187503509585,7525.469624997731
0.06963207939763882,7357.089523733019
0.0723655342286965,7182.671321716771
0.07520629269592405,7002.937685266676
0.07815856707684081,6818.678756589747
0.08122673500479707,6630.7090651989365
0.08441534596012978,6439.8437116101395
0.0877291280161335,6246.737490638497
0.09117299484984914,6051.730702789449
0.09475205302806537,5855.2121821356495
0.09847160957933764,5657.94723934613
0.1023371798632519,5460.9735661839195
0.10635449574860109,5266.517445759172
0.11052951411260206,5076.523187651213
0.1148684256737553,4890.196796746197
0.1193776641714435,4706.257164730554
0.1240639159058831,4524.075498083457
0.12893412965257148,4343.581879175889
0.13399552696593373,4165.149491523782
0.1392556128874462,3989.1225041467633
0.14472218707411338,3815.5656056280313
0.15040335536380234,3644.360176990269
0.15630754179458153,3475.9150671262087
0.16244350109588662,3311.1548162533654
0.16882033167003618,3151.1508870396688
0.17544748908334581,2996.747643487497
0.1823348000868439,2848.324361167786
0.189492477187382,2705.5502018367065
0.19693113379074215,2567.6625114237495
0.20466179993919872,2434.1475133418303
0.21269593866686892,2304.881765693544
0.22104546299710207,2179.5973877284137
0.22972275360711503,2058.608764200301
0.23874067718606454,1942.9403482949765
0.2481126055137766,1832.8333316917663
0.25785243528842716,1727.5080337543266
0.26797460873256895,1626.701435149861
0.27849413500806414,1530.3948324038051
0.28942661247167484,1438.4904358416954
0.3007882518043098,1350.959884719901
0.31259590004822796,1267.6270591236616
0.324867065587837,1188.5575761004561
0.3376199441111335,1113.6424350057534
0.35087344559027084,1042.5647825500607
0.36464722232127456,975.1441852326435
0.37896169806447155,911.4801662494745
0.3938380983288488,851.3575985026745
0.4092984818452433,794.5251603924427
0.4253657732750382,741.0173117182258
0.44206379720285277,690.6043462342359
0.45941731346364734,643.1362138632834
0.47745205385661277,598.585609185259
0.4961947603002895,556.6981345565575
0.5156732244854959,517.443387500437
0.5359163290848509,480.63835899762597
0.556954090580013,446.17719058069133
0.5788177037701272,413.9371058555176
0.6015395880274836,383.78657781632177
0.6251534353689703,355.6201145843445
0.6496942604146115,329.32325589540477
0.6751984523072497,304.78286969167306
0.7017038286703824,281.9198492214144
0.7292496916841444,260.6120325921796
0.7578768863625915,240.7949638038051
0.7876278611187046,222.36840747850087
0.8185467307069019,205.24249151751698
0.850679341636415,189.34487003189864
0.8840733401525058,174.59193481296253
0.9187782428863317,160.90307586112743
0.9548455102782278,148.21593004367935
0.9923286228832539,136.46281980524046
1.0312831606721837,125.58343805919746
1.0717668854455022,115.52032842044447
1.1138398264826193,106.21753654643406
1.1575643695533022,97.62125537604479
1.2030053494233226,89.68149178201354
1.2502301459914542,82.3522315061712
1.299308784200415,75.59034172223711
1.3503140378698726,69.35534092839032
1.4033215376054824,63.609276375039244
1.4584098829439835,58.316583457158174
1.5156607589006013,53.44386730922243
1.575159057091621,48.95990284338617
1.6369930016117014,44.83557666779333
1.7012542798525885,41.043764938708016
1.7680381784572046,37.55921638870075
1.8374437246107238,34.358452819815845
1.9095738328780953,31.41966124488358
1.9845354578058014,28.722571283145392
2.0624397525140905,26.248358393116508
2.143402233514853,23.979553241939783
2.227542951999554,21.899949470074333
2.314986671851158,19.994502331336285
2.405863054644063,18.249279982009355
2.5003068519063225,16.651398214988966
2.598458104929248,15.188948357640387
2.7004623524206774,13.850929396957893
2.806470846309834,12.627182587244533
2.916640776023701,11.508332397898323
3.031135501567576,10.485732643847138
3.150124795755327,9.551413863865854
3.2737850959485697,8.698034002084475
3.4022997656780634,7.918832659041669
3.5358593665351745,7.207588715445641
3.6746619407366854,6.558578927705773
3.8189133047818515,5.966540301789032
3.968827354637162,5.4266353429525065
4.1246263829013445,4.934419393262469
4.286541408420921,4.485806563014885
4.4548125188449825,4.07704452511682
4.629689226627261,3.704692385886986
4.811430839003257,3.365596085375254
5.000306842491082,3.056865528944645
5.196597302486189,2.7758539873062764
5.400593278542364,2.52013911240794
5.612597255954967,2.287503312624701
5.8329235942862,2.0759169575112195
6.06189899349756,1.883523124878046
6.29986297838068,1.7086234287189288
6.547168402004727,1.5496643112704707
6.804181968927091,1.40522573253151
7.071284778942991,1.27401064837631
7.348872892180382,1.154834729348777
7.637357916378006,1.0466168919433474
7.937167617217536,0.9483702889995741
8.248746552614573,0.8591941892522429
8.572556731909314,0.7782672905713643
8.909078300934132,0.7048409763505302
9.258810253973934,0.6382330549530971
9.622271173675122,0.5778221606239968
9.999999999999984,0.5230432247249001
