k [1/Mpc],P(k) [Mpc^3]
0.0001,2834.234496228706
0.00010392556829367125,2936.8575440542645
0.00010800523745162529,3043.1844044358095
0.00011224505680853065,3153.3473014735837
0.00011665131316981963,3267.4833977281937
0.00012123054013376525,3385.734616847687
0.00012598952777950273,3508.247226056017
0.00013093533273536104,3635.172282134539
0.00013607528864243335,3766.6661462591674
0.00014141701702890234,3902.8907870248936
0.00014696843861124463,4044.013751106066
0.00015273778503907136,4190.207862480124
0.00015873361110102093,4341.651499171454
0.00016496480740980205,4498.529002385876
0.0001714406135851971,4661.030714242798
0.00017817063195457305,4829.3532965796185
0.00018516484179121546,5003.699577481542
0.000192433614111598,5184.278672205313
0.00019998772705352857,5371.306440507813
0.0002078383818579757,5565.0052793463165
0.00021599721947827182,5765.604583990875
0.0002244763378413224,5973.340650838439
0.0002332883097864157,6188.456523701833
0.00024244620170823283,6411.202690982523
0.0002519635929317015,6641.836639520407
0.0002618545958474233,6880.623294702755
0.0002721338768375308,7127.8350691799815
0.0002828166780230032,7383.7511622388265
0.0002939188398646886,7648.658628844694
0.0003054568246515432,7922.851984828739
0.00031744774091091926,8206.633375645364
0.00032990936877709396,8500.312788770729
0.00034286018635565856,8804.20647989672
0.00035631939712285854,9118.638361828216
0.000370306958400514,9443.939293154759
0.00038484361094874304,9780.44653849534
0.0003999509097203664,10128.505075842875
0.00041565125582259895,10488.466545945916
0.00043196792973341727,10860.689849496215
0.0004489251258218605,11245.539974200066
0.0004665479882234472,11643.385895641011
0.000484862648123908,12054.603008855818
0.000503896262506515,12479.571836126897
0.0005236770544204653,12918.678180976589
0.0005442343548300266,13372.31261889679
0.0005655986461065005,13840.866989571121
0.0005878016072274912,14324.736992366385
0.0006108761607505036,14824.320981717206
0.0006348565216305217,15340.019234924874
0.0006597782479539537,15872.233954804951
0.0006856782936641739,16421.36356925844
0.0007125950633568407,16987.805422430967
0.0007405684692262436,17571.953945446607
0.0007696399902471156,18174.19744159055
0.0007998527336796708,18794.920538166753
0.000831251498989063,19434.496541904347
0.0008638828442740447,20093.288963101622
0.000897795155303332,20771.650628913998
0.0009330387172620361,21469.916067254693
0.0009696657893145519,22188.40645277081
0.001007730682094461,22927.419284062456
0.0010472898382363582,23687.226903736235
0.0010884019160690055,24468.080075231963
0.0011311278765939214,25270.197074173866
0.001175531073878369,26093.76860317249
0.0012216773489967915,26938.94805575838
0.0012696351276599736,27805.844312988396
0.0013194755216767058,28694.53109561507
0.0013712724343984,29605.045128052534
0.0014251026703029975,30537.383756263553
0.0014810460488806749,31491.48680865532
0.0015391855229902056,32467.214430077835
0.001599607301861487,33464.369480124784
0.0016624009789266115,34482.69611869725
0.0017276596646690358,35521.877366937966
0.0017954801246878305,36581.52973685843
0.0018659629231817451,37661.19034229002
0.001939212572065829,38760.32279701247
0.0020153376859417325,39878.30622912801
0.002094451143151469,41014.43035339604
0.002176670253153458,42167.90145386207
0.002262116930469025,43337.83303536582
0.002350917875457286,44523.2480678269
0.002443204762186487,45723.0694272147
0.0025391144336803463,46936.10982535459
0.002638789104828933,48161.08258387844
0.002742376573264949,49396.58936760577
0.0028500304385181063,50641.12370733116
0.0029619103297725525,51893.071668352306
0.0030781821425650787,53150.701946398025
0.003199018284775064,54412.17583995383
0.0033245979322709396,55675.533017119415
0.003455107294592217,56938.693329971626
0.0035907398910610534,58199.46705878686
0.0037316968377327513,59455.53913848319
0.0038781871456107214,60704.486973511724
0.0040304280305680515,61943.775068292816
0.00418864523543527,63170.7529027523
0.004353073364731888,64382.643444749374
0.00452395623253805,65576.32861331182
0.004701547224022131,66748.48097631935
0.004886109671160325,67895.9782962002
0.005077917243205399,69016.27276763643
0.005277254352483535,70106.76629363406
0.005484416576121017,71163.339316492
0.005699711094326071,72180.72412374034
0.005923457145875801,73153.86556741013
0.006155986501483508,74078.85933495239
0.006397643955748424,74952.06756235512
0.0066487878384172625,75769.91327278684
0.0069097905457156435,76528.90296526108
0.007181039092537346,77225.44920850913
0.007462935686310132,77855.09278734191
0.007755898323389004,78413.11979871933
0.00806036140886134,78894.77459969353
0.008376776400682916,79295.19221951094
0.008705612479099857,79609.62027630697
0.009047357242349292,79833.15190651816
0.00940251742967013,79960.93211272074
0.009771619672696168,79988.34399211434
0.010155211276345676,79910.95028725553
0.010553861030365234,79724.65298370921
0.010968160052731372,79424.95857846075
0.011398722666160517,79007.16933668032
0.011846187309026826,78467.07577044313
0.012311217482038896,77800.65412242191
0.012794502732078732,77004.53504892104
0.013296759674662111,76075.63070108402
0.013818733056536317,75011.04129318896
0.014361196859990781,73808.8303535645
0.014924955450518284,72467.42686920991
0.015510844769528393,70986.2598641426
0.016119733573881575,69365.82965719288
0.01675252472408214,67607.36724001271
0.017410156523040152,65713.69308696997
0.018093604107387147,63688.79236528533
0.01880388089340914,61538.12099673938
0.019542040079740527,59268.9959532822
0.02030917620904734,56890.36555646654
0.021106426791015535,54413.040964261294
0.021934973989050584,51850.003306491395
0.02279604637318978,49216.17635256516
0.023690920741826323,46528.071771798306
0.02462092401494623,43804.7802650385
0.02558743520168586,41066.19469094014
0.02659188744512693,38333.952797667276
0.027635770147361564,35631.71790801645
0.028720631177978267,32981.640075825926
0.029848079169243254,30407.78269017735
0.03101978590138095,27932.297204499853
0.03223748878149028,25575.79470393238
0.0335029934197723,23361.558153811322
0.03481817630688963,21306.25906909304
0.03618498759642746,19424.30427342873
0.037605453996581675,17726.405564797147
0.03908168177536263,16216.83968421311
0.04061585988376978,14898.083707261132
0.04221026320156896,13768.728555530803
0.04386725591048496,12824.708109711388
0.0455892949998106,12061.368281266634
0.047378933909631396,11472.283040929344
0.049238826317067365,11040.676924512263
0.05117173007114603,10749.978142040085
0.05318051128214196,10576.182751092627
0.05526814857144601,10491.303123746336
0.057437737488265785,10465.930747344986
0.0596924950997073,10467.544229120715
0.0620357647610427,10453.17568819448
0.06447102107323864,10373.16852271338
0.06700187503509585,10182.211482723147
0.06963207939763882,9845.558268148117
0.0723655342286965,9347.710167706131
0.07520629269592405,8693.708730246448
0.07815856707684081,7908.8774633010125
0.08122673500479707,7035.634595510083
0.08441534596012978,6122.650228046578
0.0877291280161335,5234.816761621088
0.09117299484984914,4443.9716848155595
0.09475205302806537,3799.596053613608
0.09847160957933764,3323.284317483949
0.1023371798632519,3015.280073029251
0.10635449574860109,2860.3793058834076
0.11052951411260206,2831.3507001676016
0.1148684256737553,2887.06768455014
0.1193776641714435,2972.4393747759354
0.1240639159058831,3024.8331701295215
0.12893412965257148,2983.18270245413
0.13399552696593373,2805.117533786013
0.1392556128874462,2498.1081923779643
0.14472218707411338,2124.204580529152
0.15040335536380234,1762.2102511416638
0.15630754179458153,1473.083433093303
0.16244350109588662,1290.74227145969
0.16882033167003618,1218.2541100828616
0.17544748908334581,1224.1126507577294
0.1823348000868439,1255.248571757019
0.189492477187382,1254.1933798289954
0.19693113379074215,1177.8533755284675
0.20466179993919872,1032.412879724679
0.21269593866686892,866.578252013972
0.22104546299710207,736.6353806978793
0.22972275360711503,668.8904225295253
0.23874067718606454,651.0387450492002
0.2481126055137766,648.0053949897584
0.25785243528842716,619.0360565308197
0.26797460873256895,553.557698648614
0.27849413500806414,476.69469572754684
0.28942661247167484,421.0000688493243
0.3007882518043098,394.732721579105
0.31259590004822796,380.264257313021
0.324867065587837,355.1817813932405
0.3376199441111335,316.5257096254341
0.35087344559027084,280.8472279652528
0.36464722232127456,258.5941458378355
0.37896169806447155,243.10326449301817
0.3938380983288488,223.45273310048773
0.4092984818452433,200.56173596317072
0.4253657732750382,182.23487652565626
0.44206379720285277,168.70478621377245
0.45941731346364734,154.70411584175457
0.47745205385661277,140.04846821810003
0.4961947603002895,127.83830410552515
0.5156732244854959,117.36417656038412
0.5359163290848509,106.88120418571573
0.556954090580013,97.30771233016856
0.5788177037701272,88.96590560143999
0.6015395880274836,81.07388692678283
0.6251534353689703,73.8491054013914
0.6496942604146115,67.28016393251002
0.6751984523072497,61.2955912398922
0.7017038286703824,55.83915501695754
0.7292496916841444,50.8607599759981
0.7578768863625915,46.315703768000596
0.7876278611187046,42.16403841222613
0.8185467307069019,38.3712109795009
0.850679341636415,34.908208241166214
0.8840733401525058,31.748358134778794
0.9187782428863317,28.866860698424755
0.9548455102782278,26.240694694551085
0.9923286228832539,23.848510956374017
1.0312831606721837,21.67023003919649
1.0717668854455022,19.68706363242107
1.1138398264826193,17.88183202474038
1.1575643695533022,16.238847080182904
1.2030053494233226,14.74378404923601
1.2502301459914542,13.383570516428382
1.299308784200415,12.146330821785112
1.3503140378698726,11.021239245393206
1.4033215376054824,9.998390851752365
1.4584098829439835,9.068726208412395
1.5156607589006013,8.223962407505478
1.575159057091621,7.4565264082758995
1.6369930016117014,6.759486689527483
1.7012542798525885,6.126513639366944
1.7680381784572046,5.551833593015522
1.8374437246107238,5.030181338798256
1.9095738328780953,4.556756549208739
1.9845354578058014,4.127184721969128
2.0624397525140905,3.73748139153555
2.143402233514853,3.3840160577097285
2.227542951999554,3.0634812655658146
2.314986671851158,2.772864662292689
2.405863054644063,2.5094233704950915
2.5003068519063225,2.2706598814824352
2.598458104929248,2.0543006695831343
2.7004623524206774,1.858277539386152
2.806470846309834,1.680709572172779
2.916640776023701,1.5198865503677086
3.031135501567576,1.3742538117106466
3.150124795755327,1.2423984339681893
3.2737850959485697,1.1230365757944745
3.4022997656780634,1.0150019132924704
3.5358593665351745,0.9172351077802743
3.6746619407366854,0.8287741944050022
3.8189133047818515,0.7487457677703387
3.968827354637162,0.676356785408439
4.1246263829013445,0.6108875393136997
4.286541408420921,0.5516851076129058
4.4548125188449825,0.4981572640755103
4.629689226627261,0.44976693175940846
4.811430839003257,0.4060271633536003
5.000306842491082,0.36649658902678456
5.196597302486189,0.3307751332622438
5.400593278542364,0.29850019866275934
5.612597255954967,0.269343214331252
5.8329235942862,0.24300649508982253
6.06189899349756,0.2192203380929606
6.29986297838068,0.19774042103309247
6.547168402004727,0.17834553120520627
6.804181968927091,0.1608354175586466
7.071284778942991,0.14502883162830818
7.348872892180382,0.13076174800188112
7.637357916378006,0.1178857381706749
7.937167617217536,0.10626651187386792
8.248746552614573,0.0957825992462029
8.572556731909314,0.08632414238371425
8.909078300934132,0.0777917988431153
9.258810253973934,0.07009575425366356
9.622271173675122,0.06315486187301171
9.999999999999984,0.05689577700264442
