k [1/Mpc],P(k) [Mpc^3]
0.0001,382.6985360949262
0.00010392556829367125,399.96403943515764
0.00010800523745162529,418.00343787051776
0.00011224505680853065,436.8508038806111
0.00011665131316981963,456.5416263245549
0.00012123054013376525,477.11280643125633
0.00012598952777950273,498.60277968628486
0.00013093533273536104,521.0515640308917
0.00013607528864243335,544.5008223621331
0.00014141701702890234,568.9939114883495
0.00014696843861124463,594.5758397600322
0.00015273778503907136,621.2934084979074
0.00015873361110102093,649.195229116706
0.00016496480740980205,678.3317515046876
0.0001714406135851971,708.7553963556345
0.00017817063195457305,740.520522274961
0.00018516484179121546,773.6835411963425
0.000192433614111598,808.3028911576573
0.00019998772705352857,844.438924465743
0.0002078383818579757,882.1541724841344
0.00021599721947827182,921.5133152377452
0.0002244763378413224,962.5832596419458
0.0002332883097864157,1005.4331584175267
0.00024244620170823283,1050.1341548334365
0.0002519635929317015,1096.7596804705229
0.0002618545958474233,1145.3853395588783
0.0002721338768375308,1196.088879944213
0.0002828166780230032,1248.950363024034
0.0002939188398646886,1304.0517810321082
0.0003054568246515432,1361.4773069667776
0.00031744774091091926,1421.3132548529231
0.00032990936877709396,1483.6478862499314
0.00034286018635565856,1548.5716120663938
0.00035631939712285854,1616.1763764675227
0.000370306958400514,1686.55578711575
0.00038484361094874304,1759.8052896801994
0.0003999509097203664,1836.0218557974572
0.00041565125582259895,1915.3041158667475
0.00043196792973341727,1997.751677414941
0.0004489251258218605,2083.4649367174206
0.0004665479882234472,2172.5453374306753
0.000484862648123908,2265.0946768648346
0.000503896262506515,2361.2152927755697
0.0005236770544204653,2461.009490414982
0.0005442343548300266,2564.5789385012804
0.0005655986461065005,2672.0249360074417
0.0005878016072274912,2783.4469825992874
0.0006108761607505036,2898.9429283422746
0.0006348565216305217,3018.608483317393
0.0006597782479539537,3142.5356461613183
0.0006856782936641739,3270.8134606541685
0.0007125950633568407,3403.5259486773048
0.0007405684692262436,3540.7516785722214
0.0007696399902471156,3682.563889190683
0.0007998527336796708,3829.027738835183
0.000831251498989063,3980.2013006865313
0.0008638828442740447,4136.1337169316275
0.000897795155303332,4296.863671940612
0.0009330387172620361,4462.420353548093
0.0009696657893145519,4632.821581423509
0.001007730682094461,4808.073593643537
0.0010472898382363582,4988.169349944744
0.0010884019160690055,5173.085966441348
0.0011311278765939214,5362.78574604191
0.001175531073878369,5557.212591566997
0.0012216773489967915,5756.291626737583
0.0012696351276599736,5959.931582560119
0.0013194755216767058,6168.0275332801875
0.0013712724343984,6380.456867072033
0.0014251026703029975,6597.076066555528
0.0014810460488806749,6817.719565178457
0.0015391855229902056,7042.198387146938
0.001599607301861487,7270.289279429462
0.0016624009789266115,7501.740289260307
0.0017276596646690358,7736.279240226756
0.0017954801246878305,7973.617914401631
0.0018659629231817451,8213.444134502322
0.001939212572065829,8455.418686613153
0.0020153376859417325,8699.175795897314
0.002094451143151469,8944.324258392526
0.002176670253153458,9190.447646364812
0.002262116930469025,9437.104548747022
0.002350917875457286,9683.83049961659
0.002443204762186487,9930.138623011186
0.0025391144336803463,10175.518442780365
0.002638789104828933,10419.434293891813
0.002742376573264949,10661.32823334235
0.0028500304385181063,10900.621237965823
0.0029619103297725525,11136.714152153185
0.0030781821425650787,11368.990447227632
0.003199018284775064,11596.81735348262
0.0033245979322709396,11819.54820582465
0.003455107294592217,12036.476186644286
0.0035907398910610534,12246.76435780809
0.0037316968377327513,12449.558922179276
0.0038781871456107214,12644.264476829645
0.0040304280305680515,12830.509756950078
0.00418864523543527,13007.749220085398
0.004353073364731888,13174.638746190003
0.00452395623253805,13329.618903238648
0.004701547224022131,13471.49700455212
0.004886109671160325,13599.575574846542
0.005077917243205399,13713.20920248394
0.005277254352483535,13811.712272933237
0.005484416576121017,13894.406018642676
0.005699711094326071,13960.500307497055
0.005923457145875801,14008.939250490039
0.006155986501483508,14038.672335658652
0.006397643955748424,14048.581881941707
0.0066487878384172625,14037.539497079786
0.0069097905457156435,14004.469387096855
0.007181039092537346,13948.275438336377
0.007462935686310132,13867.95925511843
0.007755898323389004,13762.521370337297
0.00806036140886134,13630.976901560036
0.008376776400682916,13472.437375129826
0.008705612479099857,13285.697114047705
0.009047357242349292,13069.649146670907
0.00940251742967013,12823.371933778926
0.009771619672696168,12546.075977358281
0.010155211276345676,12237.304591437749
0.010553861030365234,11896.275323372796
0.010968160052731372,11522.369887428207
0.011398722666160517,11115.451820125558
0.011846187309026826,10675.559339850124
0.012311217482038896,10203.467356259222
0.012794502732078732,9699.209336165612
0.013296759674662111,9162.691319026346
0.013818733056536317,8595.824340624253
0.014361196859990781,8003.538452447371
0.014924955450518284,7392.146132651469
0.015510844769528393,6761.252794778494
0.016119733573881575,6103.99964681707
0.01675252472408214,5423.49405996582
0.017410156523040152,4750.351640177409
0.018093604107387147,4117.1690520825605
0.01880388089340914,3510.750409037532
0.019542040079740527,2863.3804611255873
0.02030917620904734,2172.8702973008863
0.021106426791015535,1581.9305668756479
0.021934973989050584,1192.6235275307754
0.02279604637318978,923.3059192342964
0.023690920741826323,518.8852686523007
0.02462092401494623,140.48851456545032
0.02558743520168586,24.79978360719875
0.02659188744512693,9.358634727962794
0.027635770147361564,20.481057996630003
0.028720631177978267,135.47693984208405
0.029848079169243254,717.3741032994802
0.03101978590138095,1444.9060510414547
0.03223748878149028,1692.3310543531184
0.0335029934197723,1959.6723077968043
0.03481817630688963,2574.7447407840596
0.03618498759642746,3385.5607703964192
0.037605453996581675,4049.598196682745
0.03908168177536263,4493.468901050213
0.04061585988376978,4820.505936081088
0.04221026320156896,5056.0595809024
0.04386725591048496,5120.193181117935
0.0455892949998106,4968.105003156641
0.047378933909631396,4623.402798779647
0.049238826317067365,4112.8888738096775
0.05117173007114603,3451.821647125327
0.05318051128214196,2715.4697118708314
0.05526814857144601,2007.8533050548358
0.057437737488265785,1320.1000239250618
0.0596924950997073,716.1135087902883
0.0620357647610427,365.1676151418989
0.06447102107323864,108.88255453451296
0.06700187503509585,7.114853708452981
0.06963207939763882,5.588408540362297
0.0723655342286965,82.1763222193747
0.07520629269592405,139.89624209027124
0.07815856707684081,125.75042133205358
0.08122673500479707,100.56881393575674
0.08441534596012978,35.30839949909509
0.0877291280161335,5.215216899396567
0.09117299484984914,14.612533089283087
0.09475205302806537,177.65868334708
0.09847160957933764,309.32911623321576
0.1023371798632519,469.12609045516456
0.10635449574860109,546.812782812269
0.11052951411260206,487.674761764285
0.1148684256737553,363.7571780852744
0.1193776641714435,149.11579054752298
0.1240639159058831,73.70658368022075
0.12893412965257148,0.09971530855417836
0.13399552696593373,13.632674074485433
0.1392556128874462,24.305367650009348
0.14472218707411338,19.329159141563704
0.15040335536380234,0.6275569976837193
0.15630754179458153,21.59489322268656
0.16244350109588662,75.24823360582391
0.16882033167003618,130.21604797615288
0.17544748908334581,117.72031969331965
0.1823348000868439,60.35106913593268
0.189492477187382,13.724185752939823
0.19693113379074215,0.08422113481997913
0.20466179993919872,3.0628156280435936
0.21269593866686892,0.0002260859534923401
0.22104546299710207,22.55796313540623
0.22972275360711503,32.81183758007417
0.23874067718606454,38.95129120497735
0.2481126055137766,20.019278235838954
0.25785243528842716,2.7025098838964636
0.26797460873256895,0.018321813889742862
0.27849413500806414,0.03734012418583306
0.28942661247167484,5.047712788119831
0.3007882518043098,13.165020590363484
0.31259590004822796,9.53536038029472
0.324867065587837,1.9838375068876113
0.3376199441111335,0.2397868151910009
0.35087344559027084,1.3101860273099024
0.36464722232127456,4.753179757362853
0.37896169806447155,4.378881257348327
0.3938380983288488,1.2978331598879098
0.4092984818452433,0.604005846455753
0.4253657732750382,1.7072319403187453
0.44206379720285277,2.429377338686936
0.45941731346364734,1.1549825572998347
0.47745205385661277,0.7063900888561511
0.4961947603002895,1.1415122343656492
0.5156732244854959,1.2038139297364259
0.5359163290848509,0.7248193681907853
0.556954090580013,0.48227427596249933
0.5788177037701272,0.39208028919444904
0.6015395880274836,0.3696107192204141
0.6251534353689703,0.3823087923648086
0.6496942604146115,0.4105780603622789
0.6751984523072497,0.4332119828763345
0.7017038286703824,0.4301087414038177
0.7292496916841444,0.4035390499122833
0.7578768863625915,0.3635341458901067
0.7876278611187046,0.3195067590571944
0.8185467307069019,0.2783639196756232
0.850679341636415,0.24422730687743527
0.8840733401525058,0.21750748929139901
0.9187782428863317,0.19602784345754554
0.9548455102782278,0.17808604254990487
0.9923286228832539,0.16244846053020243
1.0312831606721837,0.14821082853684667
1.0717668854455022,0.1347626483615436
1.1138398264826193,0.12204874104918409
1.1575643695533022,0.1102100834876759
1.2030053494233226,0.09933229993909208
1.2502301459914542,0.08945356543832617
1.299308784200415,0.08057486870485489
1.3503140378698726,0.072648604006662
1.4033215376054824,0.06555942174239932
1.4584098829439835,0.059198062960489656
1.5156607589006013,0.05347229037655236
1.575159057091621,0.048304028574467764
1.6369930016117014,0.043627259793293016
1.7012542798525885,0.039391735051215584
1.7680381784572046,0.03555905315127609
1.8374437246107238,0.032093881447817926
1.9095738328780953,0.028963453959633883
1.9845354578058014,0.026137472186964376
2.0624397525140905,0.023587817218791947
2.143402233514853,0.02128758879151676
2.227542951999554,0.019212067248952
2.314986671851158,0.017339036420516363
2.405863054644063,0.01564852407531769
2.5003068519063225,0.014122568924366783
2.598458104929248,0.012745056659257395
2.7004623524206774,0.011501564373726118
2.806470846309834,0.010379082183010323
2.916640776023701,0.009365860720997692
3.031135501567576,0.008451289201116388
3.150124795755327,0.007625785935229514
3.2737850959485697,0.006880708912744436
3.4022997656780634,0.006208259269752178
3.5358593665351745,0.005601389414178578
3.6746619407366854,0.005053731018797743
3.8189133047818515,0.004559530152845833
3.968827354637162,0.0041135855596334
4.1246263829013445,0.003711185855411445
4.286541408420921,0.0033480762509903333
4.4548125188449825,0.003020418921541567
4.629689226627261,0.0027247519342655587
4.811430839003257,0.002457952284855757
5.000306842491082,0.0022172053949466716
5.196597302486189,0.0019999756987747726
5.400593278542364,0.0018039738597305482
5.612597255954967,0.0016271324535180643
5.8329235942862,0.0014675845673311912
6.06189899349756,0.0013236443713095893
6.29986297838068,0.0011937888402037803
6.547168402004727,0.0010766426284084158
6.804181968927091,0.0009709644400894191
7.071284778942991,0.0008756339950810211
7.348872892180382,0.0007896402488524402
7.637357916378006,0.0007120705659418363
7.937167617217536,0.0006421007152692228
8.248746552614573,0.0005789869729228173
8.572556731909314,0.0005220584229715986
8.909078300934132,0.0004707098162766868
9.258810253973934,0.00042439513946772073
9.622271173675122,0.0003826221017353262
9.999999999999984,0.00034494685882839447
