k [1/Mpc],P(k) [Mpc^3]
0.0001,1054.129070396257
0.00010392556829367125,1092.183022618296
0.00010800523745162529,1131.5970467439697
0.00011224505680853065,1172.4181658840616
0.00011665131316981963,1214.6948946102425
0.00012123054013376525,1258.4771201638869
0.00012598952777950273,1303.8162397654316
0.00013093533273536104,1350.7651801194754
0.00013607528864243335,1399.3783536035537
0.00014141701702890234,1449.7117981683286
0.00014696843861124463,1501.8229827706248
0.00015273778503907136,1555.7709057727325
0.00015873361110102093,1611.6161973675182
0.00016496480740980205,1669.4209568734445
0.0001714406135851971,1729.2489541533357
0.00017817063195457305,1791.1653837170484
0.00018516484179121546,1855.236817886798
0.000192433614111598,1921.5314410252004
0.00019998772705352857,1990.1186403332306
0.0002078383818579757,2061.0692764957876
0.00021599721947827182,2134.455548156582
0.0002244763378413224,2210.3506926750674
0.0002332883097864157,2288.829357223859
0.00024244620170823283,2369.967005420746
0.0002519635929317015,2453.8400565705547
0.0002618545958474233,2540.5259536750273
0.0002721338768375308,2630.1024845717575
0.0002828166780230032,2722.648297330637
0.0002939188398646886,2818.242307810162
0.0003054568246515432,2916.9634842293794
0.00031744774091091926,3018.891195143494
0.00032990936877709396,3124.1041994977413
0.00034286018635565856,3232.681090882492
0.00035631939712285854,3344.699895999701
0.000370306958400514,3460.2373456674422
0.00038484361094874304,3579.369487268427
0.0003999509097203664,3702.170665792228
0.00041565125582259895,3828.7135800046235
0.00043196792973341727,3959.069156408262
0.0004489251258218605,4093.305273523936
0.0004665479882234472,4231.487455733249
0.000484862648123908,4373.677888323345
0.000503896262506515,4519.93494886033
0.0005236770544204653,4670.313382206975
0.0005442343548300266,4824.862156559158
0.0005655986461065005,4983.6252388127195
0.0005878016072274912,5146.640701081523
0.0006108761607505036,5313.939239949725
0.0006348565216305217,5485.545086307446
0.0006597782479539537,5661.472503668125
0.0006856782936641739,5841.726248106619
0.0007125950633568407,6026.301654323305
0.0007405684692262436,6215.181281725548
0.0007696399902471156,6408.336958011999
0.0007998527336796708,6605.72602695117
0.000831251498989063,6807.290159643139
0.0008638828442740447,7012.957400084559
0.000897795155303332,7222.63781154026
0.0009330387172620361,7436.225348050737
0.0009696657893145519,7653.597235828022
0.001007730682094461,7874.612141528557
0.0010472898382363582,8099.1111648081915
0.0010884019160690055,8326.9135225324
0.0011311278765939214,8557.817274391178
0.001175531073878369,8791.598666885327
0.0012216773489967915,9028.006465027082
0.0012696351276599736,9266.767452200538
0.0013194755216767058,9507.601100441942
0.0013712724343984,9750.220964912964
0.0014251026703029975,9994.31798191847
0.0014810460488806749,10239.54101848979
0.0015391855229902056,10485.509670668973
0.001599607301861487,10731.820641323688
0.0016624009789266115,10978.047445066279
0.0017276596646690358,11223.742485003011
0.0017954801246878305,11468.44464623841
0.0018659629231817451,11711.677459153007
0.001939212572065829,11952.944096277126
0.0020153376859417325,12191.724773850114
0.002094451143151469,12427.481962970149
0.002176670253153458,12659.670583131889
0.002262116930469025,12887.739949613477
0.002350917875457286,13111.127023807327
0.002443204762186487,13329.25389466616
0.0025391144336803463,13541.532468325515
0.002638789104828933,13747.370194746929
0.002742376573264949,13946.173871138933
0.0028500304385181063,14137.350261359034
0.0029619103297725525,14320.322918615933
0.0030781821425650787,14494.52844787735
0.003199018284775064,14659.363083002947
0.0033245979322709396,14814.094922817338
0.003455107294592217,14957.987796891406
0.0035907398910610534,15090.6390394597
0.0037316968377327513,15211.983069994523
0.0038781871456107214,15321.800335472253
0.0040304280305680515,15418.86465753218
0.00418864523543527,15501.631955899566
0.004353073364731888,15569.149590314302
0.00452395623253805,15621.436925063093
0.004701547224022131,15658.570859607911
0.004886109671160325,15679.941012471907
0.005077917243205399,15684.570665606368
0.005277254352483535,15671.741120934514
0.005484416576121017,15641.383695672279
0.005699711094326071,15593.571970969893
0.005923457145875801,15528.039662488613
0.006155986501483508,15444.213010932363
0.006397643955748424,15341.568293992783
0.0066487878384172625,15219.59297551517
0.0069097905457156435,15077.84926256574
0.007181039092537346,14915.978459233815
0.007462935686310132,14733.693641131915
0.007755898323389004,14530.819709415786
0.00806036140886134,14307.202687096307
0.008376776400682916,14062.776973281698
0.008705612479099857,13797.481540652429
0.009047357242349292,13511.01364111347
0.00940251742967013,13203.225642320163
0.009771619672696168,12874.178773422223
0.010155211276345676,12524.160281760607
0.010553861030365234,12153.618485334666
0.010968160052731372,11762.772174279336
0.011398722666160517,11352.043065486294
0.011846187309026826,10922.01221550029
0.012311217482038896,10473.343227762232
0.012794502732078732,10007.107857439649
0.013296759674662111,9524.458148914733
0.013818733056536317,9026.891148441306
0.014361196859990781,8516.222503069393
0.014924955450518284,7994.219383188156
0.015510844769528393,7463.23908652357
0.016119733573881575,6925.837366980696
0.01675252472408214,6384.90321995923
0.017410156523040152,5843.905739804215
0.018093604107387147,5306.242959555438
0.01880388089340914,4775.895074973692
0.019542040079740527,4257.020087021903
0.02030917620904734,3753.7378517817947
0.021106426791015535,3270.6502334219463
0.021934973989050584,2811.918316113145
0.02279604637318978,2381.733640428029
0.023690920741826323,1984.091912073509
0.02462092401494623,1622.1374303578161
0.02558743520168586,1298.7095219938635
0.02659188744512693,1015.562249662298
0.027635770147361564,773.3746667493159
0.028720631177978267,571.8284948893215
0.029848079169243254,409.25268481394954
0.03101978590138095,282.6247454053653
0.03223748878149028,187.72735408406555
0.0335029934197723,119.53447875383019
0.03481817630688963,73.03820425686061
0.03618498759642746,44.56938260629947
0.037605453996581675,28.850485935950818
0.03908168177536263,21.079748690429252
0.04061585988376978,18.575236781389666
0.04221026320156896,20.924139504657106
0.04386725591048496,28.90357785701704
0.0455892949998106,44.091711331436564
0.047378933909631396,68.76369176501407
0.049238826317067365,105.26617319181368
0.05117173007114603,153.77270467948816
0.05318051128214196,211.72612832795804
0.05526814857144601,273.19481470388246
0.057437737488265785,330.6192205400638
0.0596924950997073,375.35158851448455
0.0620357647610427,399.17487504279694
0.06447102107323864,395.2694002230801
0.06700187503509585,361.4385240463837
0.06963207939763882,302.28871253762435
0.0723655342286965,228.94727700068123
0.07520629269592405,154.6685673262013
0.07815856707684081,91.2695269309892
0.08122673500479707,45.888849517025974
0.08441534596012978,18.914556056625898
0.0877291280161335,7.08118917032604
0.09117299484984914,3.458816382138217
0.09475205302806537,3.9111887178526277
0.09847160957933764,8.733866328481577
0.1023371798632519,21.103531387046313
0.10635449574860109,41.89947071593406
0.11052951411260206,65.73919183392526
0.1148684256737553,82.54042495504649
0.1193776641714435,84.10798426662195
0.1240639159058831,68.79303593872686
0.12893412965257148,44.10147835752587
0.13399552696593373,22.036510581992662
0.1392556128874462,9.016961017574125
0.14472218707411338,4.059985484470579
0.15040335536380234,3.8615802576750293
0.15630754179458153,7.505830286150313
0.16244350109588662,15.077231613711707
0.16882033167003618,22.94758311416489
0.17544748908334581,24.749326351937437
0.1823348000868439,19.096289622159524
0.189492477187382,10.817526271376847
0.19693113379074215,5.328104587031328
0.20466179993919872,3.6783075988159983
0.21269593866686892,4.772593478431562
0.22104546299710207,7.530268868244457
0.22972275360711503,9.293767630979175
0.23874067718606454,8.017165356644272
0.2481126055137766,5.15260771776512
0.25785243528842716,3.324104135620631
0.26797460873256895,3.1664479007037345
0.27849413500806414,3.962750461086433
0.28942661247167484,4.3445967043584774
0.3007882518043098,3.5759873239716193
0.31259590004822796,2.5832773133520357
0.324867065587837,2.257415801140103
0.3376199441111335,2.419993331832483
0.35087344559027084,2.3878596263362133
0.36464722232127456,1.9738767507822421
0.37896169806447155,1.6517533325836529
0.3938380983288488,1.5932106410147382
0.4092984818452433,1.5251041209389322
0.4253657732750382,1.322800796239864
0.44206379720285277,1.1693283576283031
0.45941731346364734,1.096870741667652
0.47745205385661277,0.9951439756259155
0.4961947603002895,0.8845868425970708
0.5156732244854959,0.8092835856807788
0.5359163290848509,0.7359847624286978
0.556954090580013,0.6622807601313423
0.5788177037701272,0.599823364968085
0.6015395880274836,0.5433680248276072
0.6251534353689703,0.49217909435218715
0.6496942604146115,0.4457441070547181
0.6751984523072497,0.40360487055394073
0.7017038286703824,0.36535117222863234
0.7292496916841444,0.33062043951882975
0.7578768863625915,0.2991057917449024
0.7876278611187046,0.27052941793730106
0.8185467307069019,0.24463429905959064
0.850679341636415,0.22118312641609772
0.8840733401525058,0.19995708582872637
0.9187782428863317,0.18075100377848635
0.9548455102782278,0.1633731897750878
0.9923286228832539,0.14764994332118758
1.0312831606721837,0.1334241607469105
1.0717668854455022,0.12055372871068203
1.1138398264826193,0.10891020178438149
1.1575643695533022,0.09837805544475613
1.2030053494233226,0.08885276675801389
1.2502301459914542,0.08023946519236905
1.299308784200415,0.07245206040328223
1.3503140378698726,0.06541244716626943
1.4033215376054824,0.0590497595119254
1.4584098829439835,0.05329970465144845
1.5156607589006013,0.048104004093923826
1.575159057091621,0.043409844709065115
1.6369930016117014,0.03916937472908646
1.7012542798525885,0.03533924291313484
1.7680381784572046,0.031880163228489224
1.8374437246107238,0.028756554545104014
1.9095738328780953,0.025936209519524644
1.9845354578058014,0.023389978767087264
2.0624397525140905,0.021091484053637265
2.143402233514853,0.01901686180748616
2.227542951999554,0.017144530722996213
2.314986671851158,0.015454966607706814
2.405863054644063,0.013930507370777683
2.5003068519063225,0.012555177859908265
2.598458104929248,0.011314530670978415
2.7004623524206774,0.010195498629515003
2.806470846309834,0.009186266339741803
2.916640776023701,0.008276154905235452
3.031135501567576,0.007455513900081284
3.150124795755327,0.006715623391921583
3.2737850959485697,0.006048605019919842
3.4022997656780634,0.005447341247257679
3.5358593665351745,0.004905403234536911
3.6746619407366854,0.004416985028120625
3.8189133047818515,0.003976843805888699
3.968827354637162,0.0035802458430740204
4.1246263829013445,0.003222918909771686
4.286541408420921,0.002901007503355293
4.4548125188449825,0.0026110309049661782
4.629689226627261,0.0023498470855402034
4.811430839003257,0.002114620135553757
5.000306842491082,0.0019027903227934269
5.196597302486189,0.00171204560313215
5.400593278542364,0.0015403000640743297
5.612597255954967,0.0013856729355464093
5.8329235942862,0.0012464685291456534
6.06189899349756,0.0011211581382223567
6.29986297838068,0.0010083644106384084
6.547168402004727,0.0009068466733721147
6.804181968927091,0.0008154862249045427
7.071284778942991,0.0007332743532829554
7.348872892180382,0.0006593016360237769
7.637357916378006,0.0005927481802540201
7.937167617217536,0.0005328742838466363
8.248746552614573,0.0004790131935573895
8.572556731909314,0.0004305643725556773
8.909078300934132,0.0003869869584700036
9.258810253973934,0.0003477938619810448
9.622271173675122,0.000312546625080037
9.999999999999984,0.00028085076587281343
