k [1/Mpc],P(k) [Mpc^3]
0.0001,933.0049708336003
0.00010392556829367125,966.8111201655256
0.00010800523745162529,1001.8402357152096
0.00011224505680853065,1038.1363382430054
0.00011665131316981963,1075.7450136811597
0.00012123054013376525,1114.7134470528326
0.00012598952777950273,1155.0904940712983
0.00013093533273536104,1196.9267063135208
0.00013607528864243335,1240.2743720075644
0.00014141701702890234,1285.18762684463
0.00014696843861124463,1331.722555504625
0.00015273778503907136,1379.9372407434744
0.00015873361110102093,1429.8917412605315
0.00016496480740980205,1481.6480684330154
0.0001714406135851971,1535.2703766577365
0.00017817063195457305,1590.825067112776
0.00018516484179121546,1648.3808601765036
0.000192433614111598,1708.0088272790922
0.00019998772705352857,1769.7823790373518
0.0002078383818579757,1833.7774226745555
0.00021599721947827182,1900.0723567467678
0.0002244763378413224,1968.748132899756
0.0002332883097864157,2039.8884337764239
0.00024244620170823283,2113.579735203998
0.0002519635929317015,2189.9114112816405
0.0002618545958474233,2268.9756422523233
0.0002721338768375308,2350.867355684492
0.0002828166780230032,2435.68455059272
0.0002939188398646886,2523.528282532907
0.0003054568246515432,2614.502803834481
0.00031744774091091926,2708.715626724241
0.00032990936877709396,2806.2774510929835
0.00034286018635565856,2907.3024145070012
0.00035631939712285854,3011.9078468401203
0.000370306958400514,3120.2143743640763
0.00038484361094874304,3232.3461950149226
0.0003999509097203664,3348.430875790343
0.00041565125582259895,3468.5996595634806
0.00043196792973341727,3592.987263024602
0.0004489251258218605,3721.7317991997134
0.0004665479882234472,3854.97515656639
0.000484862648123908,3992.86255806895
0.000503896262506515,4135.542903919199
0.0005236770544204653,4283.168762676286
0.0005442343548300266,4435.896094320571
0.0005655986461065005,4593.884671373025
0.0005878016072274912,4757.297382344079
0.0006108761607505036,4926.300444994463
0.0006348565216305217,5101.063595446436
0.0006597782479539537,5281.759381116965
0.0006856782936641739,5468.563793303274
0.0007125950633568407,5661.655578841978
0.0007405684692262436,5861.216085648708
0.0007696399902471156,6067.429691851768
0.0007998527336796708,6280.482653753886
0.000831251498989063,6500.563744931736
0.0008638828442740447,6727.863248739432
0.000897795155303332,6962.571938671368
0.0009330387172620361,7204.882283701109
0.0009696657893145519,7454.986560585704
0.001007730682094461,7713.0773792702175
0.0010472898382363582,7979.346957103726
0.0010884019160690055,8253.984647991152
0.0011311278765939214,8537.178898431732
0.001175531073878369,8829.11426594231
0.0012216773489967915,9129.971259476695
0.0012696351276599736,9439.927193063155
0.0013194755216767058,9759.153031878612
0.0013712724343984,10087.81494978753
0.0014251026703029975,10426.071268660764
0.0014810460488806749,10774.070664047898
0.0015391855229902056,11131.95405607338
0.001599607301861487,11499.85009557781
0.0016624009789266115,11877.876531486294
0.0017276596646690358,12266.137887933677
0.0017954801246878305,12664.721424854033
0.0018659629231817451,13073.700222270081
0.001939212572065829,13493.12838552286
0.0020153376859417325,13923.041161853245
0.002094451143151469,14363.454450463785
0.002176670253153458,14814.359623405766
0.002262116930469025,15275.726066080128
0.002350917875457286,15747.495959018866
0.002443204762186487,16229.582593503976
0.0025391144336803463,16721.871681489007
0.002638789104828933,17224.213999527485
0.002742376573264949,17736.428357720517
0.0028500304385181063,18258.2973717038
0.0029619103297725525,18789.563170351954
0.0030781821425650787,19329.93116301285
0.003199018284775064,19879.062854480948
0.0033245979322709396,20436.577470744876
0.003455107294592217,21002.04887289559
0.0035907398910610534,21574.997403131532
0.0037316968377327513,22154.896734950755
0.0038781871456107214,22741.163981344347
0.0040304280305680515,23333.16041528905
0.00418864523543527,23930.192374497863
0.004353073364731888,24531.495005427354
0.00452395623253805,25136.245674814418
0.004701547224022131,25743.55892610185
0.004886109671160325,26352.48415929336
0.005077917243205399,26962.00233989504
0.005277254352483535,27570.96021550047
0.005484416576121017,28178.114516605692
0.005699711094326071,28782.228807206757
0.005923457145875801,29382.135262200958
0.006155986501483508,29976.595486141778
0.006397643955748424,30563.9111931791
0.0066487878384172625,31142.067163830503
0.0069097905457156435,31709.05102537253
0.007181039092537346,32263.031892532163
0.007462935686310132,32802.174967056744
0.007755898323389004,33324.60491648312
0.00806036140886134,33828.413380659076
0.008376776400682916,34311.59410233738
0.008705612479099857,34771.781994072786
0.009047357242349292,35206.488391343766
0.00940251742967013,35613.12512541472
0.009771619672696168,35988.9844356645
0.010155211276345676,36331.33408038347
0.010553861030365234,36637.28350935595
0.010968160052731372,36903.90055427033
0.011398722666160517,37128.212824963535
0.011846187309026826,37307.11247043942
0.012311217482038896,37437.55492252141
0.012794502732078732,37516.32626157455
0.013296759674662111,37540.1722034998
0.013818733056536317,37505.93764012562
0.014361196859990781,37410.32454796113
0.014924955450518284,37250.25989232214
0.015510844769528393,37022.72578058578
0.016119733573881575,36724.80176219235
0.01675252472408214,36353.96900036824
0.017410156523040152,35907.73685916356
0.018093604107387147,35384.102028509034
0.01880388089340914,34781.520578751784
0.019542040079740527,34098.8039893747
0.02030917620904734,33335.62145830461
0.021106426791015535,32492.15944898555
0.021934973989050584,31569.464209201935
0.02279604637318978,30569.627633659864
0.023690920741826323,29495.591038347422
0.02462092401494623,28351.54539768944
0.02558743520168586,27142.896731014658
0.02659188744512693,25876.24948637565
0.027635770147361564,24559.5154841256
0.028720631177978267,23202.087724383033
0.029848079169243254,21814.291812172945
0.03101978590138095,20407.823049192506
0.03223748878149028,18995.483450904903
0.0335029934197723,17590.135555565193
0.03481817630688963,16206.278451171085
0.03618498759642746,14857.65301804476
0.037605453996581675,13557.625904029925
0.03908168177536263,12320.01184444818
0.04061585988376978,11155.518728443858
0.04221026320156896,10075.589963203704
0.04386725591048496,9089.37738682265
0.0455892949998106,8202.05404403169
0.047378933909631396,7417.678690304072
0.049238826317067365,6736.886953822257
0.05117173007114603,6161.215827406467
0.05318051128214196,5692.098047572921
0.05526814857144601,5324.572953791912
0.057437737488265785,5048.040583380861
0.0596924950997073,4853.335019706923
0.0620357647610427,4732.224048457568
0.06447102107323864,4675.867680402751
0.06700187503509585,4672.438569090755
0.06963207939763882,4706.715140849937
0.0723655342286965,4759.024714405056
0.07520629269592405,4804.884039860734
0.07815856707684081,4817.317936400195
0.08122673500479707,4769.976848646961
0.08441534596012978,4642.962067841955
0.0877291280161335,4424.578158226784
0.09117299484984914,4113.764651991859
0.09475205302806537,3723.1494995425114
0.09847160957933764,3277.167151996494
0.1023371798632519,2809.5175452324443
0.10635449574860109,2358.683361182229
0.11052951411260206,1960.965021608947
0.1148684256737553,1641.8942438195124
0.1193776641714435,1413.2784798259752
0.1240639159058831,1275.144179742338
0.12893412965257148,1219.3397746322846
0.13399552696593373,1231.8701966015064
0.1392556128874462,1292.0726575384365
0.14472218707411338,1370.0222122996543
0.15040335536380234,1426.544818494228
0.15630754179458153,1421.6556436573842
0.16244350109588662,1332.0433291401362
0.16882033167003618,1166.6316729443186
0.17544748908334581,963.5354633740299
0.1823348000868439,770.2410152916005
0.189492477187382,624.6241555161374
0.19693113379074215,544.7631315054814
0.20466179993919872,527.7714639411952
0.21269593866686892,554.9354771372209
0.22104546299710207,594.2224302409198
0.22972275360711503,605.3318523579482
0.23874067718606454,561.7933051710762
0.2481126055137766,472.97742830802775
0.25785243528842716,377.6307762679535
0.26797460873256895,312.5050866444427
0.27849413500806414,289.8238749845459
0.28942661247167484,298.69688039357874
0.3007882518043098,310.78449702280614
0.31259590004822796,296.80262382381784
0.324867065587837,254.01983364425612
0.3376199441111335,207.95200511177572
0.35087344559027084,182.82501270392527
0.36464722232127456,179.8547341188484
0.37896169806447155,181.0339426067812
0.3938380983288488,167.44130414262318
0.4092984818452433,142.38656043611098
0.4253657732750382,123.76427478387203
0.44206379720285277,118.03258852816965
0.45941731346364734,114.67056867055804
0.47745205385661277,103.49159690375555
0.4961947603002895,89.98438206157381
0.5156732244854959,82.76113337324011
0.5359163290848509,78.75565089526468
0.556954090580013,71.46581350749985
0.5788177037701272,63.5042335995039
0.6015395880274836,58.810073199290976
0.6251534353689703,54.47537941662255
0.6496942604146115,48.972950733196036
0.6751984523072497,44.325337809965546
0.7017038286703824,40.3322565776904
0.7292496916841444,36.83382533869278
0.7578768863625915,33.71409795494105
0.7876278611187046,30.883268843416978
0.8185467307069019,28.272131920830198
0.850679341636415,25.835153715382305
0.8840733401525058,23.567022144058555
0.9187782428863317,21.469091669934304
0.9548455102782278,19.539438196764568
0.9923286228832539,17.773544989465464
1.0312831606721837,16.16489910244591
1.0717668854455022,14.703209025809901
1.1138398264826193,13.374247263057647
1.1575643695533022,12.164928106876877
1.2030053494233226,11.063629529122851
1.2502301459914542,10.060011578912285
1.299308784200415,9.144894036814462
1.3503140378698726,8.31054418618778
1.4033215376054824,7.550243600851425
1.4584098829439835,6.857783757871661
1.5156607589006013,6.2274254507713085
1.575159057091621,5.65387004267667
1.6369930016117014,5.1322130394417025
1.7012542798525885,4.6578580352663685
1.7680381784572046,4.226581189462772
1.8374437246107238,3.8345310376195734
1.9095738328780953,3.478195986578624
1.9845354578058014,3.1543746777212527
2.0624397525140905,2.8601553082901927
2.143402233514853,2.5928935091854783
2.227542951999554,2.350175592255719
2.314986671851158,2.1297976835080745
2.405863054644063,1.9297481699717793
2.5003068519063225,1.7481914297740209
2.598458104929248,1.583451388521763
2.7004623524206774,1.433998915071272
2.806470846309834,1.2984408706622146
2.916640776023701,1.1755083712077734
3.031135501567576,1.0640459855865494
3.150124795755327,0.963001837762899
3.2737850959485697,0.8714185280219627
3.4022997656780634,0.7884248811490134
3.5358593665351745,0.7132283763308519
3.6746619407366854,0.6451082100984494
3.8189133047818515,0.5834089539833186
3.968827354637162,0.5275347316275346
4.1246263829013445,0.4769439074017537
4.286541408420921,0.43114431149377047
4.4548125188449825,0.3896888237255336
4.629689226627261,0.3521713343675967
4.811430839003257,0.31822305524218397
5.000306842491082,0.2875091064277843
5.196597302486189,0.25972548029417053
5.400593278542364,0.23459630176071108
5.612597255954967,0.2118712730632776
5.8329235942862,0.19132334394545875
6.06189899349756,0.17274659715086954
6.29986297838068,0.15595434732761548
6.547168402004727,0.14077733973869716
6.804181968927091,0.1270621341094464
7.071284778942991,0.11466965284249857
7.348872892180382,0.10347385965726029
7.637357916378006,0.09336052523659133
7.937167617217536,0.08422610943944311
8.248746552614573,0.07597685097616526
8.572556731909314,0.06852786666153397
8.909078300934132,0.06180232121741167
9.258810253973934,0.05573067619164594
9.622271173675122,0.05025005501755797
9.999999999999984,0.045303596601204046
