k [1/Mpc],P(k) [Mpc^3]
0.0001,15.592550359528335
0.00010392556829367125,16.298393655462952
0.00010800523745162529,17.036180040943847
0.00011224505680853065,17.807353731409137
0.00011665131316981963,18.613423971987647
0.00012123054013376525,19.455967964455336
0.00012598952777950273,20.336634011221008
0.00013093533273536104,21.257144611100856
0.00013607528864243335,22.219299886745297
0.00014141701702890234,23.224981615627044
0.00014696843861124463,24.276157138624818
0.00015273778503907136,25.374882346594283
0.00015873361110102093,26.523303731227784
0.00016496480740980205,27.72366341068693
0.0001714406135851971,28.978304824638734
0.00017817063195457305,30.289677975642068
0.00018516484179121546,31.660343197252235
0.000192433614111598,33.09297527679837
0.00019998772705352857,34.59036873122255
0.0002078383818579757,36.15544285254045
0.00021599721947827182,37.79124560099599
0.0002244763378413224,39.50096092482202
0.0002332883097864157,41.28791610941521
0.00024244620170823283,43.155588266563775
0.0002519635929317015,45.10760973938838
0.0002618545958474233,47.14777307841757
0.0002721338768375308,49.28003934480937
0.0002828166780230032,51.50854430248624
0.0002939188398646886,53.83760484746932
0.0003054568246515432,56.27172952582952
0.00031744774091091926,58.815629288916604
0.00032990936877709396,61.474225443132
0.00034286018635565856,64.25265383114856
0.00035631939712285854,67.15626823037663
0.000370306958400514,70.19065661490959
0.00038484361094874304,73.36165203267322
0.0003999509097203664,76.67534315229884
0.00041565125582259895,80.13808541022257
0.00043196792973341727,83.75651228110429
0.0004489251258218605,87.53754687896442
0.0004665479882234472,91.48840351886972
0.000484862648123908,95.61659669704478
0.000503896262506515,99.92996425897448
0.0005236770544204653,104.43668175701926
0.0005442343548300266,109.14527612748847
0.0005655986461065005,114.06463388912805
0.0005878016072274912,119.20401023115457
0.0006108761607505036,124.5730512903647
0.0006348565216305217,130.181800165843
0.0006597782479539537,136.04071607811707
0.0006856782936641739,142.1606914658559
0.0007125950633568407,148.55305911986565
0.0007405684692262436,155.22961880268608
0.0007696399902471156,162.20264802613838
0.0007998527336796708,169.48491999006748
0.000831251498989063,177.08972143369232
0.0008638828442740447,185.03084336920662
0.000897795155303332,193.32262036058367
0.0009330387172620361,201.9799549583838
0.0009696657893145519,211.0183360538853
0.001007730682094461,220.45385491399927
0.0010472898382363582,230.30317349563342
0.0010884019160690055,240.5835689111657
0.0011311278765939214,251.3129634361568
0.001175531073878369,262.50992980597266
0.0012216773489967915,274.1937258166402
0.0012696351276599736,286.3842638823913
0.0013194755216767058,299.1021404821227
0.0013712724343984,312.36865725109277
0.0014251026703029975,326.205766507841
0.0014810460488806749,340.63615061414527
0.0015391855229902056,355.68320856584086
0.001599607301861487,371.37106264257426
0.0016624009789266115,387.7245858823237
0.0017276596646690358,404.7692967274128
0.0017954801246878305,422.5314430048929
0.0018659629231817451,441.0379795942722
0.001939212572065829,460.31652356527195
0.0020153376859417325,480.39542331129775
0.002094451143151469,501.3036143067273
0.002176670253153458,523.0706731140183
0.002262116930469025,545.7268097167449
0.002350917875457286,569.3027407780785
0.002443204762186487,593.8297908334329
0.0025391144336803463,619.339732301155
0.002638789104828933,645.8647728094486
0.002742376573264949,673.4375612304618
0.0028500304385181063,702.090925391301
0.0029619103297725525,731.8580053915604
0.0030781821425650787,762.7720888445972
0.003199018284775064,794.8664942569961
0.0033245979322709396,828.1746228392549
0.003455107294592217,862.7295928727822
0.0035907398910610534,898.5643244789057
0.0037316968377327513,935.7113392877204
0.0038781871456107214,974.2024429947187
0.0040304280305680515,1014.0688831008097
0.00418864523543527,1055.3408329035972
0.004353073364731888,1098.047384378113
0.00452395623253805,1142.2164165566473
0.004701547224022131,1187.8739979385753
0.004886109671160325,1235.044629528039
0.005077917243205399,1283.7506118077265
0.005277254352483535,1334.0118271080023
0.005484416576121017,1385.845697791513
0.005699711094326071,1439.2660030782317
0.005923457145875801,1494.2833342883803
0.006155986501483508,1550.904509355453
0.006397643955748424,1609.131987789781
0.0066487878384172625,1668.9639045142083
0.0069097905457156435,1730.3912667791894
0.007181039092537346,1793.3988795902474
0.007462935686310132,1857.967189713693
0.007755898323389004,1924.073265659904
0.00806036140886134,1991.687903046522
0.008376776400682916,2060.763676944608
0.008705612479099857,2131.2368396125507
0.009047357242349292,2203.035619918834
0.00940251742967013,2276.083653582924
0.009771619672696168,2350.296276562729
0.010155211276345676,2425.5783264825186
0.010553861030365234,2501.8237257980727
0.010968160052731372,2578.9135369355354
0.011398722666160517,2656.7041835689106
0.011846187309026826,2735.035007144272
0.012311217482038896,2813.727746973821
0.012794502732078732,2892.583428155562
0.013296759674662111,2971.387119312665
0.013818733056536317,3049.899904717348
0.014361196859990781,3127.86300822352
0.014924955450518284,3204.9974334062686
0.015510844769528393,3280.996517772377
0.016119733573881575,3355.5358501306905
0.01675252472408214,3428.2611574174334
0.017410156523040152,3498.791961418172
0.018093604107387147,3566.729282097998
0.01880388089340914,3631.642380793661
0.019542040079740527,3693.0854294702694
0.02030917620904734,3750.5898482654557
0.021106426791015535,3803.664173850218
0.021934973989050584,3851.811116865388
0.02279604637318978,3894.512453613269
0.023690920741826323,3931.2487930903067
0.02462092401494623,3961.503815180827
0.02558743520168586,3984.7619522377886
0.02659188744512693,4000.531772486
0.027635770147361564,4008.3445445187426
0.028720631177978267,4007.7673445165296
0.029848079169243254,3998.4220023641965
0.03101978590138095,3979.999548972671
0.03223748878149028,3952.2611192544105
0.0335029934197723,3915.069332083111
0.03481817630688963,3868.3898317905396
0.03618498759642746,3812.30107554294
0.037605453996581675,3747.0948103760215
0.03908168177536263,3673.1728851756525
0.04061585988376978,3591.0507729148203
0.04221026320156896,3501.362427532568
0.04386725591048496,3404.876089861587
0.0455892949998106,3302.9878323105786
0.047378933909631396,3197.2853309534753
0.049238826317067365,3089.047643795906
0.05117173007114603,2979.064903889782
0.05318051128214196,2868.1170679351667
0.05526814857144601,2757.952843236801
0.057437737488265785,2650.763964871288
0.0596924950997073,2548.373286031556
0.0620357647610427,2452.182445868259
0.06447102107323864,2363.319109075337
0.06700187503509585,2282.6061041417624
0.06963207939763882,2210.6375060842697
0.0723655342286965,2147.5146723322614
0.07520629269592405,2093.0721591541314
0.07815856707684081,2046.6446435047476
0.08122673500479707,2007.2631558152805
0.08441534596012978,1973.4267881514158
0.0877291280161335,1943.1611973750566
0.09117299484984914,1913.9536652539741
0.09475205302806537,1882.789143462599
0.09847160957933764,1846.4273351180689
0.1023371798632519,1801.734994432698
0.10635449574860109,1746.3728390915303
0.11052951411260206,1679.1331903878759
0.1148684256737553,1600.008415590115
0.1193776641714435,1510.164794259899
0.1240639159058831,1412.5541642955209
0.12893412965257148,1311.4801366407671
0.13399552696593373,1212.16061379773
0.1392556128874462,1120.207854804213
0.14472218707411338,1040.626080273228
0.15040335536380234,976.8257600582799
0.15630754179458153,929.9999611325833
0.16244350109588662,898.9098639738689
0.16882033167003618,879.997182541331
0.17544748908334581,867.6857254749884
0.1823348000868439,854.9995088222257
0.189492477187382,834.8001004085227
0.19693113379074215,801.5980006832953
0.20466179993919872,753.445678121106
0.21269593866686892,693.283307973582
0.22104546299710207,628.7751911939572
0.22972275360711503,569.6286682745801
0.23874067718606454,523.5668684427256
0.2481126055137766,493.84281220420274
0.25785243528842716,478.6260109733236
0.26797460873256895,471.0655782094604
0.27849413500806414,461.23956662996267
0.28942661247167484,440.9400497609816
0.3007882518043098,408.1044895173106
0.31259590004822796,368.4678653193234
0.324867065587837,332.36000826246374
0.3376199441111335,307.68792645124137
0.35087344559027084,295.1773010826264
0.36464722232127456,288.1075148469866
0.37896169806447155,277.02729829648695
0.3938380983288488,257.0155709398522
0.4092984818452433,232.15970577323654
0.4253657732750382,211.41761312611303
0.44206379720285277,199.31171554585436
0.45941731346364734,192.14722832170037
0.47745205385661277,182.35183581554168
0.4961947603002895,167.29909257292385
0.5156732244854959,152.13012558151343
0.5359163290848509,142.0303653655992
0.556954090580013,135.31069842361856
0.5788177037701272,126.77257811553784
0.6015395880274836,115.97037064378667
0.6251534353689703,107.04972922567104
0.6496942604146115,100.88409431827486
0.6751984523072497,94.24224355814091
0.7017038286703824,86.56774362094974
0.7292496916841444,80.29354949252662
0.7578768863625915,75.16090377205657
0.7876278611187046,69.49172085406443
0.8185467307069019,64.1765347424007
0.850679341636415,59.773351554233656
0.8840733401525058,55.543902027483355
0.9187782428863317,51.41727725339996
0.9548455102782278,47.498322308639686
0.9923286228832539,43.86211159395443
1.0312831606721837,40.527558122171264
1.0717668854455022,37.4623009263669
1.1138398264826193,34.63534920815334
1.1575643695533022,32.020182867266286
1.2030053494233226,29.594101719138948
1.2502301459914542,27.33798528695923
1.299308784200415,25.239515938729596
1.3503140378698726,23.290282153601193
1.4033215376054824,21.482015156927297
1.4584098829439835,19.80656464159472
1.5156607589006013,18.255952150938892
1.575159057091621,16.822291530541523
1.6369930016117014,15.497262026324652
1.7012542798525885,14.272820570572838
1.7680381784572046,13.141516372547771
1.8374437246107238,12.096447209522287
1.9095738328780953,11.13121841030766
1.9845354578058014,10.239944721998027
2.0624397525140905,9.417276283547212
2.143402233514853,8.658238981707406
2.227542951999554,7.958187159048866
2.314986671851158,7.312785190919788
2.405863054644063,6.7179895581792
2.5003068519063225,6.170019769164197
2.598458104929248,5.665340393521829
2.7004623524206774,5.200667165385543
2.806470846309834,4.772952212354656
2.916640776023701,4.379368213124396
3.031135501567576,4.017293574104712
3.150124795755327,3.684299374581419
3.2737850959485697,3.3781356986893663
3.4022997656780634,3.0967183803667906
3.5358593665351745,2.838117557350751
3.6746619407366854,2.600546970222078
3.8189133047818515,2.3823538428157587
3.968827354637162,2.1820089862153234
4.1246263829013445,1.9980985941526803
4.286541408420921,1.8293163259725491
4.4548125188449825,1.674455571655761
4.629689226627261,1.5324022317989467
4.811430839003257,1.4021279079488551
5.000306842491082,1.282683479419362
5.196597302486189,1.173193529290504
5.400593278542364,1.07285094308774
5.612597255954967,0.9809118170739609
5.8329235942862,0.8966907225710726
6.06189899349756,0.8195562090235695
6.29986297838068,0.7489266857019012
6.547168402004727,0.6842668212995224
6.804181968927091,0.6250840239741684
7.071284778942991,0.5709251568264597
7.348872892180382,0.5213734845130342
7.637357916378006,0.4760456849409104
7.937167617217536,0.43458932094423575
8.248746552614573,0.396680616421954
8.572556731909314,0.36202220315086825
8.909078300934132,0.3303410309427504
9.258810253973934,0.3013864813530563
9.622271173675122,0.27492887369583713
9.999999999999984,0.2507575144808132
