k [1/Mpc],P(k) [Mpc^3]
0.0001,219.55993314756452
0.00010392556829367125,228.17556293422578
0.00010800523745162529,237.1289943458412
0.00011224505680853065,246.43343444767106
0.00011665131316981963,256.1026046417007
0.00012123054013376525,266.15076425846985
0.00012598952777950273,276.5927293334303
0.00013093533273536104,287.44388483176704
0.00013607528864243335,298.7201984568186
0.00014141701702890234,310.438254856874
0.00014696843861124463,322.6152817710517
0.00015273778503907136,335.26917436360804
0.00015873361110102093,348.4185183187759
0.00016496480740980205,362.0826125059822
0.0001714406135851971,376.2814988843287
0.00017817063195457305,391.03597097318243
0.00018516484179121546,406.3676018628511
0.000192433614111598,422.2987931381979
0.00019998772705352857,438.8528163285803
0.0002078383818579757,456.05383748380353
0.00021599721947827182,473.9269202843048
0.0002244763378413224,492.4980472872972
0.0002332883097864157,511.79418447808473
0.00024244620170823283,531.8433190823102
0.0002519635929317015,552.6744972744796
0.0002618545958474233,574.3178344973086
0.0002721338768375308,596.8045236677582
0.0002828166780230032,620.1669164026376
0.0002939188398646886,644.4385560185045
0.0003054568246515432,669.6542240058131
0.00031744774091091926,695.8499759847781
0.00032990936877709396,723.0631533525401
0.00034286018635565856,751.3324579326685
0.00035631939712285854,780.6979313318296
0.000370306958400514,811.2009981229816
0.00038484361094874304,842.8845627973722
0.0003999509097203664,875.793021397704
0.00041565125582259895,909.9723388584932
0.00043196792973341727,945.470045881111
0.0004489251258218605,982.3352583488172
0.0004665479882234472,1020.6187846110106
0.000484862648123908,1060.3730831982832
0.000503896262506515,1101.6523644342853
0.0005236770544204653,1144.5125962395389
0.0005442343548300266,1189.011457979844
0.0005655986461065005,1235.2085146074512
0.0005878016072274912,1283.165196404886
0.0006108761607505036,1332.944872455022
0.0006348565216305217,1384.6128728688498
0.0006597782479539537,1438.2363707783827
0.0006856782936641739,1493.8845820280008
0.0007125950633568407,1551.6286575018646
0.0007405684692262436,1611.5417145345157
0.0007696399902471156,1673.6989778127006
0.0007998527336796708,1738.1776253715057
0.000831251498989063,1805.0569613688301
0.0008638828442740447,1874.4182273057093
0.000897795155303332,1946.3444902688032
0.0009330387172620361,2020.9209264554622
0.0009696657893145519,2098.2345644697984
0.001007730682094461,2178.374442879755
0.0010472898382363582,2261.4313829802904
0.0010884019160690055,2347.4975814509207
0.0011311278765939214,2436.667069053869
0.001175531073878369,2529.0350684505356
0.0012216773489967915,2624.6981288439356
0.0012696351276599736,2723.7542265052602
0.0013194755216767058,2826.302162857945
0.0013712724343984,2932.441970734744
0.0014251026703029975,3042.2739901243854
0.0014810460488806749,3155.898695002409
0.0015391855229902056,3273.417091312883
0.001599607301861487,3394.9296536472402
0.0016624009789266115,3520.5368265304064
0.0017276596646690358,3650.338280812694
0.0017954801246878305,3784.432281408688
0.0018659629231817451,3922.916140777406
0.001939212572065829,4065.884394661034
0.0020153376859417325,4213.429330487364
0.002094451143151469,4365.640621159227
0.002176670253153458,4522.604127541039
0.002262116930469025,4684.402537849859
0.002350917875457286,4851.113521083165
0.002443204762186487,5022.809705465976
0.0025391144336803463,5199.558565896733
0.002638789104828933,5381.420627047762
0.002742376573264949,5568.450153795812
0.0028500304385181063,5760.692989294581
0.0029619103297725525,5958.185859370253
0.0030781821425650787,6160.956854282178
0.003199018284775064,6369.022941500069
0.0033245979322709396,6582.390672079333
0.003455107294592217,6801.053710745622
0.0035907398910610534,7024.990941206061
0.0037316968377327513,7254.168029464168
0.0038781871456107214,7488.5341935499555
0.0040304280305680515,7728.022812366025
0.00418864523543527,7972.549589026205
0.004353073364731888,8222.00922643015
0.00452395623253805,8476.277673479366
0.004701547224022131,8735.206641050205
0.004886109671160325,8998.6241924253
0.005077917243205399,9266.335831901126
0.005277254352483535,9538.120993644487
0.005484416576121017,9813.734321174987
0.005699711094326071,10092.888286777832
0.005923457145875801,10375.251662133924
0.006155986501483508,10660.471829343182
0.006397643955748424,10948.205343799566
0.0066487878384172625,11238.092867632316
0.0069097905457156435,11529.67119026891
0.007181039092537346,11822.335649094157
0.007462935686310132,12115.44033183289
0.007755898323389004,12408.364924817839
0.00806036140886134,12700.483282033838
0.008376776400682916,12991.134198406286
0.008705612479099857,13279.618903912931
0.009047357242349292,13565.20102388286
0.00940251742967013,13847.040300280814
0.009771619672696168,14124.214976580628
0.010155211276345676,14395.753234716009
0.010553861030365234,14660.60629055431
0.010968160052731372,14917.683463836453
0.011398722666160517,15165.829557380483
0.011846187309026826,15403.829989685406
0.012311217482038896,15630.433726526058
0.012794502732078732,15844.309453724525
0.013296759674662111,16044.095396975099
0.013818733056536317,16228.366584994252
0.014361196859990781,16395.620272992364
0.014924955450518284,16544.348832821757
0.015510844769528393,16672.97890240222
0.016119733573881575,16779.935224500736
0.01675252472408214,16863.64335110409
0.017410156523040152,16922.493964428453
0.018093604107387147,16954.94569489739
0.01880388089340914,16959.470421969352
0.019542040079740527,16934.61040847155
0.02030917620904734,16879.031364348786
0.021106426791015535,16791.485718363
0.021934973989050584,16670.914877419422
0.02279604637318978,16516.461694190944
0.023690920741826323,16327.498091417265
0.02462092401494623,16103.688114454288
0.02558743520168586,15845.046061813602
0.02659188744512693,15551.917417404375
0.027635770147361564,15225.10691513618
0.028720631177978267,14865.916212496672
0.029848079169243254,14476.017659282932
0.03101978590138095,14057.789384333137
0.03223748878149028,13613.999489874142
0.0335029934197723,13147.955114180795
0.03481817630688963,12663.769752130065
0.03618498759642746,12165.62589064428
0.037605453996581675,11658.407336107353
0.03908168177536263,11147.175329483305
0.04061585988376978,10637.126168609257
0.04221026320156896,10134.600563674872
0.04386725591048496,9645.282058459474
0.0455892949998106,9173.810260361959
0.047378933909631396,8723.871026511946
0.049238826317067365,8299.133556545254
0.05117173007114603,7905.900281677
0.05318051128214196,7549.971668327838
0.05526814857144601,7233.274209675106
0.057437737488265785,6954.556929747267
0.0596924950997073,6712.091672086515
0.0620357647610427,6503.401102551302
0.06447102107323864,6325.3007336501005
0.06700187503509585,6172.516905550583
0.06963207939763882,6039.513322278904
0.0723655342286965,5920.205701931642
0.07520629269592405,5805.680264086777
0.07815856707684081,5683.774404087636
0.08122673500479707,5542.67704913835
0.08441534596012978,5372.013400409924
0.0877291280161335,5164.190213418048
0.09117299484984914,4916.658037755199
0.09475205302806537,4632.176767643529
0.09847160957933764,4318.344786226091
0.1023371798632519,3986.390868888808
0.10635449574860109,3650.5421470922456
0.11052951411260206,3326.4237957977416
0.1148684256737553,3030.607345022485
0.1193776641714435,2777.7817480221624
0.1240639159058831,2577.4616333109375
0.12893412965257148,2432.1091926392687
0.13399552696593373,2336.1799380887046
0.1392556128874462,2277.1020891566413
0.14472218707411338,2237.067162499459
0.15040335536380234,2195.315436411056
0.15630754179458153,2131.8658087406666
0.16244350109588662,2032.3587392628435
0.16882033167003618,1892.5207682685568
0.17544748908334581,1721.2446540467351
0.1823348000868439,1540.2869569809036
0.189492477187382,1376.6001270897043
0.19693113379074215,1249.9450257606763
0.20466179993919872,1166.68790974632
0.21269593866686892,1121.3893906171586
0.22104546299710207,1097.187395145658
0.22972275360711503,1068.710230208935
0.23874067718606454,1015.3770781723928
0.2481126055137766,933.1992113140167
0.25785243528842716,835.6240661058033
0.26797460873256895,745.9322036539269
0.27849413500806414,682.2328997809997
0.28942661247167484,646.768945833456
0.3007882518043098,625.0718347741854
0.31259590004822796,596.8946165946987
0.324867065587837,551.5811030000664
0.3376199441111335,496.0662857246558
0.35087344559027084,447.8999155024879
0.36464722232127456,416.53205892637646
0.37896169806447155,396.3331631673638
0.3938380983288488,373.3089201260923
0.4092984818452433,341.8639877470913
0.4253657732750382,309.46657231465014
0.44206379720285277,285.37615095200493
0.45941731346364734,268.0521278060708
0.47745205385661277,249.52396224047988
0.4961947603002895,227.89163259772883
0.5156732244854959,208.62422382989482
0.5359163290848509,193.9097926116125
0.556954090580013,179.78587022601297
0.5788177037701272,164.67635364779926
0.6015395880274836,151.3199249606767
0.6251534353689703,140.03732956876803
0.6496942604146115,128.8441046136109
0.6751984523072497,118.20514198770425
0.7017038286703824,108.92466841976224
0.7292496916841444,100.22506162518403
0.7578768863625915,92.12875042896165
0.7876278611187046,84.63424980417956
0.8185467307069019,77.70910995325514
0.850679341636415,71.32064073032308
0.8840733401525058,65.43630246099553
0.9187782428863317,60.02317365630449
0.9548455102782278,55.045045575397694
0.9923286228832539,50.46698664856654
1.0312831606721837,46.256965534371204
1.0717668854455022,42.38559674460909
1.1138398264826193,38.82591892151652
1.1575643695533022,35.553614830086964
1.2030053494233226,32.54680603190659
1.2502301459914542,29.785176955521205
1.299308784200415,27.24982978531598
1.3503140378698726,24.923200263049267
1.4033215376054824,22.78896028162163
1.4584098829439835,20.83186222916717
1.5156607589006013,19.037761917334702
1.575159057091621,17.39359018464732
1.6369930016117014,15.887276454078025
1.7012542798525885,14.507677214805994
1.7680381784572046,13.244515056841477
1.8374437246107238,12.08831730107694
1.9095738328780953,11.03034642352187
1.9845354578058014,10.062545655636722
2.0624397525140905,9.177489254913242
2.143402233514853,8.368335652547184
2.227542951999554,7.628781567803238
2.314986671851158,6.953024505897488
2.405863054644063,6.335726770216204
2.5003068519063225,5.77198014257304
2.598458104929248,5.257273042656793
2.7004623524206774,4.78745912080878
2.806470846309834,4.358728541080293
2.916640776023701,3.967583743402014
3.031135501567576,3.610815152507737
3.150124795755327,3.285478448495258
3.2737850959485697,2.9888735078427673
3.4022997656780634,2.718524746400033
3.5358593665351745,2.472163337559748
3.6746619407366854,2.247710743999057
3.8189133047818515,2.043263345020571
3.968827354637162,1.8570782452156454
4.1246263829013445,1.687560019643691
4.286541408420921,1.5332485139158432
4.4548125188449825,1.3928081330417454
4.629689226627261,1.265017608748683
4.811430839003257,1.1487605174133046
5.000306842491082,1.0430165411136691
5.196597302486189,0.9468533140384433
5.400593278542364,0.8594191483480828
5.612597255954967,0.7799363541626685
5.8329235942862,0.7076949877391997
6.06189899349756,0.6420471082982494
6.29986297838068,0.5824014785103784
6.547168402004727,0.5282186940926158
6.804181968927091,0.4790068271345042
7.071284778942991,0.43431736240823515
7.348872892180382,0.39374145768333096
7.637357916378006,0.3569065092491753
7.937167617217536,0.3234729147690167
8.248746552614573,0.293131269010794
8.572556731909314,0.2655998269963973
8.909078300934132,0.24062208265061252
9.258810253973934,0.2179645521293329
9.622271173675122,0.19741481729869723
9.999999999999984,0.1787797900807275
