k [1/Mpc],P(k) [Mpc^3]
0.0001,1745.6418029720335
0.00010392556829367125,1803.4436129672313
0.00010800523745162529,1863.1368807123781
0.00011224505680853065,1924.7809364698142
0.00011665131316981963,1988.436742744844
0.00012123054013376525,2054.1667798166422
0.00012598952777950273,2122.035227669419
0.00013093533273536104,2192.1077428297067
0.00013607528864243335,2264.451471596401
0.00014141701702890234,2339.1352826433404
0.00014696843861124463,2416.2296060765307
0.00015273778503907136,2495.8065983561646
0.00015873361110102093,2577.9398432544513
0.00016496480740980205,2662.704115268504
0.0001714406135851971,2750.175823046465
0.00017817063195457305,2840.4325711776833
0.00018516484179121546,2933.5533698588533
0.000192433614111598,3029.6186116017234
0.00019998772705352857,3128.709619724876
0.0002078383818579757,3230.909094532578
0.00021599721947827182,3336.3003716686503
0.0002244763378413224,3444.9674342892913
0.0002332883097864157,3556.995209287042
0.00024244620170823283,3672.4685774091727
0.0002519635929317015,3791.47304704995
0.0002618545958474233,3914.094313468694
0.0002721338768375308,4040.417870139345
0.0002828166780230032,4170.529408793741
0.0002939188398646886,4304.513201910926
0.0003054568246515432,4442.452742969337
0.00031744774091091926,4584.430697007279
0.00032990936877709396,4730.527951268999
0.00034286018635565856,4880.824329598425
0.00035631939712285854,5035.397034306747
0.000370306958400514,5194.320678377936
0.00038484361094874304,5357.667645306458
0.0003999509097203664,5525.506641848536
0.00041565125582259895,5697.903435308236
0.00043196792973341727,5874.9193547870545
0.0004489251258218605,6056.610521321359
0.0004665479882234472,6243.02875054587
0.000484862648123908,6434.219596234228
0.000503896262506515,6630.2229465156925
0.0005236770544204653,6831.071956328692
0.0005442343548300266,7036.791251577506
0.0005655986461065005,7247.3982240194955
0.0005878016072274912,7462.899752011623
0.0006108761607505036,7683.2925444294115
0.0006348565216305217,7908.562934317551
0.0006597782479539537,8138.682802679857
0.0006856782936641739,8373.612302301452
0.0007125950633568407,8613.295658894078
0.0007405684692262436,8857.659938073206
0.0007696399902471156,9106.61737023313
0.0007998527336796708,9360.059631937795
0.000831251498989063,9617.860715444518
0.0008638828442740447,9879.87419609101
0.000897795155303332,10145.92952426666
0.0009330387172620361,10415.83661314454
0.0009696657893145519,10689.383636714128
0.001007730682094461,10966.337307694255
0.0010472898382363582,11246.440935969838
0.0010884019160690055,11529.409157084057
0.0011311278765939214,11814.932509680159
0.001175531073878369,12102.672073245732
0.0012216773489967915,12392.259236228709
0.0012696351276599736,12683.303411936979
0.0013194755216767058,12975.402666248523
0.0013712724343984,13268.13555723466
0.0014251026703029975,13561.052926935326
0.0014810460488806749,13853.67553366935
0.0015391855229902056,14145.497951216506
0.001599607301861487,14435.970991143622
0.0016624009789266115,14724.511575983659
0.0017276596646690358,15010.520804156025
0.0017954801246878305,15293.396274846089
0.0018659629231817451,15572.518881922648
0.001939212572065829,15847.251303223313
0.0020153376859417325,16116.939639460737
0.002094451143151469,16380.915014200797
0.002176670253153458,16638.49400396939
0.002262116930469025,16888.98206806095
0.002350917875457286,17131.675248974654
0.002443204762186487,17365.862294644732
0.0025391144336803463,17590.830785027614
0.002638789104828933,17805.883642894307
0.002742376573264949,18010.333484291106
0.0028500304385181063,18203.48445876664
0.0029619103297725525,18384.619340868616
0.0030781821425650787,18553.029938848045
0.003199018284775064,18708.043971359508
0.0033245979322709396,18849.02257419806
0.003455107294592217,18975.28960576399
0.0035907398910610534,19085.98952524684
0.0037316968377327513,19180.26158014484
0.0038781871456107214,19257.633227463542
0.0040304280305680515,19318.063830269613
0.00418864523543527,19361.381045425987
0.004353073364731888,19386.304941500992
0.00452395623253805,19391.19032846319
0.004701547224022131,19374.889065950374
0.004886109671160325,19337.094783392975
0.005077917243205399,19277.644774307944
0.005277254352483535,19196.372028778813
0.005484416576121017,19093.141575351186
0.005699711094326071,18967.746567883318
0.005923457145875801,18819.624512028815
0.006155986501483508,18648.237056691138
0.006397643955748424,18453.029329825527
0.0066487878384172625,18233.453407875953
0.0069097905457156435,17989.084516076826
0.007181039092537346,17719.529673426277
0.007462935686310132,17424.540516689925
0.007755898323389004,17103.93830715935
0.00806036140886134,16757.56704872337
0.008376776400682916,16385.438722068233
0.008705612479099857,15987.262582395975
0.009047357242349292,15562.796606210053
0.00940251742967013,15112.077764125812
0.009771619672696168,14635.300923277016
0.010155211276345676,14133.038034170642
0.010553861030365234,13605.637668887885
0.010968160052731372,13053.473574603198
0.011398722666160517,12477.434501845917
0.011846187309026826,11878.480914028405
0.012311217482038896,11258.221956384215
0.012794502732078732,10617.98805847839
0.013296759674662111,9958.7661611439
0.013818733056536317,9282.976918441002
0.014361196859990781,8595.076133696555
0.014924955450518284,7900.774562000509
0.015510844769528393,7202.366649882435
0.016119733573881575,6496.041935067367
0.01675252472408214,5783.395294991589
0.017410156523040152,5084.274358802725
0.018093604107387147,4423.789382990016
0.01880388089340914,3802.515101117514
0.019542040079740527,3172.8789288696253
0.02030917620904734,2518.9090388544328
0.021106426791015535,1926.9030159486
0.021934973989050584,1495.390627363139
0.02279604637318978,1202.6398739606118
0.023690920741826323,831.8984377574393
0.02462092401494623,379.4692302143162
0.02558743520168586,116.15460736185891
0.02659188744512693,41.7496557346389
0.027635770147361564,31.185744263112095
0.028720631177978267,47.88866891566327
0.029848079169243254,102.6168530356075
0.03101978590138095,221.28258004781608
0.03223748878149028,428.82220528498266
0.0335029934197723,697.8141644978399
0.03481817630688963,952.2458756731559
0.03618498759642746,1166.1173582759184
0.037605453996581675,1362.6898277214968
0.03908168177536263,1533.076595030766
0.04061585988376978,1645.6547521686568
0.04221026320156896,1675.6225117282866
0.04386725591048496,1615.173288413644
0.0455892949998106,1477.2645988997397
0.047378933909631396,1297.885003395771
0.049238826317067365,1082.5653508416246
0.05117173007114603,782.0872768919364
0.05318051128214196,492.19584575357914
0.05526814857144601,355.1790166461118
0.057437737488265785,180.95069064492293
0.0596924950997073,17.831167903664472
0.0620357647610427,3.161972720476788
0.06447102107323864,11.820136696782125
0.06700187503509585,51.05405463211963
0.06963207939763882,90.08199285687775
0.0723655342286965,112.49893617290009
0.07520629269592405,91.2096660576233
0.07815856707684081,115.96614397376757
0.08122673500479707,20.763084816986044
0.08441534596012978,0.23138911399743683
0.0877291280161335,1.5003649284588398
0.09117299484984914,68.38364213074371
0.09475205302806537,97.7922248057228
0.09847160957933764,150.3374705575837
0.1023371798632519,171.23606956155263
0.10635449574860109,149.70265789542273
0.11052951411260206,81.46147727114752
0.1148684256737553,54.09496694949278
0.1193776641714435,1.014219063828483
0.1240639159058831,0.9680029870433352
0.12893412965257148,15.677330072978515
0.13399552696593373,16.72521478434166
0.1392556128874462,10.102276255119081
0.14472218707411338,0.8673150805511083
0.15040335536380234,4.310461910154391
0.15630754179458153,23.913232118138065
0.16244350109588662,35.706883803141814
0.16882033167003618,30.314090776720814
0.17544748908334581,11.220638837217274
0.1823348000868439,0.145691340448919
0.189492477187382,1.201689159957231
0.19693113379074215,1.7767345708887778
0.20466179993919872,0.01506290238611573
0.21269593866686892,3.0467206053780784
0.22104546299710207,7.380206077324233
0.22972275360711503,8.47302398924207
0.23874067718606454,3.444376611180718
0.2481126055137766,0.14464598028413037
0.25785243528842716,0.19306149193865574
0.26797460873256895,0.022801746853674275
0.27849413500806414,1.0612876585885012
0.28942661247167484,2.585598269419712
0.3007882518043098,1.5589911578074858
0.31259590004822796,0.18634374385071317
0.324867065587837,0.006127917010450455
0.3376199441111335,0.2059085052353829
0.35087344559027084,0.8283965223764114
0.36464722232127456,0.6571774265036561
0.37896169806447155,0.14646121720405397
0.3938380983288488,0.0741697096882468
0.4092984818452433,0.2686173669164882
0.4253657732750382,0.3542808120952637
0.44206379720285277,0.15107450855052773
0.45941731346364734,0.09203544060297479
0.47745205385661277,0.16886399071150987
0.4961947603002895,0.1617641435783552
0.5156732244854959,0.09223034712588549
0.5359163290848509,0.0924087651211047
0.556954090580013,0.11619242713215998
0.5788177037701272,0.12523354996427477
0.6015395880274836,0.11548251335976235
0.6251534353689703,0.09572656244406888
0.6496942604146115,0.0749440973751531
0.6751984523072497,0.05822361536867218
0.7017038286703824,0.04705743503235792
0.7292496916841444,0.04010381911136074
0.7578768863625915,0.03557851475440404
0.7876278611187046,0.03241503153327761
0.8185467307069019,0.02992082663020814
0.850679341636415,0.027604582597312525
0.8840733401525058,0.025179226180600832
0.9187782428863317,0.02271310281684973
0.9548455102782278,0.020326696332968783
0.9923286228832539,0.018104925013613386
1.0312831606721837,0.016100880070268705
1.0717668854455022,0.014341454054118994
1.1138398264826193,0.012814386652543287
1.1575643695533022,0.011478157689624716
1.2030053494233226,0.010298043393212684
1.2502301459914542,0.009246638063116118
1.299308784200415,0.008302292937384216
1.3503140378698726,0.007448529886399827
1.4033215376054824,0.006676663192386479
1.4584098829439835,0.005980838693922994
1.5156607589006013,0.0053552123850932
1.575159057091621,0.004794039087728238
1.6369930016117014,0.004291754685129496
1.7012542798525885,0.0038427551933632354
1.7680381784572046,0.0034412078994589725
1.8374437246107238,0.0030818607665227893
1.9095738328780953,0.0027600857326456527
1.9845354578058014,0.0024717988764825513
2.0624397525140905,0.0022133965631388015
2.143402233514853,0.0019817716415605076
2.227542951999554,0.0017742094834158615
2.314986671851158,0.0015882624100459798
2.405863054644063,0.0014217225728356338
2.5003068519063225,0.0012725998459411753
2.598458104929248,0.0011390965272484825
2.7004623524206774,0.0010195745586927222
2.806470846309834,0.0009125626778133452
2.916640776023701,0.0008167461877971689
3.031135501567576,0.0007309500144062044
3.150124795755327,0.0006541236956213567
3.2737850959485697,0.0005853311242229873
3.4022997656780634,0.0005237384918296083
3.5358593665351745,0.0004685980016854257
3.6746619407366854,0.00041923869328572
3.8189133047818515,0.0003750586590842395
3.968827354637162,0.0003355179505481238
4.1246263829013445,0.00030013167316844745
4.286541408420921,0.00026846496284509353
4.4548125188449825,0.00024012828545815482
4.629689226627261,0.00021477273671601925
4.811430839003257,0.00019208582287836057
5.000306842491082,0.0001717876489200815
5.196597302486189,0.00015362749494168628
5.400593278542364,0.00013738086378599652
5.612597255954967,0.00012284676046247838
5.8329235942862,0.0001098452387997538
6.06189899349756,9.82152010474651e-05
6.29986297838068,8.781238395516794e-05
6.547168402004727,7.85076211626879e-05
6.804181968927091,7.018531596902073e-05
7.071284778942991,6.274201894921353e-05
7.348872892180382,5.608515269769661e-05
7.637357916378006,5.013188249309234e-05
7.937167617217536,4.4808135725351404e-05
8.248746552614573,4.0047623456855774e-05
8.572556731909314,3.579100473780842e-05
8.909078300934132,3.19851620395638e-05
9.258810253973934,2.858255168039998e-05
9.622271173675122,2.5540609918021154e-05
9.999999999999984,2.2821229876038984e-05
