k [1/Mpc],P(k) [Mpc^3]
0.0001,191.63800204612022
0.00010392556829367125,199.15944394578528
0.00010800523745162529,206.97597028775812
0.00011224505680853065,215.09915857213528
0.00011665131316981963,223.54102243538057
0.00012123054013376525,232.3140319875836
0.00012598952777950273,241.43114633250286
0.00013093533273536104,250.90584156291067
0.00013607528864243335,260.7521225170689
0.00014141701702890234,270.984536246241
0.00014696843861124463,281.6181922722397
0.00015273778503907136,292.66878819168124
0.00015873361110102093,304.1526294962089
0.00016496480740980205,316.08665527395436
0.0001714406135851971,328.48846524582007
0.00017817063195457305,341.3763462820084
0.00018516484179121546,354.76929506825695
0.000192433614111598,368.6870291837026
0.00019998772705352857,383.1500216948307
0.0002078383818579757,398.1795373797311
0.00021599721947827182,413.7976618385392
0.0002244763378413224,430.02733446014685
0.0002332883097864157,446.8923825048985
0.00024244620170823283,464.41755486006633
0.0002519635929317015,482.6285480141669
0.0002618545958474233,501.55201881912063
0.0002721338768375308,521.2156406133281
0.0002828166780230032,541.6481348344687
0.0002939188398646886,562.8793070541288
0.0003054568246515432,584.9400998785244
0.00031744774091091926,607.8626342445406
0.00032990936877709396,631.6802542428683
0.00034286018635565856,656.4275542779578
0.00035631939712285854,682.140409817293
0.000370306958400514,708.8560427035645
0.00038484361094874304,736.6130070973849
0.0003999509097203664,765.4512622321769
0.00041565125582259895,795.4122691933363
0.00043196792973341727,826.5390636260884
0.0004489251258218605,858.8762852639551
0.0004665479882234472,892.470135505021
0.000484862648123908,927.3684384766697
0.000503896262506515,963.6207577488153
0.0005236770544204653,1001.2784226501664
0.0005442343548300266,1040.394615478442
0.0005655986461065005,1081.0243750089435
0.0005878016072274912,1123.2246341735386
0.0006108761607505036,1167.0543453123462
0.0006348565216305217,1212.5744987518906
0.0006597782479539537,1259.8482170526943
0.0006856782936641739,1308.9407251202301
0.0007125950633568407,1359.9193017742132
0.0007405684692262436,1412.8535115171258
0.0007696399902471156,1467.8152763654127
0.0007998527336796708,1524.8789505446155
0.000831251498989063,1584.121280249897
0.0008638828442740447,1645.6212395207372
0.000897795155303332,1709.4603252499435
0.0009330387172620361,1775.7225808995959
0.0009696657893145519,1844.4946604867196
0.001007730682094461,1915.8658848354469
0.0010472898382363582,1989.928014885417
0.0010884019160690055,2066.7755219845358
0.0011311278765939214,2146.505483159767
0.001175531073878369,2229.2175176631868
0.0012216773489967915,2315.0140403439086
0.0012696351276599736,2403.999913534929
0.0013194755216767058,2496.282692211339
0.0013712724343984,2591.9724932263107
0.0014251026703029975,2691.1816377687114
0.0014810460488806749,2794.0251318896126
0.0015391855229902056,2900.6202459040023
0.001599607301861487,3011.0866328902466
0.0016624009789266115,3125.5462345544706
0.0017276596646690358,3244.1224261624275
0.0017954801246878305,3366.9407407162353
0.0018659629231817451,3494.128465905273
0.001939212572065829,3625.814522919386
0.0020153376859417325,3762.1295403848944
0.002094451143151469,3903.2046043026544
0.002176670253153458,4049.1719304322287
0.002262116930469025,4200.164293283908
0.002350917875457286,4356.314401524937
0.002443204762186487,4517.755437936423
0.0025391144336803463,4684.619581623208
0.002638789104828933,4857.038378714957
0.002742376573264949,5035.142306555033
0.0028500304385181063,5219.059477595583
0.0029619103297725525,5408.916431506884
0.0030781821425650787,5604.836413023069
0.003199018284775064,5806.93926925126
0.0033245979322709396,6015.34137424639
0.003455107294592217,6230.153604137827
0.0035907398910610534,6451.482195261231
0.0037316968377327513,6679.426658668931
0.0038781871456107214,6914.078877955794
0.0040304280305680515,7155.5237213161745
0.00418864523543527,7403.836201923634
0.004353073364731888,7659.082269974338
0.00452395623253805,7921.316910851223
0.004701547224022131,8190.582055633525
0.004886109671160325,8466.907791169993
0.005077917243205399,8750.30841102805
0.005277254352483535,9040.782959389324
0.005484416576121017,9338.314002969164
0.005699711094326071,9642.86384486687
0.005923457145875801,9954.37679350135
0.006155986501483508,10272.776080687127
0.006397643955748424,10597.963261924358
0.0066487878384172625,10929.815518878275
0.0069097905457156435,11268.174956726385
0.007181039092537346,11612.856658378236
0.007462935686310132,11963.665513276157
0.007755898323389004,12320.398957769505
0.00806036140886134,12682.817611626375
0.008376776400682916,13050.577171161027
0.008705612479099857,13423.270093278223
0.009047357242349292,13800.473991465264
0.00940251742967013,14181.770010640666
0.009771619672696168,14566.709733183376
0.010155211276345676,14954.816867939375
0.010553861030365234,15345.584714665536
0.010968160052731372,15738.452672243558
0.011398722666160517,16132.773239255726
0.011846187309026826,16527.850214174156
0.012311217482038896,16922.93951825736
0.012794502732078732,17317.250542826056
0.013296759674662111,17709.950250227314
0.013818733056536317,18100.15890261901
0.014361196859990781,18486.956154888903
0.014924955450518284,18869.373154657962
0.015510844769528393,19246.391556025377
0.016119733573881575,19616.95376904268
0.01675252472408214,19979.943061555907
0.017410156523040152,20334.202337301947
0.018093604107387147,20678.544328173164
0.01880388089340914,21011.75297778187
0.019542040079740527,21332.593139051918
0.02030917620904734,21639.808401690763
0.021106426791015535,21932.13041196756
0.021934973989050584,22208.28894921655
0.02279604637318978,22467.016543358088
0.023690920741826323,22707.059677352638
0.02462092401494623,22927.20564883383
0.02558743520168586,23126.288393525123
0.02659188744512693,23303.190506517272
0.027635770147361564,23456.88276217624
0.028720631177978267,23586.403551581385
0.029848079169243254,23690.905298535876
0.03101978590138095,23769.67614063436
0.03223748878149028,23822.103773610088
0.0335029934197723,23847.774548550708
0.03481817630688963,23846.410671059395
0.03618498759642746,23817.88594742144
0.037605453996581675,23762.280644531522
0.03908168177536263,23679.796443280196
0.04061585988376978,23570.9044128947
0.04221026320156896,23436.270243879375
0.04386725591048496,23276.5862193234
0.0455892949998106,23092.46556844264
0.047378933909631396,22884.560812691718
0.049238826317067365,22653.449658390808
0.05117173007114603,22399.650589003544
0.05318051128214196,22124.153966026322
0.05526814857144601,21829.801988841762
0.057437737488265785,21519.843047938128
0.0596924950997073,21195.55403598115
0.0620357647610427,20855.69477561656
0.06447102107323864,20499.00699042196
0.06700187503509585,20124.412201122643
0.06963207939763882,19731.032795175302
0.0723655342286965,19318.9692809984
0.07520629269592405,18890.019261363617
0.07815856707684081,18446.18457078775
0.08122673500479707,17989.557171820845
0.08441534596012978,17522.25548485263
0.0877291280161335,17045.985594809008
0.09117299484984914,16561.61314466605
0.09475205302806537,16070.14739951216
0.09847160957933764,15573.645920601693
0.1023371798632519,15074.942283479128
0.10635449574860109,14580.193625897757
0.11052951411260206,14094.845480723876
0.1148684256737553,13616.781302341495
0.1193776641714435,13142.499247809641
0.1240639159058831,12670.283446450117
0.12893412965257148,12199.967675058762
0.13399552696593373,11732.631789707226
0.1392556128874462,11269.286030359652
0.14472218707411338,10810.160310996172
0.15040335536380234,10354.966114841605
0.15630754179458153,9904.914394468877
0.16244350109588662,9462.703624363021
0.16882033167003618,9031.484285508233
0.17544748908334581,8613.79009854047
0.1823348000868439,8210.842792577612
0.189492477187382,7821.824548984636
0.19693113379074215,7444.655304869027
0.20466179993919872,7077.953876101397
0.21269593866686892,6721.460756026685
0.22104546299710207,6374.490445121769
0.22972275360711503,6038.056794846547
0.23874067718606454,5715.273580305412
0.2481126055137766,5406.97936117437
0.25785243528842716,5111.001329170034
0.26797460873256895,4826.673795627619
0.27849413500806414,4554.049742113879
0.28942661247167484,4292.946129223075
0.3007882518043098,4043.3849837822136
0.31259590004822796,3804.9444645635804
0.324867065587837,3577.924948436168
0.3376199441111335,3362.102531228705
0.35087344559027084,3156.6207972201796
0.36464722232127456,2961.02707836353
0.37896169806447155,2775.715477530508
0.3938380983288488,2600.1231698178253
0.4092984818452433,2433.5694233853155
0.4253657732750382,2276.242983625571
0.44206379720285277,2127.520501557944
0.45941731346364734,1987.0170415130392
0.47745205385661277,1854.7230931367938
0.4961947603002895,1729.9229267107046
0.5156732244854959,1612.5901784972168
0.5359163290848509,1502.2208235928567
0.556954090580013,1398.546448632154
0.5788177037701272,1301.2419915349287
0.6015395880274836,1209.9506953444886
0.6251534353689703,1124.3936637210368
0.6496942604146115,1044.2600246494655
0.6751984523072497,969.2392370469288
0.7017038286703824,899.1254036462055
0.7292496916841444,833.5722682829997
0.7578768863625915,772.4144228055784
0.7876278611187046,715.3692060053255
0.8185467307069019,662.1838953930007
0.850679341636415,612.6593417941812
0.8840733401525058,566.5573463284405
0.9187782428863317,523.6465231346806
0.9548455102782278,483.75218780253454
0.9923286228832539,446.68007494750276
1.0312831606721837,412.25771165951477
1.0717668854455022,380.3198694901863
1.1138398264826193,350.70423139017515
1.1575643695533022,323.2535848635107
1.2030053494233226,297.82144472149946
1.2502301459914542,274.27277123737247
1.299308784200415,252.48048286819648
1.3503140378698726,232.32481231570046
1.4033215376054824,213.693011607976
1.4584098829439835,196.47899031798846
1.5156607589006013,180.58268369256038
1.575159057091621,165.91014916287767
1.6369930016117014,152.37346620069505
1.7012542798525885,139.89041526058543
1.7680381784572046,128.3841680414648
1.8374437246107238,117.78303148550923
1.9095738328780953,108.02015790402571
1.9845354578058014,99.03319854884244
2.0624397525140905,90.76403987121927
2.143402233514853,83.15855588724703
2.227542951999554,76.16635010294787
2.314986671851158,69.74046060539524
2.405863054644063,63.83724371176548
2.5003068519063225,58.4161970655678
2.598458104929248,53.439755171217634
2.7004623524206774,48.873095880926876
2.806470846309834,44.683951920039746
2.916640776023701,40.842441279750865
3.031135501567576,37.320912775047404
3.150124795755327,34.09379306176629
3.2737850959485697,31.137442529177306
3.4022997656780634,28.43002123286404
3.5358593665351745,25.95136438957219
3.6746619407366854,23.68285898312886
3.8189133047818515,21.60733169107932
3.968827354637162,19.708945106771722
4.1246263829013445,17.973099575340505
4.286541408420921,16.386328013820222
4.4548125188449825,14.936221212394774
4.629689226627261,13.611362993150875
4.811430839003257,12.401255001274823
5.000306842491082,11.296246458120509
5.196597302486189,10.287470981537538
5.400593278542364,9.366788204110078
5.612597255954967,8.526721886928309
5.8329235942862,7.760407441773503
6.06189899349756,7.061544237687146
6.29986297838068,6.424351063461597
6.547168402004727,5.8435224933128
6.804181968927091,5.3141934936713
7.071284778942991,4.831906344142986
7.348872892180382,4.392577842057788
7.637357916378006,3.9924689837774414
7.937167617217536,3.6281558271296555
8.248746552614573,3.2965032144910364
8.572556731909314,2.9946435151275907
8.909078300934132,2.719954741351651
9.258810253973934,2.470040119321173
9.622271173675122,2.242709840464359
9.999999999999984,2.035966632973035
