k [1/Mpc],P(k) [Mpc^3]
0.0001,12898.656704740073
0.00010392556829367125,13325.758473190333
0.00010800523745162529,13766.83643367185
0.00011224505680853065,14222.329734982357
0.00011665131316981963,14692.68875611589
0.00012123054013376525,15178.374443718081
0.00012598952777950273,15679.860245041962
0.00013093533273536104,16197.631221146035
0.00013607528864243335,16732.184876346135
0.00014141701702890234,17284.0306080842
0.00014696843861124463,17853.68777785562
0.00015273778503907136,18441.688320862322
0.00015873361110102093,19048.575184377212
0.00016496480740980205,19674.90274652419
0.0001714406135851971,20321.236918833336
0.00017817063195457305,20988.15061788786
0.00018516484179121546,21676.227635127914
0.000192433614111598,22386.06061068431
0.00019998772705352857,23118.249951235757
0.0002078383818579757,23873.406082584203
0.00021599721947827182,24652.14398754853
0.0002244763378413224,25455.086163709846
0.0002332883097864157,26282.85986040905
0.00024244620170823283,27136.092209872484
0.0002519635929317015,28015.415777201342
0.0002618545958474233,28921.46117630285
0.0002721338768375308,29854.858753033626
0.0002828166780230032,30816.238675662375
0.0002939188398646886,31806.222809034054
0.0003054568246515432,32825.43076329525
0.00031744774091091926,33874.47145445689
0.00032990936877709396,34953.94142189294
0.00034286018635565856,36064.4283469872
0.00035631939712285854,37206.499443518274
0.000370306958400514,38380.707303783674
0.00038484361094874304,39587.583294208525
0.0003999509097203664,40827.63104482454
0.00041565125582259895,42101.332638749904
0.00043196792973341727,43409.13617162328
0.0004489251258218605,44751.45859386852
0.0004665479882234472,46128.68132802891
0.000484862648123908,47541.13797065876
0.000503896262506515,48989.122528618485
0.0005236770544204653,50472.87374001951
0.0005442343548300266,51992.574394289106
0.0005655986461065005,53548.35119216426
0.0005878016072274912,55140.2528258565
0.0006108761607505036,56768.26221860209
0.0006348565216305217,58432.2745487376
0.0006597782479539537,60132.087673502225
0.0006856782936641739,61867.41394237332
0.0007125950633568407,63637.84273490408
0.0007405684692262436,65442.85741855318
0.0007696399902471156,67281.81653344295
0.0007998527336796708,69153.92571127207
0.000831251498989063,71058.26751312701
0.0008638828442740447,72993.76160753219
0.000897795155303332,74959.17426160107
0.0009330387172620361,76953.11986330469
0.0009696657893145519,78974.02698106634
0.001007730682094461,81020.16535007718
0.0010472898382363582,83089.62087926433
0.0010884019160690055,85180.29273796768
0.0011311278765939214,87289.89744067246
0.001175531073878369,89415.91182268666
0.0012216773489967915,91555.6154628875
0.0012696351276599736,93706.13126880363
0.0013194755216767058,95864.43616256058
0.0013712724343984,98027.34643640848
0.0014251026703029975,100191.60240714211
0.0014810460488806749,102353.82389103682
0.0015391855229902056,104510.34656711762
0.001599607301861487,106657.07441103761
0.0016624009789266115,108789.7117724627
0.0017276596646690358,110903.96139214575
0.0017954801246878305,112995.49235846297
0.0018659629231817451,115059.82596862089
0.001939212572065829,117092.30832411558
0.0020153376859417325,119088.15711878538
0.002094451143151469,121042.49449373703
0.002176670253153458,122950.3622977577
0.002262116930469025,124806.73794666998
0.002350917875457286,126606.60145235903
0.002443204762186487,128344.91551666049
0.0025391144336803463,130016.63699115439
0.002638789104828933,131616.74504995625
0.002742376573264949,133140.25042349307
0.0028500304385181063,134582.27861115395
0.0029619103297725525,135938.06114068392
0.0030781821425650787,137202.93535788637
0.003199018284775064,138372.38952502733
0.0033245979322709396,139441.9943542852
0.003455107294592217,140406.47623681228
0.0035907398910610534,141259.8880443256
0.0037316968377327513,141997.41328170156
0.0038781871456107214,142618.50750761206
0.0040304280305680515,143123.82360860234
0.00418864523543527,143508.79817431077
0.004353073364731888,143762.13778346265
0.00452395623253805,143873.37479745687
0.004701547224022131,143839.15524571887
0.004886109671160325,143659.3384297057
0.005077917243205399,143333.95557134371
0.005277254352483535,142862.93930326088
0.005484416576121017,142246.42242647381
0.005699711094326071,141482.7690234935
0.005923457145875801,140569.43381569308
0.006155986501483508,139504.2177519388
0.006397643955748424,138284.87286195852
0.0066487878384172625,136909.72023000466
0.0069097905457156435,135377.82982511836
0.007181039092537346,133689.05742027244
0.007462935686310132,131843.89285905095
0.007755898323389004,129842.77049367556
0.00806036140886134,127686.76487315497
0.008376776400682916,125377.26806331378
0.008705612479099857,122915.73215682205
0.009047357242349292,120304.3951300218
0.00940251742967013,117544.30056483537
0.009771619672696168,114636.77018252821
0.010155211276345676,111584.98195743625
0.010553861030365234,108394.30602717107
0.010968160052731372,105071.52537107554
0.011398722666160517,101621.78255842465
0.011846187309026826,98049.75518881583
0.012311217482038896,94362.20244936703
0.012794502732078732,90567.70183046318
0.013296759674662111,86676.91252894791
0.013818733056536317,82700.79656789055
0.014361196859990781,78650.56160053468
0.014924955450518284,74539.75565363475
0.015510844769528393,70383.45908738792
0.016119733573881575,66198.78559122526
0.01675252472408214,62004.39281787814
0.017410156523040152,57819.816909316534
0.018093604107387147,53666.23259836213
0.01880388089340914,49566.43625470989
0.019542040079740527,45543.96229996582
0.02030917620904734,41623.05955377796
0.021106426791015535,37829.257069662934
0.021934973989050584,34186.10490036209
0.02279604637318978,30716.79777150748
0.023690920741826323,27442.28718744446
0.02462092401494623,24380.35543921106
0.02558743520168586,21552.392402917983
0.02659188744512693,18971.87103679975
0.027635770147361564,16646.565679113563
0.028720631177978267,14579.732971468322
0.029848079169243254,12765.83278422181
0.03101978590138095,11199.765986641212
0.03223748878149028,9871.185379113296
0.0335029934197723,8766.996491492406
0.03481817630688963,7877.360059024935
0.03618498759642746,7189.617796653548
0.037605453996581675,6684.295242494402
0.03908168177536263,6342.699650706808
0.04061585988376978,6149.189649910581
0.04221026320156896,6078.035595430181
0.04386725591048496,6107.308421586103
0.0455892949998106,6214.709837664681
0.047378933909631396,6374.861726462762
0.049238826317067365,6554.540138855712
0.05117173007114603,6705.382564925121
0.05318051128214196,6777.224099859077
0.05526814857144601,6727.362734736615
0.057437737488265785,6527.850641197455
0.0596924950997073,6174.803175579678
0.0620357647610427,5673.432682590559
0.06447102107323864,5041.543066127285
0.06700187503509585,4322.233533911388
0.06963207939763882,3580.218826464959
0.0723655342286965,2888.5571254662095
0.07520629269592405,2300.9750339790717
0.07815856707684081,1842.4942384129824
0.08122673500479707,1518.3143305860715
0.08441534596012978,1328.0785413283957
0.0877291280161335,1253.542649620076
0.09117299484984914,1272.5420699316544
0.09475205302806537,1355.3231255210437
0.09847160957933764,1469.819621295824
0.1023371798632519,1568.7775291973567
0.10635449574860109,1593.61526933214
0.11052951411260206,1506.962858498828
0.1148684256737553,1322.951432430483
0.1193776641714435,1088.4721218326674
0.1240639159058831,853.160404635289
0.12893412965257148,666.6358409067363
0.13399552696593373,555.2171621568378
0.1392556128874462,511.73938492123676
0.14472218707411338,518.0845578738059
0.15040335536380234,548.0622915238654
0.15630754179458153,565.2018520349731
0.16244350109588662,541.6841346525366
0.16882033167003618,474.02300920339025
0.17544748908334581,389.01051983746737
0.1823348000868439,319.53884797653956
0.189492477187382,279.25902716821093
0.19693113379074215,267.0307333698692
0.20466179993919872,265.98467979652924
0.21269593866686892,257.3699288301256
0.22104546299710207,232.33688486529107
0.22972275360711503,199.46421563090416
0.23874067718606454,172.94213598254385
0.2481126055137766,157.96306895652612
0.25785243528842716,149.97162659776248
0.26797460873256895,140.16024295620034
0.27849413500806414,125.85106514068978
0.28942661247167484,111.25277291136335
0.3007882518043098,100.56203619771756
0.31259590004822796,93.00507499600232
0.324867065587837,85.24372616275656
0.3376199441111335,76.73243065784078
0.35087344559027084,69.13171954052697
0.36464722232127456,63.05328682420234
0.37896169806447155,57.4592154869946
0.3938380983288488,51.960229609579876
0.4092984818452433,47.040604140962515
0.4253657732750382,42.71612018052815
0.44206379720285277,38.77071541123465
0.45941731346364734,35.07961025334178
0.47745205385661277,31.811264262303443
0.4961947603002895,28.82296895645103
0.5156732244854959,26.09798501338241
0.5359163290848509,23.638344065076712
0.556954090580013,21.40122420658846
0.5788177037701272,19.37055373871332
0.6015395880274836,17.53134023476054
0.6251534353689703,15.862893182830414
0.6496942604146115,14.349947076449478
0.6751984523072497,12.978566803604497
0.7017038286703824,11.735987335835176
0.7292496916841444,10.610525660217803
0.7578768863625915,9.591445433541317
0.7876278611187046,8.66882940415484
0.8185467307069019,7.833655135745333
0.850679341636415,7.077736611488946
0.8840733401525058,6.393647107436065
0.9187782428863317,5.77465138551077
0.9548455102782278,5.214665058823045
0.9923286228832539,4.708177353129378
1.0312831606721837,4.250178767691668
1.0717668854455022,3.8361166875478316
1.1138398264826193,3.461855123106097
1.1575643695533022,3.1236347298643854
1.2030053494233226,2.8180356134487163
1.2502301459914542,2.541955788788
1.299308784200415,2.2925836449507555
1.3503140378698726,2.06737123423843
1.4033215376054824,1.864010075964886
1.4584098829439835,1.6804102575291318
1.5156607589006013,1.5146793651706496
1.575159057091621,1.3651030974546154
1.6369930016117014,1.2301288229421055
1.7012542798525885,1.1083506426157617
1.7680381784572046,0.9984956937840163
1.8374437246107238,0.8994116532981153
1.9095738328780953,0.8100558330054338
1.9845354578058014,0.7294849904715088
2.0624397525140905,0.6568460083347516
2.143402233514853,0.5913674124545354
2.227542951999554,0.5323514687954565
2.314986671851158,0.4791673705095981
2.405863054644063,0.43124511890244227
2.5003068519063225,0.3880697477242618
2.598458104929248,0.3491760822324939
2.7004623524206774,0.31414402930527524
2.806470846309834,0.282594332316596
2.916640776023701,0.25418453783842687
3.031135501567576,0.2286054509217851
3.150124795755327,0.20557795149845545
3.2737850959485697,0.1848501086436711
3.4022997656780634,0.1661945429551729
3.5358593665351745,0.14940607945141005
3.6746619407366854,0.134299633036266
3.8189133047818515,0.12070826678645419
3.968827354637162,0.10848143446417957
4.1246263829013445,0.09748338534923102
4.286541408420921,0.08759171740450537
4.4548125188449825,0.07869609729511644
4.629689226627261,0.07069708759844498
4.811430839003257,0.0635050825014718
5.000306842491082,0.05703934615186796
5.196597302486189,0.05122714336225947
5.400593278542364,0.04600295536922178
5.612597255954967,0.041307771901832095
5.8329235942862,0.03708845126571755
6.06189899349756,0.03329714260323727
6.29986297838068,0.029890763429404877
6.547168402004727,0.026830527134753437
6.804181968927091,0.024081521962092473
7.071284778942991,0.021612328291815957
7.348872892180382,0.019394672519548812
7.637357916378006,0.017403114812049078
7.937167617217536,0.015614766160805225
8.248746552614573,0.014009035418518037
8.572556731909314,0.012567402162893477
8.909078300934132,0.011273210226411536
9.258810253973934,0.01011148156756453
9.622271173675122,0.009068749857528494
9.999999999999984,0.008132912164367762
