k [1/Mpc],P(k) [Mpc^3]
0.0001,42.572171485720666
0.00010392556829367125,44.371005454540544
0.00010800523745162529,46.24582244276206
0.00011224505680853065,48.199828330907366
0.00011665131316981963,50.23636356453154
0.00012123054013376525,52.358908805436435
0.00012598952777950273,54.57109104907663
0.00013093533273536104,56.87668948794852
0.00013607528864243335,59.27964213834676
0.00014141701702890234,61.784053937266286
0.00014696843861124463,64.39420435280572
0.00015273778503907136,67.11455240143441
0.00015873361110102093,69.94973908686225
0.00016496480740980205,72.90459759488124
0.0001714406135851971,75.9841650421089
0.00017817063195457305,79.19369280905175
0.00018516484179121546,82.5386528256541
0.000192433614111598,86.02474464079094
0.00019998772705352857,89.65790532800696
0.0002078383818579757,93.44431859329296
0.00021599721947827182,97.39042072320734
0.0002244763378413224,101.50291520143608
0.0002332883097864157,105.7887871131921
0.00024244620170823283,110.25531506678723
0.0002519635929317015,114.91008010824122
0.0002618545958474233,119.76097335213954
0.0002721338768375308,124.81621186603775
0.0002828166780230032,130.0843489059974
0.0002939188398646886,135.574284527699
0.0003054568246515432,141.29528623417275
0.00031744774091091926,147.2570098127747
0.00032990936877709396,153.46951275752897
0.00034286018635565856,159.94325802511307
0.00035631939712285854,166.68911572799237
0.000370306958400514,173.71839657907933
0.00038484361094874304,181.04287141298278
0.0003999509097203664,188.67478949633875
0.00041565125582259895,196.62689793093958
0.00043196792973341727,204.9124609572285
0.0004489251258218605,213.54527966229065
0.0004665479882234472,222.53968685558547
0.000484862648123908,231.91055995248328
0.000503896262506515,241.67336787421632
0.0005236770544204653,251.8441958151053
0.0005442343548300266,262.43976786359366
0.0005655986461065005,273.47745601192986
0.0005878016072274912,284.97529104873297
0.0006108761607505036,296.9520046133852
0.0006348565216305217,309.42703177799206
0.0006597782479539537,322.4205446408605
0.0006856782936641739,335.9534803675321
0.0007125950633568407,350.0475451689632
0.0007405684692262436,364.72526388832125
0.0007696399902471156,380.00999150839255
0.0007998527336796708,395.92594107572535
0.000831251498989063,412.49821082311433
0.0008638828442740447,429.7527477202512
0.000897795155303332,447.7164239583343
0.0009330387172620361,466.4170777146298
0.0009696657893145519,485.8835390820088
0.001007730682094461,506.1456500909938
0.0010472898382363582,527.2341750006558
0.0010884019160690055,549.1808858312186
0.0011311278765939214,572.0186133789916
0.001175531073878369,595.7812411241053
0.0012216773489967915,620.503765411305
0.0012696351276599736,646.2222076721715
0.0013194755216767058,672.9736627588992
0.0013712724343984,700.7963275523225
0.0014251026703029975,729.7293598827283
0.0014810460488806749,759.8130382593839
0.0015391855229902056,791.0887123657079
0.001599607301861487,823.5987987364642
0.0016624009789266115,857.3868224060546
0.0017276596646690358,892.4971648014954
0.0017954801246878305,928.9752321069705
0.0018659629231817451,966.8673875219348
0.001939212572065829,1006.2208352918259
0.0020153376859417325,1047.083755071086
0.002094451143151469,1089.5049700930626
0.002176670253153458,1133.534050557948
0.002262116930469025,1179.221281859935
0.002350917875457286,1226.6173766883533
0.002443204762186487,1275.7736816852578
0.0025391144336803463,1326.741820947541
0.002638789104828933,1379.5736602610214
0.002742376573264949,1434.3213117357514
0.0028500304385181063,1491.0365684643054
0.0029619103297725525,1549.7711866343968
0.0030781821425650787,1610.576533391667
0.003199018284775064,1673.5033421225435
0.0033245979322709396,1738.6018255835104
0.003455107294592217,1805.9209133053525
0.0035907398910610534,1875.5084423219364
0.0037316968377327513,1947.410751379694
0.0038781871456107214,2021.6720392465002
0.0040304280305680515,2098.3347175451777
0.00418864523543527,2177.438367608326
0.004353073364731888,2259.019762522502
0.00452395623253805,2343.1126337232827
0.004701547224022131,2429.746488835344
0.004886109671160325,2518.947164836224
0.005077917243205399,2610.7355905251343
0.005277254352483535,2705.127413189116
0.005484416576121017,2802.1329878186757
0.005699711094326071,2901.7550660206507
0.005923457145875801,3003.98981931427
0.006155986501483508,3108.8257594942625
0.006397643955748424,3216.2426793911504
0.0066487878384172625,3326.2118463128963
0.0069097905457156435,3438.6905556077786
0.007181039092537346,3553.62416758879
0.007462935686310132,3670.949925884853
0.007755898323389004,3790.599009030142
0.00806036140886134,3912.490936251303
0.008376776400682916,4036.5103382796137
0.008705612479099857,4162.511172940829
0.009047357242349292,4290.3333392550085
0.00940251742967013,4419.809552742152
0.009771619672696168,4550.758284867897
0.010155211276345676,4682.979737143862
0.010553861030365234,4816.255316758038
0.010968160052731372,4950.344190524633
0.011398722666160517,5084.961078777435
0.011846187309026826,5219.791337510061
0.012311217482038896,5354.490415870527
0.012794502732078732,5488.678408188864
0.013296759674662111,5621.949594071343
0.013818733056536317,5753.85769701319
0.014361196859990781,5883.924260631585
0.014924955450518284,6011.638474940058
0.015510844769528393,6136.443757053243
0.016119733573881575,6257.756948991321
0.01675252472408214,6374.946222870952
0.017410156523040152,6487.338611962963
0.018093604107387147,6594.234899243875
0.01880388089340914,6694.885614038844
0.019542040079740527,6788.522456798927
0.02030917620904734,6874.344589898359
0.021106426791015535,6951.518931550515
0.021934973989050584,7019.211772975991
0.02279604637318978,7076.561405862128
0.023690920741826323,7122.714411745602
0.02462092401494623,7156.833273087963
0.02558743520168586,7178.092041065243
0.02659188744512693,7185.718242126905
0.027635770147361564,7178.9896075139695
0.028720631177978267,7157.256824169588
0.029848079169243254,7119.976283437525
0.03101978590138095,7066.7342665100205
0.03223748878149028,6997.246719085104
0.0335029934197723,6911.412816114637
0.03481817630688963,6809.31506079352
0.03618498759642746,6691.233832048605
0.037605453996581675,6557.820374213981
0.03908168177536263,6409.911360931026
0.04061585988376978,6248.532300049249
0.04221026320156896,6074.903171808682
0.04386725591048496,5890.462887471891
0.0455892949998106,5697.71740855662
0.047378933909631396,5499.47391341607
0.049238826317067365,5297.9783257824065
0.05117173007114603,5094.61482598986
0.05318051128214196,4890.73445626627
0.05526814857144601,4689.319944099674
0.057437737488265785,4494.0707603649935
0.0596924950997073,4308.020005479733
0.0620357647610427,4133.455496982894
0.06447102107323864,3972.177736481783
0.06700187503509585,3825.455021926617
0.06963207939763882,3694.1581092910324
0.0723655342286965,3578.3260020655403
0.07520629269592405,3477.5532188427815
0.07815856707684081,3390.610062166578
0.08122673500479707,3315.778687568394
0.08441534596012978,3250.4842149623196
0.0877291280161335,3191.403309594566
0.09117299484984914,3134.3688366281567
0.09475205302806537,3074.4411600829258
0.09847160957933764,3006.370772994659
0.1023371798632519,2925.142668833892
0.10635449574860109,2827.0853938095147
0.11052951411260206,2710.397100617057
0.1148684256737553,2575.2290587324574
0.1193776641714435,2423.6157062584366
0.1240639159058831,2260.4262701794305
0.12893412965257148,2092.631569358306
0.13399552696593373,1928.5772681249628
0.1392556128874462,1777.1386323816541
0.14472218707411338,1646.126550520355
0.15040335536380234,1540.7473770556392
0.15630754179458153,1462.6589835823515
0.16244350109588662,1409.6851279316463
0.16882033167003618,1376.0463826684465
0.17544748908334581,1352.8824515881427
0.1823348000868439,1329.2580385430738
0.189492477187382,1294.11163586174
0.19693113379074215,1239.058165921217
0.20466179993919872,1161.2690043140963
0.21269593866686892,1065.460740272467
0.22104546299710207,963.5359544611737
0.22972275360711503,870.3825688941448
0.23874067718606454,797.6939942019809
0.2481126055137766,750.2374208014728
0.25785243528842716,725.0235298920045
0.26797460873256895,711.5132542406484
0.27849413500806414,694.6627302214985
0.28942661247167484,662.1750448967465
0.3007882518043098,611.0974263893384
0.31259590004822796,550.1543104495454
0.324867065587837,494.8111554416922
0.3376199441111335,456.75887595001274
0.35087344559027084,436.9234129218472
0.36464722232127456,425.22889278262056
0.37896169806447155,407.6961077243424
0.3938380983288488,377.1544648212208
0.4092984818452433,339.6976028262867
0.4253657732750382,308.4555737266975
0.44206379720285277,289.9546671126937
0.45941731346364734,278.7258316155939
0.47745205385661277,263.75400015069994
0.4961947603002895,241.28388657687955
0.5156732244854959,218.7740353807595
0.5359163290848509,203.66086195348333
0.556954090580013,193.4658556028905
0.5788177037701272,180.73544573724965
0.6015395880274836,164.85832258159203
0.6251534353689703,151.73830343156732
0.6496942604146115,142.5864215323195
0.6751984523072497,132.81493257831443
0.7017038286703824,121.64750525711318
0.7292496916841444,112.50545629438506
0.7578768863625915,105.01002006539957
0.7876278611187046,96.80942344657471
0.8185467307069019,89.14698300890801
0.850679341636415,82.79113069654557
0.8840733401525058,76.71113555097294
0.9187782428863317,70.80711834270376
0.9548455102782278,65.22167295183844
0.9923286228832539,60.05497895426556
1.0312831606721837,55.329371924156995
1.0717668854455022,50.99711060654813
1.1138398264826193,47.01284273425011
1.1575643695533022,43.33777086537448
1.2030053494233226,39.938683288886544
1.2502301459914542,36.78755339376703
1.299308784200415,33.86579232680627
1.3503140378698726,31.160239619112616
1.4033215376054824,28.658065890545256
1.4584098829439835,26.34673682084673
1.5156607589006013,24.214080716643043
1.575159057091621,22.248179071594755
1.6369930016117014,20.436669042933627
1.7012542798525885,18.767687409800555
1.7680381784572046,17.230276828427762
1.8374437246107238,15.814316577934994
1.9095738328780953,14.510457906795638
1.9845354578058014,13.310116139294975
2.0624397525140905,12.205494071248319
2.143402233514853,11.189364989382236
2.227542951999554,10.255004128803908
2.314986671851158,9.396158342422982
2.405863054644063,8.607016871094187
2.5003068519063225,7.882168318761309
2.598458104929248,7.216572474172307
2.7004623524206774,6.605563144414924
2.806470846309834,6.0448244590024975
2.916640776023701,5.530366186723803
3.031135501567576,5.058500721135759
3.150124795755327,4.625822646145594
3.2737850959485697,4.229187851598573
3.4022997656780634,3.8656934922655375
3.5358593665351745,3.5326605143275427
3.6746619407366854,3.2276173802669277
3.8189133047818515,2.948284768262913
3.968827354637162,2.6925607875856588
4.1246263829013445,2.458508508119824
4.286541408420921,2.244344037392857
4.4548125188449825,2.0484250070212204
4.629689226627261,1.8692398683305234
4.811430839003257,1.7053978554760982
5.000306842491082,1.5556195753931812
5.196597302486189,1.4187287731071543
5.400593278542364,1.2936444344973521
5.612597255954967,1.17937338568768
5.8329235942862,1.075003435981883
6.06189899349756,0.9796969143812776
6.29986297838068,0.8926847596179253
6.547168402004727,0.8132613190984936
6.804181968927091,0.7407793250045879
7.071284778942991,0.6746452279768929
7.348872892180382,0.6143148769210837
7.637357916378006,0.5592893436261147
7.937167617217536,0.5091113526001896
8.248746552614573,0.46336212293224693
8.572556731909314,0.4216582256785641
8.909078300934132,0.38364868073871045
9.258810253973934,0.34901233546538296
9.622271173675122,0.317455737751129
9.999999999999984,0.28871051667645237
