k [1/Mpc],P(k) [Mpc^3]
0.0001,133.75803330410858
0.00010392556829367125,138.60590021853733
0.00010800523745162529,143.6293033147
0.00011224505680853065,148.8345777158164
0.00011665131316981963,154.22828558029957
0.00012123054013376525,159.8172238230991
0.00012598952777950273,165.6084323941445
0.00013093533273536104,171.60920204545855
0.00013607528864243335,177.82707722649084
0.00014141701702890234,184.26986925489567
0.00014696843861124463,190.9456704570287
0.00015273778503907136,197.8628658892415
0.00015873361110102093,205.03013852299472
0.00016496480740980205,212.45646578917678
0.0001714406135851971,220.1511354365277
0.00017817063195457305,228.123764453273
0.00018516484179121546,236.3843122705203
0.000192433614111598,244.9430900871042
0.00019998772705352857,253.8107643575327
0.0002078383818579757,262.99836953087424
0.00021599721947827182,272.51732200653714
0.0002244763378413224,282.37941679111987
0.0002332883097864157,292.59685352354825
0.00024244620170823283,303.18225397407446
0.0002519635929317015,314.1486757051326
0.0002618545958474233,325.509624480368
0.0002721338768375308,337.2790493701385
0.0002828166780230032,349.471367591261
0.0002939188398646886,362.1014722376945
0.0003054568246515432,375.18472809124347
0.00031744774091091926,388.73701196636966
0.00032990936877709396,402.7747224015004
0.00034286018635565856,417.3147980052198
0.00035631939712285854,432.37472430343837
0.000370306958400514,447.9725090043159
0.00038484361094874304,464.1267352195133
0.0003999509097203664,480.85657718275456
0.00041565125582259895,498.18181484640263
0.00043196792973341727,516.1228410579608
0.0004489251258218605,534.7005756938611
0.0004665479882234472,553.9365451897562
0.000484862648123908,573.8529434184836
0.000503896262506515,594.4726541061391
0.0005236770544204653,615.8192450727513
0.0005442343548300266,637.9168560598771
0.0005655986461065005,660.7902551438328
0.0005878016072274912,684.4649031311823
0.0006108761607505036,708.966930076132
0.0006348565216305217,734.3231839527458
0.0006597782479539537,760.5611675799892
0.0006856782936641739,787.7090471228194
0.0007125950633568407,815.7956961697394
0.0007405684692262436,844.8505752392866
0.0007696399902471156,874.9038334138793
0.0007998527336796708,905.9862689046081
0.000831251498989063,938.1292838751863
0.0008638828442740447,971.3649642664041
0.000897795155303332,1005.7259068541109
0.0009330387172620361,1041.2452985057005
0.0009696657893145519,1077.9568765716913
0.001007730682094461,1115.8947501659716
0.0010472898382363582,1155.0935776357037
0.0010884019160690055,1195.5883602560677
0.0011311278765939214,1237.414451480598
0.001175531073878369,1280.6075507146968
0.0012216773489967915,1325.203272711782
0.0012696351276599736,1371.237443488617
0.0013194755216767058,1418.745878546443
0.0013712724343984,1467.7642418874593
0.0014251026703029975,1518.328209775611
0.0014810460488806749,1570.472992987838
0.0015391855229902056,1624.233515720576
0.001599607301861487,1679.6441952727885
0.0016624009789266115,1736.7385322103
0.0017276596646690358,1795.5494376158017
0.0017954801246878305,1856.1085874040582
0.0018659629231817451,1918.4464789767296
0.001939212572065829,1982.5924611994153
0.0020153376859417325,2048.5741403053466
0.002094451143151469,2116.4176720439905
0.002176670253153458,2186.1469591253003
0.002262116930469025,2257.7834054382092
0.002350917875457286,2331.346328761765
0.002443204762186487,2406.8524053876044
0.0025391144336803463,2484.315759304328
0.002638789104828933,2563.747109056364
0.002742376573264949,2645.1530110691106
0.0028500304385181063,2728.5366091836613
0.0029619103297725525,2813.8969970981634
0.0030781821425650787,2901.2292056125
0.003199018284775064,2990.523679138583
0.0033245979322709396,3081.765130271526
0.003455107294592217,3174.933279693337
0.0035907398910610534,3270.001882521802
0.0037316968377327513,3366.938542419699
0.0038781871456107214,3465.704828503587
0.0040304280305680515,3566.2549623098794
0.00418864523543527,3668.5364193929126
0.004353073364731888,3772.4888257556477
0.00452395623253805,3878.0432340382345
0.004701547224022131,3985.1232305701
0.004886109671160325,4093.644967448016
0.005077917243205399,4203.516862887489
0.005277254352483535,4314.635499511385
0.005484416576121017,4426.88096577444
0.005699711094326071,4540.124554682713
0.005923457145875801,4654.248569340382
0.006155986501483508,4769.141823576166
0.006397643955748424,4884.66823498218
0.0066487878384172625,5000.620158678398
0.0069097905457156435,5116.764523202837
0.007181039092537346,5232.89830269685
0.007462935686310132,5348.856057028085
0.007755898323389004,5464.458019671608
0.00806036140886134,5579.459388532211
0.008376776400682916,5693.584131836043
0.008705612479099857,5806.57023412598
0.009047357242349292,5918.19055808877
0.00940251742967013,6028.2126835440895
0.009771619672696168,6136.362570987519
0.010155211276345676,6242.338481105617
0.010553861030365234,6345.829756750274
0.010968160052731372,6446.516185334552
0.011398722666160517,6544.071084268812
0.011846187309026826,6638.159679927072
0.012311217482038896,6728.4406334001
0.012794502732078732,6814.570137115778
0.013296759674662111,6896.20294169436
0.013818733056536317,6972.994415026087
0.014361196859990781,7044.594273572474
0.014924955450518284,7110.6448255554305
0.015510844769528393,7170.793038764188
0.016119733573881575,7224.69047523816
0.01675252472408214,7271.997384191409
0.017410156523040152,7312.385146703505
0.018093604107387147,7345.536832113643
0.01880388089340914,7371.152778077533
0.019542040079740527,7388.956385767888
0.02030917620904734,7398.695819813276
0.021106426791015535,7400.146778323969
0.021934973989050584,7393.121400695908
0.02279604637318978,7377.463835048336
0.023690920741826323,7353.065674676155
0.02462092401494623,7319.869780774223
0.02558743520168586,7277.859971218168
0.02659188744512693,7227.091781863495
0.027635770147361564,7167.669017858234
0.028720631177978267,7099.756396268451
0.029848079169243254,7023.5997475245385
0.03101978590138095,6939.484180442529
0.03223748878149028,6847.778404708059
0.0335029934197723,6748.90672810869
0.03481817630688963,6643.331961333876
0.03618498759642746,6531.591283925769
0.037605453996581675,6414.238735297951
0.03908168177536263,6291.851894942599
0.04061585988376978,6165.025124192841
0.04221026320156896,6034.345076006736
0.04386725591048496,5900.393996678992
0.0455892949998106,5763.737518279267
0.047378933909631396,5624.824254327138
0.049238826317067365,5483.947857520037
0.05117173007114603,5341.413371793862
0.05318051128214196,5197.710142600136
0.05526814857144601,5053.393654671069
0.057437737488265785,4908.556646373255
0.0596924950997073,4762.301363786203
0.0620357647610427,4613.787515127586
0.06447102107323864,4463.311238472006
0.06700187503509585,4311.949223995391
0.06963207939763882,4160.601884779202
0.0723655342286965,4009.681078328183
0.07520629269592405,3859.4590241236665
0.07815856707684081,3709.8074501028887
0.08122673500479707,3560.3054539827967
0.08441534596012978,3411.315138901391
0.0877291280161335,3264.412811290631
0.09117299484984914,3121.1001752704074
0.09475205302806537,2982.6806063191148
0.09847160957933764,2849.6868458882873
0.1023371798632519,2721.553846250936
0.10635449574860109,2597.6561433720562
0.11052951411260206,2477.461623721077
0.1148684256737553,2360.754054185224
0.1193776641714435,2247.2435286474465
0.1240639159058831,2136.2728471605596
0.12893412965257148,2027.2934332558957
0.13399552696593373,1920.2457471235543
0.1392556128874462,1815.7303818905127
0.14472218707411338,1714.7065044409292
0.15040335536380234,1618.305458892832
0.15630754179458153,1527.2157166834058
0.16244350109588662,1441.214698819894
0.16882033167003618,1359.2896511721892
0.17544748908334581,1280.8801707543132
0.1823348000868439,1205.8908152895654
0.189492477187382,1133.936941160548
0.19693113379074215,1064.6402234091856
0.20466179993919872,998.5117602072614
0.21269593866686892,935.8924413266905
0.22104546299710207,876.7533996468799
0.22972275360711503,821.0788068230555
0.23874067718606454,768.3811596596994
0.2481126055137766,718.3235013828607
0.25785243528842716,670.9718021890295
0.26797460873256895,626.1859767955123
0.27849413500806414,584.0516607178765
0.28942661247167484,544.4349393426783
0.3007882518043098,507.1342803078317
0.31259590004822796,472.0680242443728
0.324867065587837,439.1015775720405
0.3376199441111335,408.1594598558133
0.35087344559027084,379.18713684644695
0.36464722232127456,352.0146102458994
0.37896169806447155,326.6051836396542
0.3938380983288488,302.8173788833255
0.4092984818452433,280.61344900715125
0.4253657732750382,259.8651902862385
0.44206379720285277,240.52659524359444
0.45941731346364734,222.49199760676728
0.47745205385661277,205.7032119125372
0.4961947603002895,190.08346234164702
0.5156732244854959,175.55243387478342
0.5359163290848509,162.05582357886223
0.556954090580013,149.52104682584587
0.5788177037701272,137.88220308023236
0.6015395880274836,127.08580678105544
0.6251534353689703,117.07742182484074
0.6496942604146115,107.80322174137552
0.6751984523072497,99.21486286772517
0.7017038286703824,91.26694366271845
0.7292496916841444,83.92168766176698
0.7578768863625915,77.13527210017726
0.7876278611187046,70.86767106129598
0.8185467307069019,65.08279049257692
0.850679341636415,59.74473405862366
0.8840733401525058,54.82069359570133
0.9187782428863317,50.28111056281991
0.9548455102782278,46.09936037665987
0.9923286228832539,42.25002956250171
1.0312831606721837,38.707945847136074
1.0717668854455022,35.44972081357796
1.1138398264826193,32.45398724338095
1.1575643695533022,29.700850412940493
1.2030053494233226,27.17179462078283
1.2502301459914542,24.849600526374385
1.299308784200415,22.718259757843757
1.3503140378698726,20.76288185411155
1.4033215376054824,18.969650687811974
1.4584098829439835,17.325763053381205
1.5156607589006013,15.819361491778652
1.575159057091621,14.439470915594574
1.6369930016117014,13.175942239830905
1.7012542798525885,12.019397481672758
1.7680381784572046,10.961169461948337
1.8374437246107238,9.993251837339008
1.9095738328780953,9.10825296179105
1.9845354578058014,8.299352266895772
2.0624397525140905,7.560255265684809
2.143402233514853,6.885157964745322
2.227542951999554,6.268715801407927
2.314986671851158,5.706009774868748
2.405863054644063,5.192514689216531
2.5003068519063225,4.724068891091721
2.598458104929248,4.296843649453069
2.7004623524206774,3.9073213789322288
2.806470846309834,3.5522733887979507
2.916640776023701,3.228737295747285
3.031135501567576,2.9339960878215376
3.150124795755327,2.6655596224083884
3.2737850959485697,2.421147665899903
3.4022997656780634,2.1986706706330725
3.5358593665351745,1.9962141942190927
3.6746619407366854,1.8120249321274735
3.8189133047818515,1.6444977385156647
3.968827354637162,1.492162108460454
4.1246263829013445,1.3536715425758585
4.286541408420921,1.2277955905580964
4.4548125188449825,1.1134102933285623
4.629689226627261,1.0094892553208272
4.811430839003257,0.915095518223276
5.000306842491082,0.8293746336527426
5.196597302486189,0.751547114018304
5.400593278542364,0.6809016248698857
5.612597255954967,0.6167892258833255
5.8329235942862,0.5586180819092276
6.06189899349756,0.5058484873592343
6.29986297838068,0.4579881501733469
6.547168402004727,0.4145885596844865
6.804181968927091,0.37524130746606404
7.071284778942991,0.33957459302517506
7.348872892180382,0.3072500239540769
7.637357916378006,0.27795964267378315
7.937167617217536,0.2514232399225514
8.248746552614573,0.22738599205105267
8.572556731909314,0.2056162191973646
8.909078300934132,0.1859033285280588
9.258810253973934,0.16805594796208778
9.622271173675122,0.15190036722773886
9.999999999999984,0.13727885659859473
