k [1/Mpc],P(k) [Mpc^3]
0.0001,125.16032287738503
0.00010392556829367125,130.44658748972037
0.00010800523745162529,135.9558648614982
0.00011224505680853065,141.6975230386989
0.00011665131316981963,147.68132119609282
0.00012123054013376525,153.91743081253804
0.00012598952777950273,160.41644976556802
0.00013093533273536104,167.1894143124852
0.00013607528864243335,174.24781383037472
0.00014141701702890234,181.60361405591
0.00014696843861124463,189.26927028007333
0.00015273778503907136,197.25774967253383
0.00015873361110102093,205.58255343062513
0.00016496480740980205,214.25773369703407
0.0001714406135851971,223.29792039995638
0.00017817063195457305,232.71833647606852
0.00018516484179121546,242.53482144558407
0.000192433614111598,252.7638630679771
0.00019998772705352857,263.4226217837685
0.0002078383818579757,274.52895833345036
0.00021599721947827182,286.1014408365437
0.0002244763378413224,298.1593608773901
0.0002332883097864157,310.7227855341033
0.00024244620170823283,323.8125817600598
0.0002519635929317015,337.4504507439655
0.0002618545958474233,351.6589425802354
0.0002721338768375308,366.46145941442444
0.0002828166780230032,381.8823222270258
0.0002939188398646886,397.9468009880101
0.0003054568246515432,414.6811511500322
0.00031744774091091926,432.11263660054334
0.00032990936877709396,450.269509608396
0.00034286018635565856,469.1810932998517
0.00035631939712285854,488.8778051486286
0.000370306958400514,509.3911859419958
0.00038484361094874304,530.7539510607064
0.0003999509097203664,552.9999434414373
0.00041565125582259895,576.1642208329487
0.00043196792973341727,600.2831023073318
0.0004489251258218605,625.3941812976374
0.0004665479882234472,651.5363921008732
0.000484862648123908,678.7499351463453
0.000503896262506515,707.0763469018664
0.0005236770544204653,736.5585737625757
0.0005442343548300266,767.240940813359
0.0005655986461065005,799.169250873807
0.0005878016072274912,832.3907289927268
0.0006108761607505036,866.9540447419288
0.0006348565216305217,902.9093931036233
0.0006597782479539537,940.3083507433404
0.0006856782936641739,979.2040220729613
0.0007125950633568407,1019.6510279536399
0.0007405684692262436,1061.7054648081646
0.0007696399902471156,1105.425007717891
0.0007998527336796708,1150.8686675816477
0.000831251498989063,1198.0969092579498
0.0008638828442740447,1247.1716464488
0.000897795155303332,1298.156016452193
0.0009330387172620361,1351.1146056474474
0.0009696657893145519,1406.1131506862637
0.001007730682094461,1463.218539518807
0.0010472898382363582,1522.4988337510763
0.0010884019160690055,1584.0226415638233
0.0011311278765939214,1647.8595197206043
0.001175531073878369,1714.0796925548304
0.0012216773489967915,1782.753822136987
0.0012696351276599736,1853.9531861105097
0.0013194755216767058,1927.748807361758
0.0013712724343984,2004.2117433955507
0.0014251026703029975,2083.412968272706
0.0014810460488806749,2165.422871649654
0.0015391855229902056,2250.3114613683115
0.001599607301861487,2338.147104095954
0.0016624009789266115,2428.9965632344
0.0017276596646690358,2522.925193030263
0.0017954801246878305,2619.996063232276
0.0018659629231817451,2720.2702304662093
0.001939212572065829,2823.8055916169697
0.0020153376859417325,2930.656387229576
0.002094451143151469,3040.8735902312264
0.002176670253153458,3154.5038114497647
0.002262116930469025,3271.5894066783258
0.002350917875457286,3392.167515704123
0.002443204762186487,3516.2689970226434
0.0025391144336803463,3643.9189082883468
0.002638789104828933,3775.1348605936078
0.002742376573264949,3909.927001920285
0.0028500304385181063,4048.2975643301697
0.0029619103297725525,4190.239266042699
0.0030781821425650787,4335.735838651091
0.003199018284775064,4484.7598740057665
0.0033245979322709396,4637.272302032067
0.003455107294592217,4793.222879337445
0.0035907398910610534,4952.548450152998
0.0037316968377327513,5115.173250609087
0.0038781871456107214,5281.005943730461
0.0040304280305680515,5449.937762079235
0.00418864523543527,5621.84507384908
0.004353073364731888,5796.589258485353
0.00452395623253805,5974.016086202109
0.004701547224022131,6153.9460061819955
0.004886109671160325,6336.162325858726
0.005077917243205399,6520.428804043886
0.005277254352483535,6706.529452358665
0.005484416576121017,6894.260789266609
0.005699711094326071,7083.3665472636285
0.005923457145875801,7273.434324759702
0.006155986501483508,7463.993324041061
0.006397643955748424,7654.628957914281
0.0066487878384172625,7845.001301840267
0.0069097905457156435,8034.738088192692
0.007181039092537346,8223.322120860386
0.007462935686310132,8410.163773376671
0.007755898323389004,8594.69108827469
0.00806036140886134,8776.38980535815
0.008376776400682916,8954.727701174499
0.008705612479099857,9129.055641210627
0.009047357242349292,9298.64557102527
0.00940251742967013,9462.739507458129
0.009771619672696168,9620.53893972011
0.010155211276345676,9771.223887094928
0.010553861030365234,9913.925310461636
0.010968160052731372,10047.73196063691
0.011398722666160517,10171.715916445373
0.011846187309026826,10284.899113461986
0.012311217482038896,10386.295044121318
0.012794502732078732,10474.876685777315
0.013296759674662111,10549.561703977117
0.013818733056536317,10609.282926313539
0.014361196859990781,10652.92974827011
0.014924955450518284,10679.407181174936
0.015510844769528393,10687.646034020901
0.016119733573881575,10676.56437316534
0.01675252472408214,10645.165235555272
0.017410156523040152,10592.478445931554
0.018093604107387147,10517.608498456919
0.01880388089340914,10419.797001718181
0.019542040079740527,10298.36876125045
0.02030917620904734,10152.839364821868
0.021106426791015535,9982.910689569142
0.021934973989050584,9788.48630176611
0.02279604637318978,9569.747315590652
0.023690920741826323,9327.164506053836
0.02462092401494623,9061.511070559634
0.02558743520168586,8773.929691257248
0.02659188744512693,8465.9672115623
0.027635770147361564,8139.475174207818
0.028720631177978267,7796.833689502182
0.029848079169243254,7440.7491264683795
0.03101978590138095,7074.230332777278
0.03223748878149028,6700.8769623182
0.0335029934197723,6324.25262418029
0.03481817630688963,5948.387470247529
0.03618498759642746,5577.489652922282
0.037605453996581675,5215.413472611964
0.03908168177536263,4866.509817458264
0.04061585988376978,4534.485421139766
0.04221026320156896,4222.795354042446
0.04386725591048496,3934.85922095019
0.0455892949998106,3673.067169926009
0.047378933909631396,3439.401375834218
0.049238826317067365,3235.2664798894516
0.05117173007114603,3061.4723549862797
0.05318051128214196,2918.534827484288
0.05526814857144601,2806.004482160499
0.057437737488265785,2720.4137151886202
0.0596924950997073,2658.2109438999146
0.0620357647610427,2615.8959693148704
0.06447102107323864,2589.757707992655
0.06700187503509585,2574.2416917716423
0.06963207939763882,2562.6728889477813
0.0723655342286965,2546.6900161946946
0.07520629269592405,2517.2292157643856
0.07815856707684081,2465.463814731828
0.08122673500479707,2384.9068627134657
0.08441534596012978,2272.129670027554
0.0877291280161335,2127.6625301236922
0.09117299484984914,1956.6795940723814
0.09475205302806537,1767.7499156008241
0.09847160957933764,1572.5324663058175
0.1023371798632519,1383.8845289057376
0.10635449574860109,1214.8442355231546
0.11052951411260206,1075.6397336375112
0.1148684256737553,972.2232472683576
0.1193776641714435,905.8915648980593
0.1240639159058831,873.4462758158088
0.12893412965257148,867.8563628267926
0.13399552696593373,878.5172549726531
0.1392556128874462,891.7101954771289
0.14472218707411338,892.23771441279
0.15040335536380234,866.5805195143353
0.15630754179458153,807.9991774243286
0.16244350109588662,721.655539232429
0.16882033167003618,623.7933152230369
0.17544748908334581,533.4685955273682
0.1823348000868439,464.85246649357185
0.189492477187382,424.9496130910194
0.19693113379074215,412.3653903289328
0.20466179993919872,416.6719456121668
0.21269593866686892,421.83807843034964
0.22104546299710207,412.0841535409563
0.22972275360711503,379.6733557860817
0.23874067718606454,331.4498391511962
0.2481126055137766,283.71928224881884
0.25785243528842716,250.9917733425264
0.26797460873256895,237.37660831204258
0.27849413500806414,235.65359089336192
0.28942661247167484,232.62396609747984
0.3007882518043098,217.50992681791305
0.31259590004822796,192.09502471200935
0.324867065587837,167.8116252752749
0.3376199441111335,153.66402123571726
0.35087344559027084,148.3877851951244
0.36464722232127456,143.17845644854702
0.37896169806447155,131.6374691629294
0.3938380983288488,116.84871519143991
0.4092984818452433,105.99647747902938
0.4253657732750382,100.30960593783587
0.44206379720285277,94.79609238595474
0.45941731346364734,86.36526334841889
0.47745205385661277,77.98070336710435
0.4961947603002895,72.4185522864529
0.5156732244854959,67.78100254864566
0.5359163290848509,62.01212065136494
0.556954090580013,56.55777864890138
0.5788177037701272,52.45396682316205
0.6015395880274836,48.4337264771322
0.6251534353689703,44.27427679499825
0.6496942604146115,40.7646270217717
0.6751984523072497,37.62389903025773
0.7017038286703824,34.64746783902021
0.7292496916841444,31.838947824712555
0.7578768863625915,29.213357500337327
0.7876278611187046,26.77909224264363
0.8185467307069019,24.539058329283822
0.850679341636415,22.49109978102692
0.8840733401525058,20.62140518137357
0.9187782428863317,18.910975452274197
0.9548455102782278,17.343154630110817
0.9923286228832539,15.903442015086554
1.0312831606721837,14.579190458220978
1.0717668854455022,13.359762666357835
1.1138398264826193,12.237433351826827
1.1575643695533022,11.205411928139437
1.2030053494233226,10.25724743287376
1.2502301459914542,9.386830681517974
1.299308784200415,8.588390741497257
1.3503140378698726,7.856346929743247
1.4033215376054824,7.185279033549555
1.4584098829439835,6.570184967119953
1.5156607589006013,6.006470847974881
1.575159057091621,5.4899174822527685
1.6369930016117014,5.016652828827117
1.7012542798525885,4.583154327632292
1.7680381784572046,4.186197422457003
1.8374437246107238,3.822806766188478
1.9095738328780953,3.490237872061568
1.9845354578058014,3.1859603970015424
2.0624397525140905,2.9076407390800254
2.143402233514853,2.6531234537284516
2.227542951999554,2.420424679363635
2.314986671851158,2.2077207758458104
2.405863054644063,2.013335882037567
2.5003068519063225,1.8357303947300545
2.598458104929248,1.6734904127078443
2.7004623524206774,1.5253178642493428
2.806470846309834,1.390021185536119
2.916640776023701,1.2665068811876756
3.031135501567576,1.1537717371321778
3.150124795755327,1.0508956061819412
3.2737850959485697,0.9570346136491118
3.4022997656780634,0.8714151567568984
3.5358593665351745,0.793328348132967
3.6746619407366854,0.7221247694397652
3.8189133047818515,0.6572096327470907
3.968827354637162,0.5980383008764519
4.1246263829013445,0.5441121417271215
4.286541408420921,0.49497481646696506
4.4548125188449825,0.4502088059160818
4.629689226627261,0.4094321968971557
4.811430839003257,0.3722957249659469
5.000306842491082,0.3384800220484008
5.196597302486189,0.30769312201429144
5.400593278542364,0.27966821546446663
5.612597255954967,0.2541615367288279
5.8329235942862,0.2309504199859413
6.06189899349756,0.20983151223766236
6.29986297838068,0.19061911802558584
6.547168402004727,0.17314371509416
6.804181968927091,0.1572505880597034
7.071284778942991,0.14279856217194492
7.348872892180382,0.12965884256586477
7.637357916378006,0.1177139373509466
7.937167617217536,0.10685666356783118
8.248746552614573,0.09698929849985453
8.572556731909314,0.08802276744615765
8.909078300934132,0.07987589157882012
9.258810253973934,0.07247470134371359
9.622271173675122,0.06575184799039609
9.999999999999984,0.05964601652743913
