k [1/Mpc],P(k) [Mpc^3]
0.0001,380.20558562986906
0.00010392556829367125,396.25422725285586
0.00010800523745162529,412.97866311282814
0.00011224505680853065,430.40716469664585
0.00011665131316981963,448.5691891476124
0.00012123054013376525,467.495393445998
0.00012598952777950273,487.2176107933257
0.00013093533273536104,507.7689534053913
0.00013607528864243335,529.1839085583915
0.00014141701702890234,551.498403942022
0.00014696843861124463,574.7498279651396
0.00015273778503907136,598.9770187480378
0.00015873361110102093,624.2203558725755
0.00016496480740980205,650.5218250819519
0.0001714406135851971,677.9250533005289
0.00017817063195457305,706.4754049798371
0.00018516484179121546,736.2200126009274
0.000192433614111598,767.2078535693379
0.00019998772705352857,799.4898213480894
0.0002078383818579757,833.118745757262
0.00021599721947827182,868.149508188397
0.0002244763378413224,904.6390130770922
0.0002332883097864157,942.6462475864604
0.00024244620170823283,982.2324329286417
0.0002519635929317015,1023.4610197025609
0.0002618545958474233,1066.3978220424267
0.0002721338768375308,1111.1110310091076
0.0002828166780230032,1157.6712350257546
0.0002939188398646886,1206.1515758503986
0.0003054568246515432,1256.627589872243
0.00031744774091091926,1309.1773903346525
0.00032990936877709396,1363.881797206459
0.00034286018635565856,1420.8243279376904
0.00035631939712285854,1480.0913495772704
0.000370306958400514,1541.7718103196873
0.00038484361094874304,1605.9573571637532
0.0003999509097203664,1672.7425685159044
0.00041565125582259895,1742.224834258673
0.00043196792973341727,1814.504565416598
0.0004489251258218605,1889.6849558976305
0.0004665479882234472,1967.871946330779
0.000484862648123908,2049.174502066504
0.000503896262506515,2133.7042652936407
0.0005236770544204653,2221.575824017444
0.0005442343548300266,2312.906619857055
0.0005655986461065005,2407.816751994358
0.0005878016072274912,2506.4292348559866
0.0006108761607505036,2608.8693396572476
0.0006348565216305217,2715.2648110245887
0.0006597782479539537,2825.7458712152493
0.0006856782936641739,2940.4446454103354
0.0007125950633568407,3059.495608036671
0.0007405684692262436,3183.0348756915173
0.0007696399902471156,3311.2001313761925
0.0007998527336796708,3444.130549925473
0.000831251498989063,3581.965148641502
0.0008638828442740447,3724.8437449275107
0.000897795155303332,3872.906223046337
0.0009330387172620361,4026.291931415644
0.0009696657893145519,4185.139944702966
0.001007730682094461,4349.586500293924
0.0010472898382363582,4519.7658696092685
0.0010884019160690055,4695.809777682947
0.0011311278765939214,4877.8458579118
0.001175531073878369,5065.998447145708
0.0012216773489967915,5260.3855092855165
0.0012696351276599736,5461.118807894801
0.0013194755216767058,5668.304751122796
0.0013712724343984,5882.043594245483
0.0014251026703029975,6102.428682748968
0.0014810460488806749,6329.541427373766
0.0015391855229902056,6563.450255565774
0.001599607301861487,6804.212782562996
0.0016624009789266115,7051.873449929112
0.0017276596646690358,7306.463707080361
0.0017954801246878305,7568.000201042294
0.0018659629231817451,7836.483087300435
0.001939212572065829,8111.896016677249
0.0020153376859417325,8394.202038463687
0.002094451143151469,8683.344043382698
0.002176670253153458,8979.243746239872
0.002262116930469025,9281.798972826884
0.002350917875457286,9590.88441537925
0.002443204762186487,9906.348099194764
0.0025391144336803463,10228.010882631594
0.002638789104828933,10555.666067704547
0.002742376573264949,10889.07586564266
0.0028500304385181063,11227.972721540988
0.0029619103297725525,11572.057234707425
0.0030781821425650787,11920.997059715628
0.003199018284775064,12274.426238455699
0.0033245979322709396,12631.938098974299
0.003455107294592217,12993.08908016017
0.0035907398910610534,13357.396355356388
0.0037316968377327513,13724.33479345649
0.0038781871456107214,14093.341885962229
0.0040304280305680515,14463.816467005683
0.00418864523543527,14835.119648031708
0.004353073364731888,15206.547941092334
0.00452395623253805,15577.293196327177
0.004701547224022131,15946.503616853744
0.004886109671160325,16313.422086084745
0.005077917243205399,16677.36700678978
0.005277254352483535,17037.51651000384
0.005484416576121017,17392.56429599966
0.005699711094326071,17741.045876543078
0.005923457145875801,18081.645172413628
0.006155986501483508,18413.244407975926
0.006397643955748424,18734.715961506314
0.0066487878384172625,19044.902781476147
0.0069097905457156435,19342.630380305058
0.007181039092537346,19626.59146312273
0.007462935686310132,19895.255281616086
0.007755898323389004,20147.051592217464
0.00806036140886134,20380.325600494092
0.008376776400682916,20593.382332167323
0.008705612479099857,20784.493928526394
0.009047357242349292,20951.832799408818
0.00940251742967013,21093.58733999574
0.009771619672696168,21207.929067422097
0.010155211276345676,21293.04245283846
0.010553861030365234,21347.127018668918
0.010968160052731372,21368.178014958816
0.011398722666160517,21354.24478333659
0.011846187309026826,21303.373055524018
0.012311217482038896,21213.595862365837
0.012794502732078732,21083.129735411425
0.013296759674662111,20910.175268099312
0.013818733056536317,20693.14304151134
0.014361196859990781,20430.596488126368
0.014924955450518284,20121.11268839925
0.015510844769528393,19763.69204187886
0.016119733573881575,19357.511683216522
0.01675252472408214,18902.153319586563
0.017410156523040152,18397.720758497657
0.018093604107387147,17844.57582549028
0.01880388089340914,17243.827938791208
0.019542040079740527,16597.1181093653
0.02030917620904734,15906.722651832417
0.021106426791015535,15175.834270785987
0.021934973989050584,14408.2866239422
0.02279604637318978,13608.832244943305
0.023690920741826323,12783.099339259554
0.02462092401494623,11937.470273732375
0.02558743520168586,11079.108604753797
0.02659188744512693,10216.043015545987
0.027635770147361564,9356.668732544182
0.028720631177978267,8509.785550991559
0.029848079169243254,7684.608979588906
0.03101978590138095,6889.600845457592
0.03223748878149028,6133.791663145395
0.0335029934197723,5425.138157697537
0.03481817630688963,4770.018972510776
0.03618498759642746,4174.973159209663
0.037605453996581675,3643.2273826651035
0.03908168177536263,3176.839350732866
0.04061585988376978,2776.351065748369
0.04221026320156896,2439.735806753836
0.04386725591048496,2165.746776508797
0.0455892949998106,1951.9450516469997
0.047378933909631396,1794.7703705948172
0.049238826317067365,1691.1447167717354
0.05117173007114603,1637.5281357615513
0.05318051128214196,1627.2465868080974
0.05526814857144601,1655.6078609201534
0.057437737488265785,1718.5342037028638
0.0596924950997073,1810.9240788007623
0.0620357647610427,1922.0796864806018
0.06447102107323864,2037.7058111727483
0.06700187503509585,2139.817600210017
0.06963207939763882,2209.1213521033196
0.0723655342286965,2227.598481250733
0.07520629269592405,2182.5514912834146
0.07815856707684081,2068.120269206574
0.08122673500479707,1886.9277730367946
0.08441534596012978,1650.9083855744304
0.0877291280161335,1381.8567852758406
0.09117299484984914,1110.440612043887
0.09475205302806537,865.6790919521806
0.09847160957933764,667.8008191801722
0.1023371798632519,525.5362954686456
0.10635449574860109,438.46351006625787
0.11052951411260206,401.9521809795739
0.1148684256737553,409.75319758271826
0.1193776641714435,454.2592347329832
0.1240639159058831,524.3523297352999
0.12893412965257148,600.2796584972126
0.13399552696593373,652.7842029155915
0.1392556128874462,653.8820539169831
0.14472218707411338,594.200618864143
0.15040335536380234,489.5868685287102
0.15630754179458153,371.33513881942457
0.16244350109588662,270.9496124198605
0.16882033167003618,207.97895320843008
0.17544748908334581,185.09703491288795
0.1823348000868439,195.5783847025512
0.189492477187382,228.14165811258118
0.19693113379074215,261.3900002003718
0.20466179993919872,269.0580184599434
0.21269593866686892,239.20947464191966
0.22104546299710207,186.36038415372897
0.22972275360711503,138.60659206034143
0.23874067718606454,113.17935969665544
0.2481126055137766,111.86604714901732
0.25785243528842716,124.99641382763981
0.26797460873256895,134.19979487494604
0.27849413500806414,124.61401131896265
0.28942661247167484,100.52883190966813
0.3007882518043098,79.64350189012963
0.31259590004822796,72.14179259649016
0.324867065587837,75.04791973696864
0.3376199441111335,76.59073426077866
0.35087344559027084,68.65077214712404
0.36464722232127456,56.70092860338299
0.37896169806447155,50.08574785895759
0.3938380983288488,49.42434598165555
0.4092984818452433,48.002095658680176
0.4253657732750382,42.38440041942285
0.44206379720285277,36.90051614381499
0.45941731346364734,34.70548908095124
0.47745205385661277,33.06350918866318
0.4961947603002895,29.668570096253276
0.5156732244854959,26.57829204917028
0.5359163290848509,24.87233358079646
0.556954090580013,22.941907848495266
0.5788177037701272,20.675303420181788
0.6015395880274836,19.00224083148829
0.6251534353689703,17.561231291938224
0.6496942604146115,16.152072920221713
0.6751984523072497,14.787743266033992
0.7017038286703824,13.494880828333258
0.7292496916841444,12.292010031815083
0.7578768863625915,11.190684285824421
0.7876278611187046,10.196523816808801
0.8185467307069019,9.303600785626688
0.850679341636415,8.497740293743865
0.8840733401525058,7.766720143123895
0.9187782428863317,7.10038716514433
0.9548455102782278,6.490302389949642
0.9923286228832539,5.929597930175302
1.0312831606721837,5.414102338172744
1.0717668854455022,4.940984646002348
1.1138398264826193,4.507468619270161
1.1575643695533022,4.110838525112971
1.2030053494233226,3.7484606583522027
1.2502301459914542,3.4177493070037284
1.299308784200415,3.1159795493370037
1.3503140378698726,2.8405676101094093
1.4033215376054824,2.589171223678262
1.4584098829439835,2.359665773244758
1.5156607589006013,2.1501228232331626
1.575159057091621,1.9588055564576807
1.6369930016117014,1.7841721538448607
1.7012542798525885,1.624813461902882
1.7680381784572046,1.4794337877586672
1.8374437246107238,1.3468424022507453
1.9095738328780953,1.2259455599161553
1.9845354578058014,1.1157359933129214
2.0624397525140905,1.0152855575281117
2.143402233514853,0.9237446582847645
2.227542951999554,0.8403362510362307
2.314986671851158,0.7643497806076073
2.405863054644063,0.6951356221274069
2.5003068519063225,0.63210010263116
2.598458104929248,0.5747007341481442
2.7004623524206774,0.5224417538510044
2.806470846309834,0.4748701842231777
2.916640776023701,0.4315722219944715
3.031135501567576,0.39216993860929317
3.150124795755327,0.35631833904755905
3.2737850959485697,0.32370246719068785
3.4022997656780634,0.2940347801309698
3.5358593665351745,0.26705281547482984
3.6746619407366854,0.24251705230143528
3.8189133047818515,0.2202089197205286
3.968827354637162,0.1999289156161256
4.1246263829013445,0.181495093661324
4.286541408420921,0.16474158465551025
4.4548125188449825,0.14951720029345425
4.629689226627261,0.13568415585682597
4.811430839003257,0.12311691698901354
5.000306842491082,0.11170114370175384
5.196597302486189,0.10133267344886354
5.400593278542364,0.09191662581471954
5.612597255954967,0.08336658983920749
5.8329235942862,0.07560388065062885
6.06189899349756,0.0685568465101698
6.29986297838068,0.06216025039046774
6.547168402004727,0.05635472451916161
6.804181968927091,0.05108625137447102
7.071284778942991,0.04630568844558462
7.348872892180382,0.04196833385850094
7.637357916378006,0.038033522740968745
7.937167617217536,0.03446427211773422
8.248746552614573,0.03122695897104389
8.572556731909314,0.028291018875805925
8.909078300934132,0.025628671130247832
9.258810253973934,0.023214671235990393
9.622271173675122,0.021026097293096544
9.999999999999984,0.01904212369201969
