k [1/Mpc],P(k) [Mpc^3]
0.0001,207.2660021175436
0.00010392556829367125,215.39713235956407
0.00010800523745162529,223.8468133456027
0.00011224505680853065,232.6274730466127
0.00011665131316981963,241.75202049582333
0.00012123054013376525,251.23385882410747
0.00012598952777950273,261.0869050659496
0.00013093533273536104,271.32561115837103
0.00013607528864243335,281.96497802585895
0.00014141701702890234,293.0205816521659
0.00014696843861124463,304.50858897539524
0.00015273778503907136,316.44577766498566
0.00015873361110102093,328.8495657011942
0.00016496480740980205,341.7380289695432
0.0001714406135851971,355.129929530557
0.00017817063195457305,369.0447312817972
0.00018516484179121546,383.50261135860114
0.000192433614111598,398.52450553315657
0.00019998772705352857,414.13212944894326
0.0002078383818579757,430.348008924088
0.00021599721947827182,447.1955062262595
0.0002244763378413224,464.6988264157348
0.0002332883097864157,482.8830678031224
0.00024244620170823283,501.77422979253936
0.0002519635929317015,521.3992362822963
0.0002618545958474233,541.7859906144447
0.0002721338768375308,562.9633732943604
0.0002828166780230032,584.9612968552823
0.0002939188398646886,607.810724829588
0.0003054568246515432,631.5436743793163
0.00031744774091091926,656.1932904636412
0.00032990936877709396,681.7938141614176
0.00034286018635565856,708.3806351398581
0.00035631939712285854,735.9903539221525
0.000370306958400514,764.6607722578913
0.00038484361094874304,794.4309685688138
0.0003999509097203664,825.3412386987037
0.00041565125582259895,857.4331061700263
0.00043196792973341727,890.7494406488103
0.0004489251258218605,925.3344084869393
0.0004665479882234472,961.23355960827
0.000484862648123908,998.4937995561946
0.000503896262506515,1037.1633286264248
0.0005236770544204653,1077.2917939342078
0.0005442343548300266,1118.9301800456014
0.0005655986461065005,1162.130877075853
0.0005878016072274912,1206.9477285045577
0.0006108761607505036,1253.4358970259354
0.0006348565216305217,1301.6520256799847
0.0006597782479539537,1351.6541001101236
0.0006856782936641739,1403.5014272239762
0.0007125950633568407,1457.2547569603682
0.0007405684692262436,1512.9759966711974
0.0007696399902471156,1570.7283953075391
0.0007998527336796708,1630.576450955691
0.000831251498989063,1692.585727335435
0.0008638828442740447,1756.8230576067149
0.000897795155303332,1823.3560743579717
0.0009330387172620361,1892.2533184880901
0.0009696657893145519,1963.5842226708648
0.001007730682094461,2037.4185444149302
0.0010472898382363582,2113.826781752521
0.0010884019160690055,2192.879663537992
0.0011311278765939214,2274.647990642134
0.001175531073878369,2359.20279714653
0.0012216773489967915,2446.6142751776824
0.0012696351276599736,2536.952273154595
0.0013194755216767058,2630.2859758886493
0.0013712724343984,2726.683334336896
0.0014251026703029975,2826.21147109322
0.0014810460488806749,2928.935743356211
0.0015391855229902056,3034.919801185729
0.001599607301861487,3144.2251632621474
0.0016624009789266115,3256.9097262938785
0.0017276596646690358,3373.0286974971286
0.0017954801246878305,3492.633645369362
0.0018659629231817451,3615.7721103887134
0.001939212572065829,3742.4877425195637
0.0020153376859417325,3872.818737837012
0.002094451143151469,4006.7982918467997
0.002176670253153458,4144.4536486612915
0.002262116930469025,4285.805001121375
0.002350917875457286,4430.8661472568665
0.002443204762186487,4579.643055654484
0.0025391144336803463,4732.133813059693
0.002638789104828933,4888.3278580220585
0.002742376573264949,5048.203939593053
0.0028500304385181063,5211.731218414648
0.0029619103297725525,5378.868095710001
0.0030781821425650787,5549.561679524796
0.003199018284775064,5723.747527593289
0.0033245979322709396,5901.347064147148
0.003455107294592217,6082.268577661975
0.0035907398910610534,6266.40653222812
0.0037316968377327513,6453.640551262122
0.0038781871456107214,6643.83569689616
0.0040304280305680515,6836.839682663541
0.00418864523543527,7032.483493154183
0.004353073364731888,7230.583166892647
0.00452395623253805,7430.940993609839
0.004701547224022131,7633.342632183551
0.004886109671160325,7837.542125827088
0.005077917243205399,8043.262346853738
0.005277254352483535,8250.219840787
0.005484416576121017,8458.17362815571
0.005699711094326071,8666.885300258677
0.005923457145875801,8876.01232602132
0.006155986501483508,9085.06088372088
0.006397643955748424,9293.515565108688
0.0066487878384172625,9500.986861364045
0.0069097905457156435,9707.144881153084
0.007181039092537346,9911.592929112576
0.007462935686310132,10113.78160469359
0.007755898323389004,10313.125616189429
0.00806036140886134,10509.129295331752
0.008376776400682916,10701.375199858114
0.008705612479099857,10889.416571542803
0.009047357242349292,11072.686863031027
0.00940251742967013,11250.578842107981
0.009771619672696168,11422.46997402675
0.010155211276345676,11587.722959765017
0.010553861030365234,11745.696807334627
0.010968160052731372,11895.765976533517
0.011398722666160517,12037.314620048532
0.011846187309026826,12169.722062081271
0.012311217482038896,12292.353252018986
0.012794502732078732,12404.579747377082
0.013296759674662111,12505.769184303237
0.013818733056536317,12595.293221009393
0.014361196859990781,12672.54360330388
0.014924955450518284,12736.931924054958
0.015510844769528393,12787.899295142139
0.016119733573881575,12824.92094419675
0.01675252472408214,12847.510457482762
0.017410156523040152,12855.226871358094
0.018093604107387147,12847.6809528165
0.01880388089340914,12824.538653813675
0.019542040079740527,12785.537184082825
0.02030917620904734,12730.502651640643
0.021106426791015535,12659.332817809882
0.021934973989050584,12572.037482560327
0.02279604637318978,12468.726523342819
0.023690920741826323,12349.602876931358
0.02462092401494623,12215.024913905525
0.02558743520168586,12065.436045402443
0.02659188744512693,11901.423911544418
0.027635770147361564,11723.727565719657
0.028720631177978267,11533.15464348438
0.029848079169243254,11330.690782817881
0.03101978590138095,11117.396060973191
0.03223748878149028,10894.399300549401
0.0335029934197723,10662.946618946666
0.03481817630688963,10424.279900835183
0.03618498759642746,10179.701710801606
0.037605453996581675,9930.52741050559
0.03908168177536263,9677.968574594535
0.04061585988376978,9423.034401962235
0.04221026320156896,9166.65413319928
0.04386725591048496,8909.794389510069
0.0455892949998106,8653.456572298635
0.047378933909631396,8398.453077296175
0.049238826317067365,8144.8331196069585
0.05117173007114603,7892.402719004261
0.05318051128214196,7640.610066569372
0.05526814857144601,7388.25363462576
0.057437737488265785,7134.352221097063
0.0596924950997073,6879.217986139616
0.0620357647610427,6623.890995640362
0.06447102107323864,6369.157920527954
0.06700187503509585,6115.1407801839405
0.06963207939763882,5861.922181999507
0.0723655342286965,5610.018165464713
0.07520629269592405,5360.23755650154
0.07815856707684081,5114.304661965912
0.08122673500479707,4875.135025233456
0.08441534596012978,4644.715883426302
0.0877291280161335,4423.6437333367085
0.09117299484984914,4212.055867104947
0.09475205302806537,4009.727432446675
0.09847160957933764,3816.6041882669433
0.1023371798632519,3632.5459343320485
0.10635449574860109,3456.086725862111
0.11052951411260206,3285.0052298704213
0.1148684256737553,3116.782429506994
0.1193776641714435,2950.4974306291833
0.1240639159058831,2786.5580169218742
0.12893412965257148,2626.4109518693635
0.13399552696593373,2472.3544829910497
0.1392556128874462,2326.9020474037848
0.14472218707411338,2190.8219467893873
0.15040335536380234,2062.6007908308225
0.15630754179458153,1941.3350779238733
0.16244350109588662,1826.9403733586014
0.16882033167003618,1718.2315894722692
0.17544748908334581,1612.7572761549613
0.1823348000868439,1511.1151727828073
0.189492477187382,1414.815715746268
0.19693113379074215,1323.536000623003
0.20466179993919872,1237.778386825184
0.21269593866686892,1157.7680977021128
0.22104546299710207,1082.1600878820093
0.22972275360711503,1010.4798134931938
0.23874067718606454,942.6873968967318
0.2481126055137766,878.7593691382931
0.25785243528842716,818.7315942823938
0.26797460873256895,762.4104575309763
0.27849413500806414,709.6362945721038
0.28942661247167484,659.9958619990613
0.3007882518043098,613.4496187627284
0.31259590004822796,569.8350538304359
0.324867065587837,529.0624916586477
0.3376199441111335,490.89299787828804
0.35087344559027084,455.2454522013514
0.36464722232127456,421.9157573646551
0.37896169806447155,390.83575147264247
0.3938380983288488,361.84723376790095
0.4092984818452433,334.824581547529
0.4253657732750382,309.6681444001354
0.44206379720285277,286.26383459305424
0.45941731346364734,264.50047044120095
0.47745205385661277,244.27793165027634
0.4961947603002895,225.50269404071454
0.5156732244854959,208.08103439898906
0.5359163290848509,191.92123283189824
0.556954090580013,176.93801656618322
0.5788177037701272,163.05150306112156
0.6015395880274836,150.18722402945198
0.6251534353689703,138.27768770760582
0.6496942604146115,127.25535590550528
0.6751984523072497,117.06510147088947
0.7017038286703824,107.64963574959235
0.7292496916841444,98.95471630070496
0.7578768863625915,90.93021536944818
0.7876278611187046,83.5281286910049
0.8185467307069019,76.69932621774487
0.850679341636415,70.40266230883176
0.8840733401525058,64.59791334892806
0.9187782428863317,59.25054840827923
0.9548455102782278,54.32845605294652
0.9923286228832539,49.79930499113258
1.0312831606721837,45.63326657139935
1.0717668854455022,41.8026361141221
1.1138398264826193,38.28168929999859
1.1575643695533022,35.04655296823644
1.2030053494233226,32.075087578276836
1.2502301459914542,29.34680095667316
1.299308784200415,26.842710297619806
1.3503140378698726,24.5452214440713
1.4033215376054824,22.4380363893648
1.4584098829439835,20.506066192743063
1.5156607589006013,18.735347186850525
1.575159057091621,17.11295735092234
1.6369930016117014,15.626952608677446
1.7012542798525885,14.2663015386745
1.7680381784572046,13.020820528769809
1.8374437246107238,11.881113059122189
1.9095738328780953,10.838513024783301
1.9845354578058014,9.885031875980935
2.0624397525140905,9.013308559768646
2.143402233514853,8.2165631528092
2.227542951999554,7.488553723175699
2.314986671851158,6.823536106550509
2.405863054644063,6.216222751162062
2.5003068519063225,5.661744913811122
2.598458104929248,5.155629750032332
2.7004623524206774,4.693770733128924
2.806470846309834,4.272398857926513
2.916640776023701,3.8880560356646297
3.031135501567576,3.537572897001084
3.150124795755327,3.218046223979685
3.2737850959485697,2.926813434644377
3.4022997656780634,2.6614331841552015
3.5358593665351745,2.419667801165079
3.6746619407366854,2.19946693148943
3.8189133047818515,1.9989501129755114
3.968827354637162,1.816393815370433
4.1246263829013445,1.6502217056954056
4.286541408420921,1.4989925685614292
4.4548125188449825,1.3613890412653569
4.629689226627261,1.236207340259591
4.811430839003257,1.122348714646912
5.000306842491082,1.01880996315136
5.196597302486189,0.9246745008897329
5.400593278542364,0.8391051028155627
5.612597255954967,0.7613372502892075
5.8329235942862,0.6906729345728388
6.06189899349756,0.6264745263867656
6.29986297838068,0.5681601595174183
6.547168402004727,0.5151993165491676
6.804181968927091,0.4671084027580049
7.071284778942991,0.4234466886592261
7.348872892180382,0.3838125877715823
7.637357916378006,0.34784023157589483
7.937167617217536,0.3151963885360992
8.248746552614573,0.28557762467768083
8.572556731909314,0.25870769311101155
8.909078300934132,0.234335146804416
9.258810253973934,0.2122312263131601
9.622271173675122,0.19218799542268308
9.999999999999984,0.17401625703665394
