k [1/Mpc],P(k) [Mpc^3]
0.0001,596.8257922469816
0.00010392556829367125,620.2454466270312
0.00010800523745162529,644.5833348439764
0.00011224505680853065,669.8753862280465
0.00011665131316981963,696.158931645928
0.00012123054013376525,723.4727324807594
0.00012598952777950273,751.857011830338
0.00013093533273536104,781.3535474587158
0.00013607528864243335,812.0057391878938
0.00014141701702890234,843.8586701634677
0.00014696843861124463,876.9591779805045
0.00015273778503907136,911.355941653319
0.00015873361110102093,947.0995308674766
0.00016496480740980205,984.2424121867897
0.0001714406135851971,1022.8390109400307
0.00017817063195457305,1062.945837368432
0.00018516484179121546,1104.6215448344974
0.000192433614111598,1147.9270254923335
0.00019998772705352857,1192.9255108585696
0.0002078383818579757,1239.6826664859755
0.00021599721947827182,1288.2666633604965
0.0002244763378413224,1338.7481832444857
0.0002332883097864157,1391.200539250497
0.00024244620170823283,1445.6997974302246
0.0002519635929317015,1502.3248238385124
0.0002618545958474233,1561.1574395400028
0.0002721338768375308,1622.2825016586578
0.0002828166780230032,1685.788008557084
0.0002939188398646886,1751.7652196447116
0.0003054568246515432,1820.3086500088539
0.00031744774091091926,1891.5162664347329
0.00032990936877709396,1965.4895381620154
0.00034286018635565856,2042.3334690278323
0.00035631939712285854,2122.156868324238
0.000370306958400514,2205.0724726889216
0.00038484361094874304,2291.197086811905
0.0003999509097203664,2380.6515852320053
0.00041565125582259895,2473.5607590701784
0.00043196792973341727,2570.0537323046788
0.0004489251258218605,2670.2640115230224
0.0004665479882234472,2774.329612247774
0.000484862648123908,2882.3932447602842
0.000503896262506515,2994.602123035032
0.0005236770544204653,3111.1083284789056
0.0005442343548300266,3232.068886500894
0.0005655986461065005,3357.6457809457006
0.0005878016072274912,3488.0062475672125
0.0006108761607505036,3623.32236795812
0.0006348565216305217,3763.7714055317906
0.0006597782479539537,3909.536087602182
0.0006856782936641739,4060.8044824711324
0.0007125950633568407,4217.770355353737
0.0007405684692262436,4380.632703219297
0.0007696399902471156,4549.595841514826
0.0007998527336796708,4724.869820689864
0.000831251498989063,4906.6697870554535
0.0008638828442740447,5095.216583949234
0.000897795155303332,5290.736463899089
0.0009330387172620361,5493.46076559977
0.0009696657893145519,5703.626509234182
0.001007730682094461,5921.475153136026
0.0010472898382363582,6147.25312672766
0.0010884019160690055,6381.2117828196315
0.0011311278765939214,6623.606205618371
0.001175531073878369,6874.696278257242
0.0012216773489967915,7134.7446994198
0.0012696351276599736,7404.016869365874
0.0013194755216767058,7682.781815009122
0.0013712724343984,7971.31016952637
0.0014251026703029975,8269.875244570085
0.0014810460488806749,8578.750876775874
0.0015391855229902056,8898.209714943141
0.001599607301861487,9228.525320303675
0.0016624009789266115,9569.969822891968
0.0017276596646690358,9922.814329194834
0.0017954801246878305,10287.327281656519
0.0018659629231817451,10663.770642481444
0.001939212572065829,11052.402583158308
0.0020153376859417325,11453.473575897304
0.002094451143151469,11867.225769768496
0.002176670253153458,12293.893858789315
0.002262116930469025,12733.700961793636
0.002350917875457286,13186.8599272535
0.002443204762186487,13653.568764902335
0.0025391144336803463,14134.007303769498
0.002638789104828933,14628.340049510778
0.002742376573264949,15136.710733046204
0.0028500304385181063,15659.242906816717
0.0029619103297725525,16196.036856526316
0.0030781821425650787,16747.163041439664
0.003199018284775064,17312.665872361362
0.0033245979322709396,17892.5560797092
0.003455107294592217,18486.80962801526
0.0035907398910610534,19095.36823026189
0.0037316968377327513,19718.1302514702
0.0038781871456107214,20354.954386042566
0.0040304280305680515,21005.651716957887
0.00418864523543527,21669.980436396625
0.004353073364731888,22347.649627030234
0.00452395623253805,23038.301583723034
0.004701547224022131,23741.517990619024
0.004886109671160325,24456.82007669624
0.005077917243205399,25183.66059647735
0.005277254352483535,25921.425676004197
0.005484416576121017,26669.382136818967
0.005699711094326071,27426.684559850706
0.005923457145875801,28192.440515121667
0.006155986501483508,28965.798947234838
0.006397643955748424,29745.86316551773
0.0066487878384172625,30531.40145048431
0.0069097905457156435,31320.762886707318
0.007181039092537346,32112.20550287621
0.007462935686310132,32904.21603417393
0.007755898323389004,33695.33576095924
0.00806036140886134,34483.835347482935
0.008376776400682916,35267.49753959501
0.008705612479099857,36043.95478685851
0.009047357242349292,36810.93462095472
0.00940251742967013,37566.2171335622
0.009771619672696168,38307.39727152646
0.010155211276345676,39031.60270803466
0.010553861030365234,39735.776128857055
0.010968160052731372,40416.63224701052
0.011398722666160517,41070.64473237386
0.011846187309026826,41694.18229408864
0.012311217482038896,42283.43007544246
0.012794502732078732,42834.48302105636
0.013296759674662111,43343.24086888698
0.013818733056536317,43805.27240423677
0.014361196859990781,44216.10904483581
0.014924955450518284,44571.02445241877
0.015510844769528393,44865.18546578221
0.016119733573881575,45093.762427836555
0.01675252472408214,45251.671130784045
0.017410156523040152,45333.98384706824
0.018093604107387147,45335.73670850964
0.01880388089340914,45251.9857738165
0.019542040079740527,45078.169311955724
0.02030917620904734,44809.74710819993
0.021106426791015535,44442.67880875835
0.021934973989050584,43973.44030837919
0.02279604637318978,43398.91813062159
0.023690920741826323,42716.968117800556
0.02462092401494623,41926.185154366365
0.02558743520168586,41026.20291562233
0.02659188744512693,40017.98109232002
0.027635770147361564,38903.74240321592
0.028720631177978267,37687.21778692281
0.029848079169243254,36373.885379787665
0.03101978590138095,34970.91335870988
0.03223748878149028,33487.111776880585
0.0335029934197723,31933.71155289147
0.03481817630688963,30323.2108724485
0.03618498759642746,28669.867362623532
0.037605453996581675,26989.87533061126
0.03908168177536263,25299.44920204286
0.04061585988376978,23617.929914628803
0.04221026320156896,21964.544284182888
0.04386725591048496,20356.72439225291
0.0455892949998106,18811.771448505326
0.047378933909631396,17343.6463286877
0.049238826317067365,15969.026251923307
0.05117173007114603,14704.832059140748
0.05318051128214196,13562.361882111509
0.05526814857144601,12550.130048700394
0.057437737488265785,11672.267846940125
0.0596924950997073,10928.173081559447
0.0620357647610427,10314.965438523779
0.06447102107323864,9825.99826372467
0.06700187503509585,9453.626699395874
0.06963207939763882,9187.898455165538
0.0723655342286965,9017.29578893928
0.07520629269592405,8922.992319889454
0.07815856707684081,8881.1687094941
0.08122673500479707,8860.908186463826
0.08441534596012978,8827.468707533488
0.0877291280161335,8744.894376127997
0.09117299484984914,8579.930871200839
0.09475205302806537,8307.046674299658
0.09847160957933764,7911.674603869109
0.1023371798632519,7393.238592247885
0.10635449574860109,6766.369357691558
0.11052951411260206,6062.866646060469
0.1148684256737553,5329.105699097935
0.1193776641714435,4619.783680557702
0.1240639159058831,3987.9855289527395
0.12893412965257148,3473.165815743211
0.13399552696593373,3095.862902153114
0.1392556128874462,2858.976394064288
0.14472218707411338,2751.442076415267
0.15040335536380234,2749.805289801734
0.15630754179458153,2816.6447408654267
0.16244350109588662,2899.3813339613243
0.16882033167003618,2935.1490311888283
0.17544748908334581,2866.2348227153534
0.1823348000868439,2665.0682000930783
0.189492477187382,2353.554475567744
0.19693113379074215,1995.2355585858636
0.20466179993919872,1664.219154697351
0.21269593866686892,1418.5156327463883
0.22104546299710207,1286.2926122753224
0.22972275360711503,1260.01533485976
0.23874067718606454,1300.014267738351
0.2481126055137766,1344.3017433770688
0.25785243528842716,1325.717755064084
0.26797460873256895,1210.7149119848345
0.27849413500806414,1030.0550444095516
0.28942661247167484,854.629900843375
0.3007882518043098,743.2224233814588
0.31259590004822796,710.1566757006924
0.324867065587837,725.461590170922
0.3376199441111335,730.544279111423
0.35087344559027084,678.9035246218743
0.36464722232127456,581.5347321738717
0.37896169806447155,492.982064359086
0.3938380983288488,451.5932483414386
0.4092984818452433,448.3024842255396
0.4253657732750382,440.42318625975975
0.44206379720285277,398.56461544484785
0.45941731346364734,342.62363323900917
0.47745205385661277,308.6135761401042
0.4961947603002895,298.9890777520169
0.5156732244854959,285.5404358449526
0.5359163290848509,254.49737531788023
0.556954090580013,225.5736007531963
0.5788177037701272,212.2233030135529
0.6015395880274836,200.66595078409958
0.6251534353689703,180.45062109369752
0.6496942604146115,162.94206060974386
0.6751984523072497,152.84729504288924
0.7017038286703824,140.6758404412398
0.7292496916841444,126.72463591054999
0.7578768863625915,115.24539756874356
0.7876278611187046,105.82219245646142
0.8185467307069019,97.70174721019166
0.850679341636415,90.31961967614812
0.8840733401525058,83.26345604694815
0.9187782428863317,76.435531982338
0.9548455102782278,69.94135290567576
0.9923286228832539,63.861586760141314
1.0312831606721837,58.24804920046121
1.0717668854455022,53.128570529469854
1.1138398264826193,48.50216532601739
1.1575643695533022,44.31567715397473
1.2030053494233226,40.51145235683887
1.2502301459914542,37.04104948780362
1.299308784200415,33.86372160300628
1.3503140378698726,30.945287383177728
1.4033215376054824,28.261635006550588
1.4584098829439835,25.797444221259383
1.5156607589006013,23.538222318408888
1.575159057091621,21.469857500452996
1.6369930016117014,19.57871255326602
1.7012542798525885,17.85151950957573
1.7680381784572046,16.27448299224942
1.8374437246107238,14.83442987679083
1.9095738328780953,13.519380612707895
1.9845354578058014,12.318437780051784
2.0624397525140905,11.221683934312276
2.143402233514853,10.220183766844867
2.227542951999554,9.305951842828184
2.314986671851158,8.471660034241085
2.405863054644063,7.710562458654735
2.5003068519063225,7.016452998685896
2.598458104929248,6.383623101370657
2.7004623524206774,5.806800805735948
2.806470846309834,5.281135941250189
2.916640776023701,4.802187594415825
3.031135501567576,4.3658909248626845
3.150124795755327,3.968526229085278
3.2737850959485697,3.60669115065443
3.4022997656780634,3.2772755410757757
3.5358593665351745,2.977435029529347
3.6746619407366854,2.7045685624570703
3.8189133047818515,2.456298221558791
3.968827354637162,2.230450659559644
4.1246263829013445,2.02504014828763
4.286541408420921,1.8382528084242111
4.4548125188449825,1.6684320146223834
4.629689226627261,1.51406514255613
4.811430839003257,1.3737714000433825
5.000306842491082,1.2462905650432914
5.196597302486189,1.13047244817742
5.400593278542364,1.025267897883103
5.612597255954967,0.9297202762992932
5.8329235942862,0.8429574931934279
6.06189899349756,0.76418470478192
6.29986297838068,0.6926775474353359
6.547168402004727,0.627776015142147
6.804181968927091,0.5688789901701888
7.071284778942991,0.5154391072768235
7.348872892180382,0.46695804470249697
7.637357916378006,0.4229822083536872
7.937167617217536,0.38309873781168097
8.248746552614573,0.3469319723144445
8.572556731909314,0.31414019773075036
8.909078300934132,0.2844126341577286
9.258810253973934,0.2574666855563004
9.622271173675122,0.2330455295773012
9.999999999999984,0.2109158940754886
