k [1/Mpc],P(k) [Mpc^3]
0.0001,630.9632167255056
0.00010392556829367125,659.4292193318893
0.00010800523745162529,689.1711592429021
0.00011224505680853065,720.2452124804137
0.00011665131316981963,752.7098902813233
0.00012123054013376525,786.6260324866453
0.00012598952777950273,822.0570084989877
0.00013093533273536104,859.0687967493009
0.00013607528864243335,897.730087742161
0.00014141701702890234,938.1123647697077
0.00014696843861124463,980.2898340567559
0.00015273778503907136,1024.3396579362836
0.00015873361110102093,1070.341983081756
0.00016496480740980205,1118.3799872970521
0.0001714406135851971,1168.5400976950348
0.00017817063195457305,1220.9119364646965
0.00018516484179121546,1275.5885111610087
0.000192433614111598,1332.66616982004
0.00019998772705352857,1392.2444165738093
0.0002078383818579757,1454.4263482114618
0.00021599721947827182,1519.3186040658632
0.0002244763378413224,1587.0314949915403
0.0002332883097864157,1657.6790345501877
0.00024244620170823283,1731.3785181625883
0.0002519635929317015,1808.251014038027
0.0002618545958474233,1888.4211724788117
0.0002721338768375308,1972.017178011916
0.0002828166780230032,2059.1710295663715
0.0002939188398646886,2150.017909482023
0.0003054568246515432,2244.696595571654
0.00031744774091091926,2343.3493956040465
0.00032990936877709396,2446.121828289546
0.00034286018635565856,2553.1629560162505
0.00035631939712285854,2664.624369085063
0.000370306958400514,2780.660400440134
0.00038484361094874304,2901.4284133863457
0.0003999509097203664,3027.0882871235913
0.00041565125582259895,3157.8026356890095
0.00043196792973341727,3293.735684130874
0.0004489251258218605,3435.0529579239073
0.0004665479882234472,3581.9217093823413
0.000484862648123908,3734.5097738966856
0.000503896262506515,3892.985877901512
0.0005236770544204653,4057.5186942420637
0.0005442343548300266,4228.275846296617
0.0005655986461065005,4405.424347836618
0.0005878016072274912,4589.128246077535
0.0006108761607505036,4779.548868503626
0.0006348565216305217,4976.844014361238
0.0006597782479539537,5181.165363759536
0.0006856782936641739,5392.659725072825
0.0007125950633568407,5611.4656269641055
0.0007405684692262436,5837.712606729205
0.0007696399902471156,6071.521414820868
0.0007998527336796708,6312.999479118382
0.000831251498989063,6562.242546110201
0.0008638828442740447,6819.331637565157
0.000897795155303332,7084.330533227145
0.0009330387172620361,7357.2873556999275
0.0009696657893145519,7638.231484651546
0.001007730682094461,7927.173204931703
0.0010472898382363582,8224.10090910833
0.0010884019160690055,8528.976868032181
0.0011311278765939214,8841.738929706753
0.001175531073878369,9162.294605519091
0.0012216773489967915,9490.520445355296
0.0012696351276599736,9826.265972084344
0.0013194755216767058,10169.358192383088
0.0013712724343984,10519.59495352636
0.0014251026703029975,10876.739635356835
0.0014810460488806749,11240.519264778151
0.0015391855229902056,11610.622273379293
0.001599607301861487,11986.680579138461
0.0016624009789266115,12368.278782171601
0.0017276596646690358,12754.968139437678
0.0017954801246878305,13146.273459909562
0.0018659629231817451,13541.68005026118
0.001939212572065829,13940.628641294446
0.0020153376859417325,14342.516172255617
0.002094451143151469,14746.697656850909
0.002176670253153458,15152.486521817598
0.002262116930469025,15559.155003340149
0.002350917875457286,15965.937326572523
0.002443204762186487,16372.030768759423
0.0025391144336803463,16776.59369701343
0.002638789104828933,17178.7429490018
0.002742376573264949,17577.558632227352
0.0028500304385181063,17972.086098879816
0.0029619103297725525,18361.3375083621
0.0030781821425650787,18744.29637673076
0.003199018284775064,19119.91944311116
0.0033245979322709396,19487.14053700864
0.003455107294592217,19844.794313196
0.0035907398910610534,20191.50089397039
0.0037316968377327513,20525.852605831536
0.0038781871456107214,20846.867795307066
0.0040304280305680515,21153.934350209125
0.00418864523543527,21446.152823087796
0.004353073364731888,21721.307134633524
0.00452395623253805,21976.826216096073
0.004701547224022131,22210.743659578144
0.004886109671160325,22421.909522743415
0.005077917243205399,22609.259701696014
0.005277254352483535,22771.663809175046
0.005484416576121017,22908.00274668006
0.005699711094326071,23016.973806586077
0.005923457145875801,23096.836122228837
0.006155986501483508,23145.857692189864
0.006397643955748424,23162.19577192973
0.0066487878384172625,23143.989957128626
0.0069097905457156435,23089.46656337537
0.007181039092537346,22996.818404769343
0.007462935686310132,22864.399405116463
0.007755898323389004,22690.561721740178
0.00806036140886134,22473.681558024156
0.008376776400682916,22212.294068551946
0.008705612479099857,21904.41142800976
0.009047357242349292,21548.208548704104
0.00940251742967013,21142.166069320352
0.009771619672696168,20684.982327690497
0.010155211276345676,20175.904375939757
0.010553861030365234,19613.642167749775
0.010968160052731372,18997.176322277526
0.011398722666160517,18326.281849283463
0.011846187309026826,17601.02176023232
0.012311217482038896,16822.67366515898
0.012794502732078732,15991.292741509516
0.013296759674662111,15106.72407453815
0.013818733056536317,14172.11842958911
0.014361196859990781,13195.604087416368
0.014924955450518284,12187.588565026166
0.015510844769528393,11147.421299331992
0.016119733573881575,10063.794054053375
0.01675252472408214,8941.830018181443
0.017410156523040152,7832.005792465734
0.018093604107387147,6788.064191236801
0.01880388089340914,5788.248875499354
0.019542040079740527,4720.916272364897
0.02030917620904734,3582.4574776324826
0.021106426791015535,2608.162574378592
0.021934973989050584,1966.3037777774096
0.02279604637318978,1522.274108404919
0.023690920741826323,855.4971794799986
0.02462092401494623,231.62640225312273
0.02558743520168586,40.88793074194893
0.02659188744512693,15.429780140705166
0.027635770147361564,33.767555965486835
0.028720631177978267,223.3637124070056
0.029848079169243254,1182.749943159284
0.03101978590138095,2382.247340515372
0.03223748878149028,2790.1822063783607
0.0335029934197723,3230.9534174665996
0.03481817630688963,4245.036420753967
0.03618498759642746,5581.84605540049
0.037605453996581675,6676.658684659723
0.03908168177536263,7408.4777563910175
0.04061585988376978,7947.670672353123
0.04221026320156896,8336.032976960962
0.04386725591048496,8441.771407802893
0.0455892949998106,8191.020393776081
0.047378933909631396,7622.702537362508
0.049238826317067365,6781.00737027591
0.05117173007114603,5691.09177227868
0.05318051128214196,4477.052673903388
0.05526814857144601,3310.390452489461
0.057437737488265785,2176.4769888969977
0.0596924950997073,1180.6715741782514
0.0620357647610427,602.0596144552869
0.06447102107323864,179.5169836692182
0.06700187503509585,11.730410647046117
0.06963207939763882,9.213728029857577
0.0723655342286965,135.48585039099063
0.07520629269592405,230.64991002524476
0.07815856707684081,207.32739444965986
0.08122673500479707,165.8099427049656
0.08441534596012978,58.21370928853582
0.0877291280161335,8.59843903334989
0.09117299484984914,24.09199412311048
0.09475205302806537,292.9096501589094
0.09847160957933764,509.9974935805751
0.1023371798632519,773.4581639738223
0.10635449574860109,901.5418661133174
0.11052951411260206,804.0397529043942
0.1148684256737553,599.7341968790465
0.1193776641714435,245.8503756729662
0.1240639159058831,121.52161230421889
0.12893412965257148,0.1644027502277003
0.13399552696593373,22.476479723126314
0.1392556128874462,40.0727766367572
0.14472218707411338,31.868395821443908
0.15040335536380234,1.034666570657859
0.15630754179458153,35.60395979474138
0.16244350109588662,124.06336332853408
0.16882033167003618,214.68996808479162
0.17544748908334581,194.08799507199532
0.1823348000868439,99.50209139390621
0.189492477187382,22.627356973911542
0.19693113379074215,0.1388571764202028
0.20466179993919872,5.049729274188245
0.21269593866686892,0.00037275272052934106
0.22104546299710207,37.191793645013604
0.22972275360711503,54.09757454902611
0.23874067718606454,64.21982233088099
0.2481126055137766,33.00620985149182
0.25785243528842716,4.4556855298574325
0.26797460873256895,0.030207564277828104
0.27849413500806414,0.06156345699576727
0.28942661247167484,8.322271442158216
0.3007882518043098,21.70544947653744
0.31259590004822796,15.721151482783169
0.324867065587837,3.270795095218317
0.3376199441111335,0.3953416226388438
0.35087344559027084,2.160131571799935
0.36464722232127456,7.83666856942541
0.37896169806447155,7.219554670860308
0.3938380983288488,2.1397651365271573
0.4092984818452433,0.9958372866788354
0.4253657732750382,2.814749614022167
0.44206379720285277,4.005366092850021
0.45941731346364734,1.9042443095078674
0.47745205385661277,1.16464036490889
0.4961947603002895,1.8820355015630759
0.5156732244854959,1.9847536319215546
0.5359163290848509,1.1950251097515756
0.556954090580013,0.7951358570908762
0.5788177037701272,0.6464311126171458
0.6015395880274836,0.6093850546574694
0.6251534353689703,0.6303206379475387
0.6496942604146115,0.6769287814020905
0.6751984523072497,0.7142458108903925
0.7017038286703824,0.7091294306665351
0.7292496916841444,0.6653234151485021
0.7578768863625915,0.5993664789548224
0.7876278611187046,0.5267775897900573
0.8185467307069019,0.45894451536466185
0.850679341636415,0.4026627557346352
0.8840733401525058,0.3586092241313099
0.9187782428863317,0.3231952751579303
0.9548455102782278,0.29361424636683625
0.9923286228832539,0.26783223226863495
1.0312831606721837,0.24435834555678865
1.0717668854455022,0.22218604484955876
1.1138398264826193,0.2012243554299617
1.1575643695533022,0.1817057088917682
1.2030053494233226,0.16377127577714617
1.2502301459914542,0.14748399607813417
1.299308784200415,0.13284549991756434
1.3503140378698726,0.11977729871245418
1.4033215376054824,0.10808921312149422
1.4584098829439835,0.0976011055872047
1.5156607589006013,0.08816090253687563
1.575159057091621,0.07963987937123179
1.6369930016117014,0.07192919120356267
1.7012542798525885,0.06494599146872293
1.7680381784572046,0.05862696729646532
1.8374437246107238,0.052913865002345635
1.9095738328780953,0.04775266261619224
1.9845354578058014,0.04309340635698117
2.0624397525140905,0.038889735978009016
2.143402233514853,0.035097300442491326
2.227542951999554,0.03167534392746846
2.314986671851158,0.028587238159949544
2.405863054644063,0.025800054498039328
2.5003068519063225,0.023284179782532145
2.598458104929248,0.02101304601039598
2.7004623524206774,0.018962873829289045
2.806470846309834,0.017112213565473842
2.916640776023701,0.015441693789123734
3.031135501567576,0.013933820270718884
3.150124795755327,0.012572795477218771
3.2737850959485697,0.011344371141937702
3.4022997656780634,0.01023568911206166
3.5358593665351745,0.00923512987263075
3.6746619407366854,0.00833219382708887
3.8189133047818515,0.007517394347395531
3.968827354637162,0.006782156011012477
4.1246263829013445,0.006118711059338299
4.286541408420921,0.005520044530933703
4.4548125188449825,0.004979828922370723
4.629689226627261,0.004492356471404944
4.811430839003257,0.004052478214407667
5.000306842491082,0.003655553696159656
5.196597302486189,0.0032974024754533196
5.400593278542364,0.0029742500743247646
5.612597255954967,0.0026826878863617206
5.8329235942862,0.0024196378927101793
6.06189899349756,0.002182320629820618
6.29986297838068,0.001968225053568409
6.547168402004727,0.0017750836023994493
6.804181968927091,0.0016008497254688652
7.071284778942991,0.001443676393038211
7.348872892180382,0.0013018966744839605
7.637357916378006,0.0011740058883077838
7.937167617217536,0.0010586451071961341
8.248746552614573,0.000954588137716128
8.572556731909314,0.000860728826501439
8.909078300934132,0.0007760692864227229
9.258810253973934,0.0006997092936221786
9.622271173675122,0.0006308371977710207
9.999999999999984,0.0005687212234115682
