k [1/Mpc],P(k) [Mpc^3]
0.0001,48.7749926766504
0.00010392556829367125,50.83553458479108
0.00010800523745162529,52.983063268760624
0.00011224505680853065,55.221244749605624
0.00011665131316981963,57.55389915798672
0.00012123054013376525,59.985005079144166
0.00012598952777950273,62.51870414005809
0.00013093533273536104,65.15931080787438
0.00013607528864243335,67.91132020205012
0.00014141701702890234,70.77941550844804
0.00014696843861124463,73.7684763308276
0.00015273778503907136,76.88358850234309
0.00015873361110102093,80.13005085366234
0.00016496480740980205,83.51337842250975
0.0001714406135851971,87.03931043262656
0.00017817063195457305,90.71382387063198
0.00018516484179121546,94.54314145809495
0.000192433614111598,98.53374295030287
0.00019998772705352857,102.69237702486959
0.0002078383818579757,107.02607283811447
0.00021599721947827182,111.54214973584885
0.0002244763378413224,116.24822136489341
0.0002332883097864157,121.152209857575
0.00024244620170823283,126.2623603174543
0.0002519635929317015,131.58724899363796
0.0002618545958474233,137.13580104199184
0.0002721338768375308,142.91730204143272
0.0002828166780230032,148.9414118021156
0.0002939188398646886,155.21817966831946
0.0003054568246515432,161.75804892057258
0.00031744774091091926,168.57187915750958
0.00032990936877709396,175.67095603797605
0.00034286018635565856,183.06699947629872
0.00035631939712285854,190.7721933906304
0.000370306958400514,198.79920248803552
0.00038484361094874304,207.16119098926828
0.0003999509097203664,215.8718290276889
0.00041565125582259895,224.94528500093924
0.00043196792973341727,234.39626967631983
0.0004489251258218605,244.2400474806098
0.0004665479882234472,254.4924549484499
0.000484862648123908,265.16992490173055
0.000503896262506515,276.28947621101105
0.0005236770544204653,287.8687546474558
0.0005442343548300266,299.9260477291949
0.0005655986461065005,312.4802939717393
0.0005878016072274912,325.5511182705134
0.0006108761607505036,339.1588023436973
0.0006348565216305217,353.324324244961
0.0006597782479539537,368.0693934137309
0.0006856782936641739,383.41644801664455
0.0007125950633568407,399.3886975028065
0.0007405684692262436,416.0100878410786
0.0007696399902471156,433.30531862917496
0.0007998527336796708,451.2998919190975
0.000831251498989063,470.0200606817812
0.0008638828442740447,489.4928954431994
0.000897795155303332,509.7462663416224
0.0009330387172620361,530.8088213829853
0.0009696657893145519,552.7100532231854
0.001007730682094461,575.4801883337794
0.0010472898382363582,599.1502472786003
0.0010884019160690055,623.7520492013235
0.0011311278765939214,649.3181041290841
0.001175531073878369,675.8817254649693
0.0012216773489967915,703.4768435446354
0.0012696351276599736,732.138000725538
0.0013194755216767058,761.9004493712804
0.0013712724343984,792.7999585283644
0.0014251026703029975,824.8729256444776
0.0014810460488806749,858.156167500303
0.0015391855229902056,892.6867516601183
0.001599607301861487,928.5022086046946
0.0016624009789266115,965.6402991268898
0.0017276596646690358,1004.1390560653442
0.0017954801246878305,1044.0366188889723
0.0018659629231817451,1085.3708439484803
0.001939212572065829,1128.1795720433572
0.0020153376859417325,1172.5002252334862
0.002094451143151469,1218.369733903057
0.002176670253153458,1265.8246162448352
0.002262116930469025,1314.9005441112365
0.002350917875457286,1365.6324632086196
0.002443204762186487,1418.0541055114752
0.0025391144336803463,1472.1976210656383
0.002638789104828933,1528.0938511558625
0.002742376573264949,1585.7717359805104
0.0028500304385181063,1645.2583476269301
0.0029619103297725525,1706.5785356329325
0.0030781821425650787,1769.7541998001416
0.003199018284775064,1834.8046462716684
0.0033245979322709396,1901.7457374443215
0.003455107294592217,1970.5897252763916
0.0035907398910610534,2041.3452531690405
0.0037316968377327513,2114.016327953491
0.0038781871456107214,2188.6026479545403
0.0040304280305680515,2265.098684513057
0.00418864523543527,2343.4930359308923
0.004353073364731888,2423.768753555439
0.00452395623253805,2505.9013400718086
0.004701547224022131,2589.8593160300366
0.004886109671160325,2675.6041383771726
0.005077917243205399,2763.0892215142203
0.005277254352483535,2852.2600277581564
0.005484416576121017,2943.0481436929545
0.005699711094326071,3035.371866253175
0.005923457145875801,3129.1432566470826
0.006155986501483508,3224.277895859076
0.006397643955748424,3320.685229879292
0.0066487878384172625,3418.236088434337
0.0069097905457156435,3516.752684021992
0.007181039092537346,3616.0448706990987
0.007462935686310132,3715.946091964343
0.007755898323389004,3816.2940126633953
0.00806036140886134,3916.8936602249187
0.008376776400682916,4017.492212447859
0.008705612479099857,4117.81674877322
0.009047357242349292,4217.602094990043
0.00940251742967013,4316.586071991329
0.009771619672696168,4414.482168443694
0.010155211276345676,4510.946604610135
0.010553861030365234,4605.610246611651
0.010968160052731372,4698.073271596408
0.011398722666160517,4787.903230756862
0.011846187309026826,4874.65052051839
0.012311217482038896,4957.838953435079
0.012794502732078732,5036.976389917738
0.013296759674662111,5111.542162842959
0.013818733056536317,5180.970650258658
0.014361196859990781,5244.685491409458
0.014924955450518284,5302.073260694112
0.015510844769528393,5352.50098523776
0.016119733573881575,5395.329112426271
0.01675252472408214,5429.880501397797
0.017410156523040152,5455.489394743777
0.018093604107387147,5471.47839087305
0.01880388089340914,5477.165115546102
0.019542040079740527,5471.906180963738
0.02030917620904734,5455.053894055201
0.021106426791015535,5426.014646720783
0.021934973989050584,5384.251755984172
0.02279604637318978,5329.2733641601435
0.023690920741826323,5260.701933052028
0.02462092401494623,5178.247493941444
0.02558743520168586,5081.746070886431
0.02659188744512693,4971.197203795074
0.027635770147361564,4846.758476085499
0.028720631177978267,4708.778431854598
0.029848079169243254,4557.829265776452
0.03101978590138095,4394.702841860151
0.03223748878149028,4220.40774863383
0.0335029934197723,4036.2708242537597
0.03481817630688963,3843.7954401168477
0.03618498759642746,3644.7265087877045
0.037605453996581675,3441.0764457338355
0.03908168177536263,3234.883830697113
0.04061585988376978,3028.611960202467
0.04221026320156896,2824.7380575495845
0.04386725591048496,2625.5365083365946
0.0455892949998106,2433.290939822415
0.047378933909631396,2249.877822466929
0.049238826317067365,2077.5483579708093
0.05117173007114603,1918.6111147197457
0.05318051128214196,1774.6650488515988
0.05526814857144601,1646.9616041664954
0.057437737488265785,1536.1890809079118
0.0596924950997073,1442.4181363229382
0.0620357647610427,1365.417822615643
0.06447102107323864,1304.4536546083575
0.06700187503509585,1258.6488996243281
0.06963207939763882,1226.8077721997029
0.0723655342286965,1207.5102567685874
0.07520629269592405,1198.337671946404
0.07815856707684081,1196.1702419440553
0.08122673500479707,1196.8929006421715
0.08441534596012978,1195.8244304064951
0.0877291280161335,1188.064403603058
0.09117299484984914,1169.0238859861374
0.09475205302806537,1135.1164759952258
0.09847160957933764,1084.2174042108406
0.1023371798632519,1016.1009557063431
0.10635449574860109,932.635665719378
0.11052951411260206,838.0858634033489
0.1148684256737553,738.7866074802538
0.1193776641714435,642.3038138940144
0.1240639159058831,556.0663499161186
0.12893412965257148,485.68281776060593
0.13399552696593373,434.1733097803319
0.1392556128874462,402.11118393717805
0.14472218707411338,388.105804304657
0.15040335536380234,388.9966731704779
0.15630754179458153,399.6043416791131
0.16244350109588662,412.53200147158816
0.16882033167003618,418.82890186710654
0.17544748908334581,410.1780673795822
0.1823348000868439,382.49272059746187
0.189492477187382,338.760903597076
0.19693113379074215,288.01651049920986
0.20466179993919872,240.9283493279363
0.21269593866686892,205.9518491967505
0.22104546299710207,187.29471609485012
0.22972275360711503,183.9991265173959
0.23874067718606454,190.3891653655467
0.2481126055137766,197.4445059756038
0.25785243528842716,195.27810194467042
0.26797460873256895,178.85395352451428
0.27849413500806414,152.60587977979773
0.28942661247167484,126.98227325873023
0.3007882518043098,110.7485372719976
0.31259590004822796,106.12740604447524
0.324867065587837,108.72814523294745
0.3376199441111335,109.80655862387336
0.35087344559027084,102.33966255862254
0.36464722232127456,87.915561855857
0.37896169806447155,74.74383851948309
0.3938380983288488,68.66665618415331
0.4092984818452433,68.36342066413832
0.4253657732750382,67.35610957764104
0.44206379720285277,61.13075228322829
0.45941731346364734,52.702655411254305
0.47745205385661277,47.6084880280306
0.4961947603002895,46.257149446677516
0.5156732244854959,44.30424513712317
0.5359163290848509,39.60182603282834
0.556954090580013,35.202568851947724
0.5788177037701272,33.21492947524136
0.6015395880274836,31.496923301102274
0.6251534353689703,28.405798859670675
0.6496942604146115,25.72385252591299
0.6751984523072497,24.19996539041921
0.7017038286703824,22.33730049043451
0.7292496916841444,20.180243435213896
0.7578768863625915,18.405309284571995
0.7876278611187046,16.94924920015831
0.8185467307069019,15.693876144007353
0.850679341636415,14.550039464839683
0.8840733401525058,13.45211852161295
0.9187782428863317,12.384706671249385
0.9548455102782278,11.365240799765377
0.9923286228832539,10.407310185525734
1.0312831606721837,9.519943239468045
1.0717668854455022,8.708338172332608
1.1138398264826193,7.973012830325645
1.1575643695533022,7.305886243720118
1.2030053494233226,6.698036497657561
1.2502301459914542,6.1419624960369905
1.299308784200415,5.631352883362187
1.3503140378698726,5.160915621285486
1.4033215376054824,4.726979318830435
1.4584098829439835,4.327302759487844
1.5156607589006013,3.9597561372094265
1.575159057091621,3.62224751123489
1.6369930016117014,3.3127393896193906
1.7012542798525885,3.0292318248449885
1.7680381784572046,2.76961054043906
1.8374437246107238,2.5318416686601695
1.9095738328780953,2.3140708877790295
1.9845354578058014,2.1146070637272385
2.0624397525140905,1.9319071834266537
2.143402233514853,1.7645790160183328
2.227542951999554,1.6113778404033035
2.314986671851158,1.4711578926932858
2.405863054644063,1.342860832481023
2.5003068519063225,1.2255096865543111
2.598458104929248,1.1182027250158955
2.7004623524206774,1.0201039226891215
2.806470846309834,0.9304413795632726
2.916640776023701,0.8485061059007147
3.031135501567576,0.7736471184812164
3.150124795755327,0.7052668429197423
3.2737850959485697,0.6428169893680772
3.4022997656780634,0.5857948234155765
3.5358593665351745,0.5337391343543778
3.6746619407366854,0.4862268411963066
3.8189133047818515,0.44286994513424194
3.968827354637162,0.40331271663678203
4.1246263829013445,0.3672291215045342
4.286541408420921,0.3343204129310706
4.4548125188449825,0.30431289225946706
4.629689226627261,0.2769558727667027
4.811430839003257,0.25201980369898336
5.000306842491082,0.22929452558034766
5.196597302486189,0.20858762615560048
5.400593278542364,0.18972305071851592
5.612597255954967,0.17253977335511583
5.8329235942862,0.15689054684462764
6.06189899349756,0.14264075300303014
6.29986297838068,0.12966733139798436
6.547168402004727,0.11785780867554539
6.804181968927091,0.10710943251189813
7.071284778942991,0.09732835213070723
7.348872892180382,0.08842886414620679
7.637357916378006,0.08033271882677509
7.937167617217536,0.07296847454985948
8.248746552614573,0.06627092794171158
8.572556731909314,0.06018058706623517
8.909078300934132,0.054643180884572734
9.258810253973934,0.04960920994387491
9.622271173675122,0.04503355432325577
9.999999999999984,0.04087511033098702
