k [1/Mpc],P(k) [Mpc^3]
0.0001,7823.430760532779
0.00010392556829367125,8082.481077915349
0.00010800523745162529,8350.008384270905
0.00011224505680853065,8626.279036809452
0.00011665131316981963,8911.566204199362
0.00012123054013376525,9206.149464713702
0.00012598952777950273,9510.315978627195
0.00013093533273536104,9824.359950343653
0.00013607528864243335,10148.583131483969
0.00014141701702890234,10483.294487214658
0.00014696843861124463,10828.809026206149
0.00015273778503907136,11185.449383467392
0.00015873361110102093,11553.544873166007
0.00016496480740980205,11933.431742631221
0.0001714406135851971,12325.453234556704
0.00017817063195457305,12729.956840415636
0.00018516484179121546,13147.296647615349
0.000192433614111598,13577.832110565352
0.00019998772705352857,14021.927394324577
0.0002078383818579757,14479.952740857392
0.00021599721947827182,14952.28115609864
0.0002244763378413224,15439.290203916857
0.0002332883097864157,15941.360330268593
0.00024244620170823283,16458.871910076807
0.0002519635929317015,16992.208613469647
0.0002618545958474233,17541.752927116282
0.0002721338768375308,18107.887175104974
0.0002828166780230032,18690.99357381147
0.0002939188398646886,19291.44930333043
0.0003054568246515432,19909.63017621284
0.00031744774091091926,20545.90551868851
0.00032990936877709396,21200.637150177463
0.00034286018635565856,21874.181517457146
0.00035631939712285854,22566.882653074867
0.000370306958400514,23279.075721201403
0.00038484361094874304,24011.08301186512
0.0003999509097203664,24763.209992121418
0.00041565125582259895,25535.749060162
0.00043196792973341727,26328.971999730205
0.0004489251258218605,27143.131704041672
0.0004665479882234472,27978.45951756321
0.000484862648123908,28835.15777683298
0.000503896262506515,29713.404806026003
0.0005236770544204653,30613.34540712648
0.0005442343548300266,31535.09044752634
0.0005655986461065005,32478.716775107165
0.0005878016072274912,33444.253923188146
0.0006108761607505036,34431.69153418849
0.0006348565216305217,35440.96603055554
0.0006597782479539537,36471.954806507216
0.0006856782936641739,37524.483393182265
0.0007125950633568407,38598.30273669019
0.0007405684692262436,39693.09948355487
0.0007696399902471156,40808.484568693515
0.0007998527336796708,41943.97618337628
0.000831251498989063,43099.01787277371
0.0008638828442740447,44272.95438272319
0.000897795155303332,45465.03741640315
0.0009330387172620361,46674.42655763555
0.0009696657893145519,47900.16868498948
0.001007730682094461,49141.21433980896
0.0010472898382363582,50396.402567172794
0.0010884019160690055,51664.459148874776
0.0011311278765939214,52943.999080939175
0.001175531073878369,54233.49198662079
0.0012216773489967915,55531.28784710133
0.0012696351276599736,56835.64161758609
0.0013194755216767058,58144.719708657496
0.0013712724343984,59456.5911039537
0.0014251026703029975,60769.27870566977
0.0014810460488806749,62080.73232874126
0.0015391855229902056,63388.729450149796
0.001599607301861487,64690.78570554608
0.0016624009789266115,65984.29565129903
0.0017276596646690358,67266.65286792259
0.0017954801246878305,68535.23052473238
0.0018659629231817451,69787.31215116841
0.001939212572065829,71020.0750151009
0.0020153376859417325,72230.61850121865
0.002094451143151469,73415.98403854913
0.002176670253153458,74573.16435636627
0.002262116930469025,75699.11310337551
0.002350917875457286,76790.78550287378
0.002443204762186487,77845.12627908228
0.0025391144336803463,78859.07660786285
0.002638789104828933,79829.59120437945
0.002742376573264949,80753.64392366647
0.0028500304385181063,81628.27823165263
0.0029619103297725525,82450.60190371532
0.0030781821425650787,83217.78689712861
0.003199018284775064,83927.0967046283
0.0033245979322709396,84575.84482734991
0.003455107294592217,85160.83265983994
0.0035907398910610534,85678.45308645755
0.0037316968377327513,86125.78475523791
0.0038781871456107214,86502.49744582309
0.0040304280305680515,86808.98715392016
0.00418864523543527,87042.48603123188
0.004353073364731888,87196.1442715021
0.00452395623253805,87263.61293098448
0.004701547224022131,87242.85772369374
0.004886109671160325,87133.79331164988
0.005077917243205399,86936.43863190839
0.005277254352483535,86650.75282409272
0.005484416576121017,86276.81643609109
0.005699711094326071,85813.63723378965
0.005923457145875801,85259.67142766368
0.006155986501483508,84613.5852257783
0.006397643955748424,83874.01516524135
0.0066487878384172625,83039.9429321768
0.0069097905457156435,82110.80443429368
0.007181039092537346,81086.51219347796
0.007462935686310132,79967.36331488194
0.007755898323389004,78753.6212464451
0.00806036140886134,77445.93773508658
0.008376776400682916,76045.1571114094
0.008705612479099857,74552.16011413863
0.009047357242349292,72968.30414454144
0.00940251742967013,71294.22216704967
0.009771619672696168,69530.71584613438
0.010155211276345676,67679.71272066611
0.010553861030365234,65744.46994375314
0.010968160052731372,63729.10160033113
0.011398722666160517,61636.72681633508
0.011846187309026826,59470.18269933467
0.012311217482038896,57233.56890355166
0.012794502732078732,54932.08793988791
0.013296759674662111,52572.20493803699
0.013818733056536317,50160.568701082935
0.014361196859990781,47703.97701434141
0.014924955450518284,45210.647171417586
0.015510844769528393,42689.725873130534
0.016119733573881575,40151.59309682102
0.01675252472408214,37607.5652809089
0.017410156523040152,35069.49169447144
0.018093604107387147,32550.215462176213
0.01880388089340914,30063.563281173385
0.019542040079740527,27623.809499725572
0.02030917620904734,25245.661770411174
0.021106426791015535,22944.604246901457
0.021934973989050584,20734.92075822191
0.02279604637318978,18630.67961661198
0.023690920741826323,16644.588551824236
0.02462092401494623,14787.433068573175
0.02558743520168586,13072.186782527395
0.02659188744512693,11507.021455933153
0.027635770147361564,10096.652463302431
0.028720631177978267,8843.055057618714
0.029848079169243254,7742.8689803952175
0.03101978590138095,6793.001452504608
0.03223748878149028,5987.176580139289
0.0335029934197723,5317.452165683231
0.03481817630688963,4777.860393394343
0.03618498759642746,4360.723625285966
0.037605453996581675,4054.2300031441464
0.03908168177536263,3847.0418035022894
0.04061585988376978,3729.672055058362
0.04221026320156896,3686.5149394531363
0.04386725591048496,3704.2698060131406
0.0455892949998106,3769.4120577613517
0.047378933909631396,3866.5490885282757
0.049238826317067365,3975.529554533091
0.05117173007114603,4067.0201107296234
0.05318051128214196,4110.594204307884
0.05526814857144601,4080.351757625984
0.057437737488265785,3959.34155591103
0.0596924950997073,3745.2074436800062
0.0620357647610427,3441.110867806867
0.06447102107323864,3057.8504418678353
0.06700187503509585,2621.567156755341
0.06963207939763882,2171.5124867313816
0.0723655342286965,1751.9984589266483
0.07520629269592405,1395.6119053416255
0.07815856707684081,1117.5292459413524
0.08122673500479707,920.9041925815154
0.08441534596012978,805.5203538221037
0.0877291280161335,760.3120502519872
0.09117299484984914,771.8357811877264
0.09475205302806537,822.0450294460669
0.09847160957933764,891.490664563129
0.1023371798632519,951.5116697264277
0.10635449574860109,966.5765206361488
0.11052951411260206,914.0191767277299
0.1148684256737553,802.4106050798343
0.1193776641714435,660.1917141339777
0.1240639159058831,517.4679430641391
0.12893412965257148,404.3350763732489
0.13399552696593373,336.756231646763
0.1392556128874462,310.385626737215
0.14472218707411338,314.2341686741275
0.15040335536380234,332.4165832415877
0.15630754179458153,342.8122521855744
0.16244350109588662,328.54803554666995
0.16882033167003618,287.5094884911
0.17544748908334581,235.9468072321735
0.1823348000868439,193.8101082670254
0.189492477187382,169.3791619790432
0.19693113379074215,161.9623268743751
0.20466179993919872,161.32786331044244
0.21269593866686892,156.1027527235296
0.22104546299710207,140.91944405292315
0.22972275360711503,120.98116229567528
0.23874067718606454,104.89470782960426
0.2481126055137766,95.80944442443398
0.25785243528842716,90.96238961851759
0.26797460873256895,85.01148462570717
0.27849413500806414,76.33252956532019
0.28942661247167484,67.47821774878899
0.3007882518043098,60.99395815704736
0.31259590004822796,56.410429493948236
0.324867065587837,51.70293346585981
0.3376199441111335,46.54057178825408
0.35087344559027084,41.930507459984575
0.36464722232127456,38.24375165453334
0.37896169806447155,34.85077587589719
0.3938380983288488,31.515472343918386
0.4092984818452433,28.53156866289883
0.4253657732750382,25.908636553459868
0.44206379720285277,23.515627595906913
0.45941731346364734,21.276859149421448
0.47745205385661277,19.294507099307825
0.4961947603002895,17.482014376032996
0.5156732244854959,15.829228067337253
0.5359163290848509,14.337380420305191
0.556954090580013,12.980498636680075
0.5788177037701272,11.748834738140806
0.6015395880274836,10.633295358235943
0.6251534353689703,9.621331067133164
0.6496942604146115,8.703682867120278
0.6751984523072497,7.871898685514719
0.7017038286703824,7.118236141183219
0.7292496916841444,6.435609128589729
0.7578768863625915,5.817505726403541
0.7876278611187046,5.25791081743831
0.8185467307069019,4.751352017444876
0.850679341636415,4.292864256238649
0.8840733401525058,3.8779429980429674
0.9187782428863317,3.5025031144643206
0.9548455102782278,3.16285423830836
0.9923286228832539,2.8556539160376415
1.0312831606721837,2.5778637318646545
1.0717668854455022,2.3267223852330283
1.1138398264826193,2.099721271647101
1.1575643695533022,1.8945802334059392
1.2030053494233226,1.7092249997187456
1.2502301459914542,1.5417741215339333
1.299308784200415,1.3905222706183753
1.3503140378698726,1.2539240385735562
1.4033215376054824,1.1305792610859782
1.4584098829439835,1.0192203420870205
1.5156607589006013,0.9186994746100667
1.575159057091621,0.8279768822749072
1.6369930016117014,0.7461108465106004
1.7012542798525885,0.6722486464586591
1.7680381784572046,0.6056182518710429
1.8374437246107238,0.5455207434281363
1.9095738328780953,0.4913236987968526
1.9845354578058014,0.4424550125211483
2.0624397525140905,0.3983972427648868
2.143402233514853,0.3586824668086024
2.227542951999554,0.32288748756749763
2.314986671851158,0.2906297013479544
2.405863054644063,0.26156338646575134
2.5003068519063225,0.23537620010171173
2.598458104929248,0.21178599951234722
2.7004623524206774,0.19053798533931346
2.806470846309834,0.17140212681103612
2.916640776023701,0.15417071542389188
3.031135501567576,0.13865621496149436
3.150124795755327,0.12468933054472994
3.2737850959485697,0.1121172583435978
3.4022997656780634,0.10080208577924062
3.5358593665351745,0.09061936793474186
3.6746619407366854,0.081456845024651
3.8189133047818515,0.07321326468675661
3.968827354637162,0.06579731601213164
4.1246263829013445,0.05912666202688995
4.286541408420921,0.0531270621427172
4.4548125188449825,0.04773159580921656
4.629689226627261,0.04287995118084667
4.811430839003257,0.03851777958472291
5.000306842491082,0.03459611225106973
5.196597302486189,0.031070833058704884
5.400593278542364,0.02790220286882492
5.612597255954967,0.0250544301428772
5.8329235942862,0.022495282813915517
6.06189899349756,0.02019573786968713
6.29986297838068,0.018129664462151196
6.547168402004727,0.016273537323479713
6.804181968927091,0.01460618140255222
7.071284778942991,0.013108539736761144
7.348872892180382,0.011763463518192423
7.637357916378006,0.010555522708006828
7.937167617217536,0.009470834420771696
8.248746552614573,0.008496909494331392
8.572556731909314,0.007622514724733757
8.909078300934132,0.006837547635704594
9.258810253973934,0.006132923585847047
9.622271173675122,0.005500474833855608
9.999999999999984,0.00493286058043888
