k [1/Mpc],P(k) [Mpc^3]
0.0001,1737.9647148352801
0.00010392556829367125,1800.705009419193
0.00010800523745162529,1865.6875867683743
0.00011224505680853065,1932.9900779849245
0.00011665131316981963,2002.692537406221
0.00012123054013376525,2074.877201329458
0.00012598952777950273,2149.628811156012
0.00013093533273536104,2227.034561352007
0.00013607528864243335,2307.184096401763
0.00014141701702890234,2390.169736836418
0.00014696843861124463,2476.0862892411965
0.00015273778503907136,2565.0312516267636
0.00015873361110102093,2657.1046741172754
0.00016496480740980205,2752.408867896735
0.0001714406135851971,2851.048875836459
0.00017817063195457305,2953.1320131782923
0.00018516484179121546,3058.7680277206737
0.000192433614111598,3168.0692828969495
0.00019998772705352857,3281.1502715548368
0.0002078383818579757,3398.128071486948
0.00021599721947827182,3519.1216860382724
0.0002244763378413224,3644.2518516014734
0.0002332883097864157,3773.641589239895
0.00024244620170823283,3907.4152581793246
0.0002519635929317015,4045.699081495541
0.0002618545958474233,4188.620684251629
0.0002721338768375308,4336.3082933770775
0.0002828166780230032,4488.8916216039715
0.0002939188398646886,4646.500714896045
0.0003054568246515432,4809.266155316994
0.00031744774091091926,4977.318904631235
0.00032990936877709396,5150.7886295877715
0.00034286018635565856,5329.804907735778
0.00035631939712285854,5514.496201247649
0.000370306958400514,5704.9894491465
0.00038484361094874304,5901.410409161777
0.0003999509097203664,6103.881600626762
0.00041565125582259895,6312.523133111039
0.00043196792973341727,6527.4517616338735
0.0004489251258218605,6748.779544750178
0.0004665479882234472,6976.61478820785
0.000484862648123908,7211.059716244859
0.000503896262506515,7452.210690525492
0.0005236770544204653,7700.157716748114
0.0005442343548300266,7954.981876439171
0.0005655986461065005,8216.75665617337
0.0005878016072274912,8485.544324127944
0.0006108761607505036,8761.39510389362
0.0006348565216305217,9044.34812607216
0.0006597782479539537,9334.426286746386
0.0006856782936641739,9631.63857790632
0.0007125950633568407,9935.97654515306
0.0007405684692262436,10247.410786276514
0.0007696399902471156,10565.89425356484
0.0007998527336796708,10891.354873277656
0.000831251498989063,11223.697429247628
0.0008638828442740447,11562.802838539177
0.000897795155303332,11908.52202265273
0.0009330387172620361,12260.680516556666
0.0009696657893145519,12619.07509342385
0.001007730682094461,12983.47294408953
0.0010472898382363582,13353.611851118148
0.0010884019160690055,13729.194233410568
0.0011311278765939214,14109.890097552368
0.001175531073878369,14495.329879229035
0.0012216773489967915,14885.099887237358
0.0012696351276599736,15278.753730866274
0.0013194755216767058,15675.832596305696
0.0013712724343984,16075.8548745454
0.0014251026703029975,16478.297440506936
0.0014810460488806749,16882.583200491456
0.0015391855229902056,17288.0958777861
0.001599607301861487,17694.16865782004
0.0016624009789266115,18100.08675592348
0.0017276596646690358,18505.10321369218
0.0017954801246878305,18908.454760368048
0.0018659629231817451,19309.349909749708
0.001939212572065829,19706.965156834453
0.0020153376859417325,20100.446262187645
0.002094451143151469,20488.91200037408
0.002176670253153458,20871.46218316206
0.002262116930469025,21247.176484980057
0.002350917875457286,21615.110023052363
0.002443204762186487,21974.291317283605
0.0025391144336803463,22323.73418793185
0.002638789104828933,22662.46031015882
0.002742376573264949,22989.497953120426
0.0028500304385181063,23303.863158320426
0.0029619103297725525,23604.53817009453
0.0030781821425650787,23890.50162916485
0.003199018284775064,24160.75610904994
0.0033245979322709396,24414.335631954305
0.003455107294592217,24650.252856112205
0.0035907398910610534,24867.294346403047
0.0037316968377327513,25064.176339297068
0.0038781871456107214,25239.975156151515
0.0040304280305680515,25394.42580307711
0.00418864523543527,25527.26926875131
0.004353073364731888,25636.971123169627
0.00452395623253805,25721.202482666507
0.004701547224022131,25778.030826392853
0.004886109671160325,25806.720164140104
0.005077917243205399,25806.83789832255
0.005277254352483535,25777.982661740003
0.005484416576121017,25719.787580542958
0.005699711094326071,25631.87452575668
0.005923457145875801,25513.372715211233
0.006155986501483508,25363.336404391743
0.006397643955748424,25180.842181170836
0.0066487878384172625,24964.926393075988
0.0069097905457156435,24714.779844962715
0.007181039092537346,24429.672812379842
0.007462935686310132,24109.031724639874
0.007755898323389004,23752.43040169011
0.00806036140886134,23359.439808284646
0.008376776400682916,22929.857165357727
0.008705612479099857,22463.20784361316
0.009047357242349292,21958.86515726864
0.00940251742967013,21416.592329562256
0.009771619672696168,20836.389581623444
0.010155211276345676,20218.71626737241
0.010553861030365234,19564.03804009555
0.010968160052731372,18872.64991568119
0.011398722666160517,18145.454082408087
0.011846187309026826,17383.156574069755
0.012311217482038896,16586.97284154544
0.012794502732078732,15758.947568211843
0.013296759674662111,14901.598060926217
0.013818733056536317,14018.45756437892
0.014361196859990781,13111.842805142714
0.014924955450518284,12183.943704395557
0.015510844769528393,11239.698104381907
0.016119733573881575,10288.042586503396
0.01675252472408214,9339.088385514568
0.017410156523040152,8394.228388328816
0.018093604107387147,7447.617336068743
0.01880388089340914,6505.362811572958
0.019542040079740527,5604.857284545961
0.02030917620904734,4782.223023592593
0.021106426791015535,4020.405838806792
0.021934973989050584,3244.901389412768
0.02279604637318978,2451.97338225726
0.023690920741826323,1792.8748633542905
0.02462092401494623,1371.9808118262226
0.02558743520168586,1102.5056609268088
0.02659188744512693,689.1879723427954
0.027635770147361564,233.5363436549536
0.028720631177978267,50.89913588155563
0.029848079169243254,16.651314974482574
0.03101978590138095,17.214359877279247
0.03223748878149028,42.13978813113619
0.0335029934197723,117.61697294358925
0.03481817630688963,232.29464040842333
0.03618498759642746,344.38999344418494
0.037605453996581675,433.6278250228799
0.03908168177536263,502.72574557012007
0.04061585988376978,564.2863800672977
0.04221026320156896,603.1550447391402
0.04386725591048496,510.304650358255
0.0455892949998106,313.9556392248373
0.047378933909631396,259.13508439117885
0.049238826317067365,438.2913393338755
0.05117173007114603,113.80712668874169
0.05318051128214196,0.46506956501311564
0.05526814857144601,0.023858454011120772
0.057437737488265785,2.8103636709191306
0.0596924950997073,199.67861058852716
0.0620357647610427,209.3048657541884
0.06447102107323864,225.08659359892613
0.06700187503509585,328.1248279462663
0.06963207939763882,318.4047253953853
0.0723655342286965,273.02296694700544
0.07520629269592405,187.0254442780181
0.07815856707684081,111.8828210236888
0.08122673500479707,35.96423708427234
0.08441534596012978,2.7763867500934847
0.0877291280161335,3.1188342060646077
0.09117299484984914,44.94713583430032
0.09475205302806537,73.89136143592292
0.09847160957933764,70.20565981378108
0.1023371798632519,58.870631997529564
0.10635449574860109,15.243354210737177
0.11052951411260206,3.0425675623574553
0.1148684256737553,6.004027160122366
0.1193776641714435,38.209274610827165
0.1240639159058831,56.1911606452392
0.12893412965257148,54.14665046411499
0.13399552696593373,32.31080997253259
0.1392556128874462,5.098229540977309
0.14472218707411338,0.9615507498631204
0.15040335536380234,8.765512251506996
0.15630754179458153,12.756912657768739
0.16244350109588662,8.765020728322874
0.16882033167003618,0.3614507679686791
0.17544748908334581,3.2635763424266564
0.1823348000868439,11.407200001930631
0.189492477187382,11.249477920876389
0.19693113379074215,3.8764042907135114
0.20466179993919872,0.023635164205709082
0.21269593866686892,2.143615373625
0.22104546299710207,1.657703760055258
0.22972275360711503,0.07608945463498064
0.23874067718606454,1.723620713853376
0.2481126055137766,2.7658339422437734
0.25785243528842716,0.9534033163781374
0.26797460873256895,0.018505263487920472
0.27849413500806414,0.1938670460080177
0.28942661247167484,0.011788384837261813
0.3007882518043098,0.49622444320456977
0.31259590004822796,0.6061364323448973
0.324867065587837,0.10294758556908871
0.3376199441111335,0.0021191380651637663
0.35087344559027084,0.014808079269795427
0.36464722232127456,0.18752217464536872
0.37896169806447155,0.14810642134985966
0.3938380983288488,0.019673702506859816
0.4092984818452433,0.014999956957734416
0.4253657732750382,0.07074941038014952
0.44206379720285277,0.06300220951206469
0.45941731346364734,0.021608839088513177
0.47745205385661277,0.026011363022942637
0.4961947603002895,0.04121291624410913
0.5156732244854959,0.02510780359786608
0.5359163290848509,0.019777753756255845
0.556954090580013,0.024871799145000723
0.5788177037701272,0.028872905450655035
0.6015395880274836,0.027918148199956416
0.6251534353689703,0.02373525899968144
0.6496942604146115,0.01872890306066554
0.6751984523072497,0.014479096448608267
0.7017038286703824,0.01156939520750434
0.7292496916841444,0.00980484013562646
0.7578768863625915,0.008706161649749813
0.7876278611187046,0.007979255156570423
0.8185467307069019,0.0074360185391769956
0.850679341636415,0.006941512771021239
0.8840733401525058,0.006403957970942828
0.9187782428863317,0.0058283127485716565
0.9548455102782278,0.005252120298380818
0.9923286228832539,0.00470364965301897
1.0312831606721837,0.004201987873066819
1.0717668854455022,0.0037583988312299022
1.1138398264826193,0.0033738393210138436
1.1575643695533022,0.003037884207029865
1.2030053494233226,0.002741033886994246
1.2502301459914542,0.002475854048842122
1.299308784200415,0.0022365272756057135
1.3503140378698726,0.002018609496675001
1.4033215376054824,0.0018198862393297795
1.4584098829439835,0.0016393211107293883
1.5156607589006013,0.0014758144968012145
1.575159057091621,0.0013282124631335214
1.6369930016117014,0.0011953400126889753
1.7012542798525885,0.001075965060039959
1.7680381784572046,0.0009686819931368523
1.8374437246107238,0.0008721858059377356
1.9095738328780953,0.0007853258909536982
1.9845354578058014,0.0007070861214948217
2.0624397525140905,0.0006365682945550045
2.143402233514853,0.0005729967793597589
2.227542951999554,0.0005157006076316302
2.314986671851158,0.0004640731705717775
2.405863054644063,0.00041756463175621845
2.5003068519063225,0.0003756768629908743
2.598458104929248,0.00033795886863881677
2.7004623524206774,0.0003040028707753314
2.806470846309834,0.0002734399786067025
2.916640776023701,0.00024593643849587897
3.031135501567576,0.0002211904343051889
3.150124795755327,0.00019892914820963297
3.2737850959485697,0.00017890431110973617
3.4022997656780634,0.0001608888643954576
3.5358593665351745,0.0001446789313534774
3.6746619407366854,0.00013009183876925697
3.8189133047818515,0.00011696383367637571
3.968827354637162,0.00010514822067016109
4.1246263829013445,9.451533784098506e-05
4.286541408420921,8.49494500239542e-05
4.4548125188449825,7.634573904923227e-05
4.629689226627261,6.860930520586578e-05
4.811430839003257,6.16542840543879e-05
5.000306842491082,5.540273570355267e-05
5.196597302486189,4.978334085498179e-05
5.400593278542364,4.473186059658117e-05
5.612597255954967,4.019066622579909e-05
5.8329235942862,3.610804592419249e-05
6.06189899349756,3.243759258484439e-05
6.29986297838068,2.9137830861935072e-05
6.547168402004727,2.617165844668428e-05
6.804181968927091,2.350565359081456e-05
7.071284778942991,2.1109702848932857e-05
7.348872892180382,1.8956678660555507e-05
7.637357916378006,1.7022141237727545e-05
7.937167617217536,1.528404637457988e-05
8.248746552614573,1.372254606061455e-05
8.572556731909314,1.2319787519087396e-05
8.909078300934132,1.1059713694044324e-05
9.258810253973934,9.927883572479139e-06
9.622271173675122,8.911313138295218e-06
9.999999999999984,7.998330633563251e-06
