k [1/Mpc],P(k) [Mpc^3]
0.0001,20.79283788721345
0.00010392556829367125,21.73402768223251
0.00010800523745162529,22.717801666023302
0.00011224505680853065,23.746085942057842
0.00011665131316981963,24.82089348274948
0.00012123054013376525,25.944325327012724
0.00012598952777950273,27.118575584944562
0.00013093533273536104,28.345937924318648
0.00013607528864243335,29.628811669808808
0.00014141701702890234,30.969704588454228
0.00014696843861124463,32.371235427181134
0.00015273778503907136,33.83613900217796
0.00015873361110102093,35.36727313760474
0.00016496480740980205,36.96762511986655
0.0001714406135851971,38.640316724721636
0.00017817063195457305,40.38860881400455
0.00018516484179121546,42.21590705308689
0.000192433614111598,44.12576939111885
0.00019998772705352857,46.121911753101045
0.0002078383818579757,48.20821563800684
0.00021599721947827182,50.388736178508886
0.0002244763378413224,52.66771010770307
0.0002332883097864157,55.049563063851345
0.00024244620170823283,57.5389138042043
0.0002519635929317015,60.14058352816038
0.0002618545958474233,62.85960700298657
0.0002721338768375308,65.70124120653449
0.0002828166780230032,68.67097565440648
0.0002939188398646886,71.77454238996114
0.0003054568246515432,75.01792646020085
0.00031744774091091926,78.40737513365708
0.00032990936877709396,81.9493995823323
0.00034286018635565856,85.65079220005201
0.00035631939712285854,89.51864346970795
0.000370306958400514,93.56035581423549
0.00038484361094874304,97.78365365421372
0.0003999509097203664,102.1965853391081
0.00041565125582259895,106.8075405824782
0.00043196792973341727,111.62526853826961
0.0004489251258218605,116.65888844086895
0.0004665479882234472,121.91790881089655
0.000484862648123908,127.4122361933608
0.000503896262506515,133.15219109319295
0.0005236770544204653,139.1485270562049
0.0005442343548300266,145.4124334722756
0.0005655986461065005,151.95556330269065
0.0005878016072274912,158.79004885471969
0.0006108761607505036,165.92851658499941
0.0006348565216305217,173.38411060975264
0.0006597782479539537,181.17049013597554
0.0006856782936641739,189.30185899094633
0.0007125950633568407,197.79298701192062
0.0007405684692262436,206.65921801900726
0.0007696399902471156,215.91650366065815
0.0007998527336796708,225.5814026643938
0.000831251498989063,235.67110498297893
0.0008638828442740447,246.20345638718004
0.000897795155303332,257.1969424017165
0.0009330387172620361,268.6707399101537
0.0009696657893145519,280.6447268054028
0.001007730682094461,293.139496407704
0.0010472898382363582,306.17638740385104
0.0010884019160690055,319.77743618550886
0.0011311278765939214,333.9654345977645
0.001175531073878369,348.76393805490227
0.0012216773489967915,364.1972453790816
0.0012696351276599736,380.2904607917856
0.0013194755216767058,397.06941717694025
0.0013712724343984,414.56071574594057
0.0014251026703029975,432.79175732743875
0.0014810460488806749,451.7906698016259
0.0015391855229902056,471.58638975902437
0.001599607301861487,492.20855355371503
0.0016624009789266115,513.6874823017541
0.0017276596646690358,536.0542684100757
0.0017954801246878305,559.3406673417638
0.0018659629231817451,583.579160639198
0.001939212572065829,608.8028275950164
0.0020153376859417325,635.0452211302292
0.002094451143151469,662.3405068530005
0.002176670253153458,690.7232427994135
0.002262116930469025,720.2284264178537
0.002350917875457286,750.8914613277165
0.002443204762186487,782.7479532460881
0.0025391144336803463,815.8338102254397
0.002638789104828933,850.1848892856723
0.002742376573264949,885.8369398010561
0.0028500304385181063,922.8256979948936
0.0029619103297725525,961.1866048539678
0.0030781821425650787,1000.954858397653
0.003199018284775064,1042.1650402488115
0.0033245979322709396,1084.8508567875351
0.003455107294592217,1129.0453049416383
0.0035907398910610534,1174.780249337764
0.0037316968377327513,1222.0864283210155
0.0038781871456107214,1270.9931742048946
0.0040304280305680515,1321.5279445389806
0.00418864523543527,1373.7164813871482
0.004353073364731888,1427.582164109084
0.00452395623253805,1483.145902722626
0.004701547224022131,1540.425966129211
0.004886109671160325,1599.4370890933956
0.005077917243205399,1660.190804710585
0.005277254352483535,1722.6949103730765
0.005484416576121017,1786.9531111978204
0.005699711094326071,1852.9645381543087
0.005923457145875801,1920.7205790775945
0.006155986501483508,1990.2064015725323
0.006397643955748424,2061.4054705686844
0.0066487878384172625,2134.302411271209
0.0069097905457156435,2208.8755789885004
0.007181039092537346,2285.0771295204577
0.007462935686310132,2362.839103333344
0.007755898323389004,2442.0913401755806
0.00806036140886134,2522.7761928616583
0.008376776400682916,2604.8316346126217
0.008705612479099857,2688.1700724069856
0.009047357242349292,2772.6778708789725
0.00940251742967013,2858.233100988881
0.009771619672696168,2944.720321264183
0.010155211276345676,3032.0192862311605
0.010553861030365234,3119.9886003998618
0.010968160052731372,3208.4596005523654
0.011398722666160517,3297.2493930497862
0.011846187309026826,3386.15772115817
0.012311217482038896,3474.9692105032846
0.012794502732078732,3563.453727290879
0.013296759674662111,3651.3642414003043
0.013818733056536317,3738.4401729304827
0.014361196859990781,3824.4029488500087
0.014924955450518284,3908.9578393727147
0.015510844769528393,3991.7955947720557
0.016119733573881575,4072.584821609826
0.01675252472408214,4150.981416852677
0.017410156523040152,4226.628175318269
0.018093604107387147,4299.1555797471165
0.01880388089340914,4368.187437442229
0.019542040079740527,4433.337827921057
0.02030917620904734,4494.217383907265
0.021106426791015535,4550.438539982936
0.021934973989050584,4601.6186132277735
0.02279604637318978,4647.383587680486
0.023690920741826323,4687.379346497512
0.02462092401494623,4721.2718524975
0.02558743520168586,4748.754466698988
0.02659188744512693,4769.568767894063
0.027635770147361564,4783.488193452131
0.028720631177978267,4790.353499645971
0.029848079169243254,4790.073079493257
0.03101978590138095,4782.60521837511
0.03223748878149028,4768.021339756555
0.0335029934197723,4746.44999442586
0.03481817630688963,4718.121873090757
0.03618498759642746,4683.400550239299
0.037605453996581675,4642.689005084677
0.03908168177536263,4596.498199254814
0.04061585988376978,4545.391546104361
0.04221026320156896,4490.03170267226
0.04386725591048496,4431.305489189721
0.0455892949998106,4370.082966765635
0.047378933909631396,4306.872868295338
0.049238826317067365,4241.910472447473
0.05117173007114603,4175.643933965095
0.05318051128214196,4109.378406241089
0.05526814857144601,4044.5276691304434
0.057437737488265785,3981.4978334405905
0.0596924950997073,3919.545455857564
0.0620357647610427,3857.87907308178
0.06447102107323864,3795.6456328626723
0.06700187503509585,3732.003477183081
0.06963207939763882,3666.033164101011
0.0723655342286965,3596.8021349833593
0.07520629269592405,3523.3996903381103
0.07815856707684081,3444.9436319296847
0.08122673500479707,3360.3799558239075
0.08441534596012978,3268.770914057012
0.0877291280161335,3170.053229399013
0.09117299484984914,3064.767352032075
0.09475205302806537,2954.0878522874946
0.09847160957933764,2839.9553481670814
0.1023371798632519,2724.925572986564
0.10635449574860109,2611.975424756074
0.11052951411260206,2503.7449926117574
0.1148684256737553,2402.3877424553802
0.1193776641714435,2309.416356871403
0.1240639159058831,2225.4460490186257
0.12893412965257148,2149.490825342413
0.13399552696593373,2078.899381910827
0.1392556128874462,2009.5571425755618
0.14472218707411338,1937.4161688035233
0.15040335536380234,1859.8603041912286
0.15630754179458153,1776.3558849886758
0.16244350109588662,1688.4243561666503
0.16882033167003618,1599.1584862713105
0.17544748908334581,1512.3516733827164
0.1823348000868439,1431.4123249768568
0.189492477187382,1358.7510371585324
0.19693113379074215,1295.1468886013524
0.20466179993919872,1238.4276954924994
0.21269593866686892,1183.755472095224
0.22104546299710207,1127.058064026576
0.22972275360711503,1067.3392693393462
0.23874067718606454,1005.843404491829
0.2481126055137766,945.6954294807977
0.25785243528842716,890.519057727731
0.26797460873256895,841.4756862724529
0.27849413500806414,797.1893182408243
0.28942661247167484,754.7809819558645
0.3007882518043098,711.8608259785635
0.31259590004822796,668.6778450332156
0.324867065587837,627.1505203345466
0.3376199441111335,589.116197809261
0.35087344559027084,554.433214500018
0.36464722232127456,521.6448455566572
0.37896169806447155,489.4513416422661
0.3938380983288488,458.3082510346608
0.4092984818452433,429.09918642135233
0.4253657732750382,402.1100539662123
0.44206379720285277,376.6349466353655
0.45941731346364734,352.18852761535413
0.47745205385661277,329.0505283243627
0.4961947603002895,307.42278153170406
0.5156732244854959,287.1437656824325
0.5359163290848509,267.92985698019
0.556954090580013,249.85423948497836
0.5788177037701272,232.92561192336927
0.6015395880274836,217.01821981884052
0.6251534353689703,202.07799158367865
0.6496942604146115,188.07259928225005
0.6751984523072497,174.95354816862303
0.7017038286703824,162.66628908159785
0.7292496916841444,151.16835721598474
0.7578768863625915,140.41496680825313
0.7876278611187046,130.36744662476502
0.8185467307069019,120.98857460146219
0.850679341636415,112.23438901094995
0.8840733401525058,104.06598021216244
0.9187782428863317,96.44922624950364
0.9548455102782278,89.35147837603219
0.9923286228832539,82.74155015901735
1.0312831606721837,76.58969479616175
1.0717668854455022,70.86736577464107
1.1138398264826193,65.54719401396345
1.1575643695533022,60.603296030122095
1.2030053494233226,56.01123778973341
1.2502301459914542,51.747972887983565
1.299308784200415,47.7917850493326
1.3503140378698726,44.12225760386701
1.4033215376054824,40.72018952490495
1.4584098829439835,37.567515658212415
1.5156607589006013,34.64725336035549
1.575159057091621,31.943450603095147
1.6369930016117014,29.441126412127854
1.7012542798525885,27.126201018266084
1.7680381784572046,24.98548265839548
1.8374437246107238,23.006628466724397
1.9095738328780953,21.178097207856524
1.9845354578058014,19.48910398270252
2.0624397525140905,17.929577702046007
2.143402233514853,16.490119769427867
2.227542951999554,15.161963000005722
2.314986671851158,13.936933892165465
2.405863054644063,12.807416834403492
2.5003068519063225,11.766319475787588
2.598458104929248,10.807034162772485
2.7004623524206774,9.923411977493364
2.806470846309834,9.109739050080382
2.916640776023701,8.360708417898204
3.031135501567576,7.6713933664471625
3.150124795755327,7.037222078415798
3.2737850959485697,6.45395331273163
3.4022997656780634,5.917655143679615
3.5358593665351745,5.42468428886668
3.6746619407366854,4.971666358728009
3.8189133047818515,4.555477315894736
3.968827354637162,4.173225411844017
4.1246263829013445,3.8222346417683353
4.286541408420921,3.5000309149533044
4.4548125188449825,3.204327820758944
4.629689226627261,2.9330131719090584
4.811430839003257,2.684136400089476
5.000306842491082,2.455896297387201
5.196597302486189,2.246630426170107
5.400593278542364,2.054805453612575
5.612597255954967,1.8790076016516577
5.8329235942862,1.7179337457078412
6.06189899349756,1.5703831220771545
6.29986297838068,1.435249579654186
6.547168402004727,1.3115145038651304
6.804181968927091,1.1982402011245235
7.071284778942991,1.094563728410085
7.348872892180382,0.9996911669734543
7.637357916378006,0.9128920234399082
7.937167617217536,0.8334941204937426
8.248746552614573,0.7608797310250938
8.572556731909314,0.6944813882874
8.909078300934132,0.6337779200164179
9.258810253973934,0.5782908161560902
9.622271173675122,0.5275814096131002
9.999999999999984,0.4812474536157272
