k [1/Mpc],P(k) [Mpc^3]
0.0001,80.06271444214742
0.00010392556829367125,83.68636139396125
0.00010800523745162529,87.47391246244203
0.00011224505680853065,91.43276949933205
0.00011665131316981963,95.57066770537607
0.00012123054013376525,99.89568790355658
0.00012598952777950273,104.41626844690731
0.00013093533273536104,109.1412259210427
0.00013607528864243335,114.07977700177003
0.00014141701702890234,119.2415557589115
0.00014696843861124463,124.63662727152101
0.00015273778503907136,130.27550053432924
0.00015873361110102093,136.16915330681766
0.00016496480740980205,142.32905336045758
0.0001714406135851971,148.7671797001508
0.00017817063195457305,155.49604480546168
0.00018516484179121546,162.5287076025032
0.000192433614111598,169.8788029458391
0.00019998772705352857,177.56057896826354
0.0002078383818579757,185.58893361050804
0.00021599721947827182,193.97942887427578
0.0002244763378413224,202.74828803515453
0.0002332883097864157,211.91242882896242
0.00024244620170823283,221.489516346011
0.0002519635929317015,231.49800318884073
0.0002618545958474233,241.95715678821682
0.0002721338768375308,252.88707566733072
0.0002828166780230032,264.30871874880734
0.0002939188398646886,276.2439579139617
0.0003054568246515432,288.71560848794525
0.00031744774091091926,301.74747385332773
0.00032990936877709396,315.36437608659605
0.00034286018635565856,329.59218015406816
0.00035631939712285854,344.4578595092314
0.000370306958400514,359.98952955004455
0.00038484361094874304,376.2164969241022
0.0003999509097203664,393.1693019558773
0.00041565125582259895,410.8797218484182
0.00043196792973341727,429.38085858659275
0.0004489251258218605,448.70718155314904
0.0004665479882234472,468.8945732430673
0.000484862648123908,489.9803978213954
0.000503896262506515,512.0035077215601
0.0005236770544204653,535.0043269363034
0.0005442343548300266,559.0248875646184
0.0005655986461065005,584.108836651679
0.0005878016072274912,610.3015590601564
0.0006108761607505036,637.6502057422632
0.0006348565216305217,666.2037631403581
0.0006597782479539537,696.0131042777282
0.0006856782936641739,727.130940857548
0.0007125950633568407,759.6119762506021
0.0007405684692262436,793.5129267212591
0.0007696399902471156,828.8925602402608
0.0007998527336796708,865.8118091711299
0.000831251498989063,904.3337143054972
0.0008638828442740447,944.5235500529519
0.000897795155303332,986.4488025006946
0.0009330387172620361,1030.17907084121
0.0009696657893145519,1075.7863094023112
0.001007730682094461,1123.344760032758
0.0010472898382363582,1172.9310275594946
0.0010884019160690055,1224.6240780764972
0.0011311278765939214,1278.5048935717298
0.001175531073878369,1334.6568191935564
0.0012216773489967915,1393.165469922329
0.0012696351276599736,1454.118679503955
0.0013194755216767058,1517.6066065926027
0.0013712724343984,1583.72108064601
0.0014251026703029975,1652.555938561657
0.0014810460488806749,1724.2070905126536
0.0015391855229902056,1798.7722891542005
0.001599607301861487,1876.3512752013612
0.0016624009789266115,1957.044945164025
0.0017276596646690358,2040.9554150258875
0.0017954801246878305,2128.186187141684
0.0018659629231817451,2218.8414267974445
0.001939212572065829,2313.0263209570826
0.0020153376859417325,2410.846387444814
0.002094451143151469,2512.4070813521275
0.002176670253153458,2617.8140821613856
0.002262116930469025,2727.1722287835482
0.002350917875457286,2840.585722902252
0.002443204762186487,2958.157523642614
0.0025391144336803463,3079.9883090155695
0.002638789104828933,3206.1770031880674
0.002742376573264949,3336.8196258484973
0.0028500304385181063,3472.009058997999
0.0029619103297725525,3611.834571223614
0.0030781821425650787,3756.37986373221
0.003199018284775064,3905.723784347074
0.0033245979322709396,4059.938806143538
0.003455107294592217,4219.09006459687
0.0035907398910610534,4383.23565913072
0.0037316968377327513,4552.424331498966
0.0038781871456107214,4726.695718672708
0.0040304280305680515,4906.078846346013
0.00418864523543527,5090.589853531697
0.004353073364731888,5280.232968160939
0.00452395623253805,5474.9965989868615
0.004701547224022131,5674.853215316978
0.004886109671160325,5879.759669717846
0.005077917243205399,6089.654333470361
0.005277254352483535,6304.457552896918
0.005484416576121017,6524.060285086101
0.005699711094326071,6748.320470281374
0.005923457145875801,6977.077090369215
0.006155986501483508,7210.174592233466
0.006397643955748424,7447.447052452283
0.0066487878384172625,7688.657274901636
0.0069097905457156435,7933.445619896271
0.007181039092537346,8181.409428317568
0.007462935686310132,8432.185952162923
0.007755898323389004,8685.43235372323
0.00806036140886134,8940.745734570091
0.008376776400682916,9197.581307609142
0.008705612479099857,9455.33073478385
0.009047357242349292,9713.389446789934
0.00940251742967013,9971.166077456453
0.009771619672696168,10228.021155946619
0.010155211276345676,10483.179433009534
0.010553861030365234,10735.78632908641
0.010968160052731372,10984.917836892637
0.011398722666160517,11229.559959337219
0.011846187309026826,11468.648052276414
0.012311217482038896,11701.05358572841
0.012794502732078732,11925.596505646954
0.013296759674662111,12141.034943741006
0.013818733056536317,12346.005782501501
0.014361196859990781,12539.100730495364
0.014924955450518284,12718.830851822946
0.015510844769528393,12883.631720921469
0.016119733573881575,13031.919561638146
0.01675252472408214,13162.018465258689
0.017410156523040152,13272.244398927254
0.018093604107387147,13360.898584191871
0.01880388089340914,13426.239614259637
0.019542040079740527,13466.596361323705
0.02030917620904734,13480.302074383239
0.021106426791015535,13465.767881602771
0.021934973989050584,13421.545243287612
0.02279604637318978,13346.28573369841
0.023690920741826323,13238.863161936946
0.02462092401494623,13098.385901986545
0.02558743520168586,12924.229615519955
0.02659188744512693,12716.120252508945
0.027635770147361564,12474.206732701843
0.028720631177978267,12199.03866035797
0.029848079169243254,11891.682387211624
0.03101978590138095,11553.794100835965
0.03223748878149028,11187.445423392077
0.0335029934197723,10795.531271420925
0.03481817630688963,10381.44493970054
0.03618498759642746,9948.990967956986
0.037605453996581675,9502.811913522975
0.03908168177536263,9047.55456690166
0.04061585988376978,8588.807627769007
0.04221026320156896,8132.723001289344
0.04386725591048496,7684.742601498339
0.0455892949998106,7250.043779511865
0.047378933909631396,6833.012736491904
0.049238826317067365,6438.852004596941
0.05117173007114603,6074.324872926278
0.05318051128214196,5744.555303776856
0.05526814857144601,5452.21325571656
0.057437737488265785,5198.716233604751
0.0596924950997073,4984.195466151447
0.0620357647610427,4808.010989125922
0.06447102107323864,4668.185300824383
0.06700187503509585,4561.622682231423
0.06963207939763882,4484.532822726023
0.0723655342286965,4432.206935601892
0.07520629269592405,4396.521548071439
0.07815856707684081,4367.10807411205
0.08122673500479707,4331.447571991616
0.08441534596012978,4276.510173936882
0.0877291280161335,4190.040016729107
0.09117299484984914,4062.8060946005385
0.09475205302806537,3890.022030338145
0.09847160957933764,3672.001194677027
0.1023371798632519,3414.391523296629
0.10635449574860109,3127.99069477385
0.11052951411260206,2828.439133006936
0.1148684256737553,2534.6379701117557
0.1193776641714435,2266.765476566443
0.1240639159058831,2042.006014961884
0.12893412965257148,1871.158620274528
0.13399552696593373,1757.5102384067775
0.1392556128874462,1697.085252102279
0.14472218707411338,1679.3926440634639
0.15040335536380234,1687.7675363242736
0.15630754179458153,1700.1137429021069
0.16244350109588662,1691.741070412885
0.16882033167003618,1641.0363985270749
0.17544748908334581,1537.4257200484756
0.1823348000868439,1388.700169531297
0.189492477187382,1220.4938997964232
0.19693113379074215,1064.4260906259929
0.20466179993919872,944.8147745333468
0.21269593866686892,873.8884018276343
0.22104546299710207,849.8713855561464
0.22972275360711503,854.7599682867414
0.23874067718606454,859.2576532867819
0.2481126055137766,835.7403634452376
0.25785243528842716,771.8470930898272
0.26797460873256895,680.3085123473383
0.27849413500806414,591.4242698509802
0.28942661247167484,531.3799856254423
0.3007882518043098,507.0322156753788
0.31259590004822796,503.91672447454323
0.324867065587837,495.72123439190705
0.3376199441111335,462.69525774649696
0.35087344559027084,410.3603760164896
0.36464722232127456,362.336876045788
0.37896169806447155,335.94729368293576
0.3938380983288488,326.7169642266218
0.4092984818452433,315.3984599455455
0.4253657732750382,289.5125768372581
0.44206379720285277,257.9575331828999
0.45941731346364734,236.43103801797517
0.47745205385661277,225.89773064790984
0.4961947603002895,213.94830271773307
0.5156732244854959,194.75690293265228
0.5359163290848509,176.7993625332569
0.556954090580013,165.83485307781834
0.5788177037701272,155.91364258175733
0.6015395880274836,142.66265886513014
0.6251534353689703,130.81322178753902
0.6496942604146115,122.30274130818312
0.6751984523072497,113.2258094202174
0.7017038286703824,103.8103148577422
0.7292496916841444,96.19051580020395
0.7578768863625915,89.04585698279016
0.7876278611187046,82.2365811981417
0.8185467307069019,75.82469160320866
0.850679341636415,69.8513727424838
0.8840733401525058,64.34009656657318
0.9187782428863317,59.28404969779925
0.9548455102782278,54.63830543844981
0.9923286228832539,50.35939486254669
1.0312831606721837,46.409663977368744
1.0717668854455022,42.75645624950188
1.1138398264826193,39.37188182699399
1.1575643695533022,36.23674485638227
1.2030053494233226,33.33640266422712
1.2502301459914542,30.656571022512537
1.299308784200415,28.18333918765033
1.3503140378698726,25.90323926218589
1.4033215376054824,23.80287766632678
1.4584098829439835,21.868395380034762
1.5156607589006013,20.086792895671362
1.575159057091621,18.446105346192763
1.6369930016117014,16.935317072274575
1.7012542798525885,15.544293190211258
1.7680381784572046,14.263856610201689
1.8374437246107238,13.085638488135722
1.9095738328780953,12.001861624360078
1.9845354578058014,11.005298615099159
2.0624397525140905,10.089237388847746
2.143402233514853,9.247437747104135
2.227542951999554,8.474075089712667
2.314986671851158,7.763753830077515
2.405863054644063,7.111488347560263
2.5003068519063225,6.5126732227360264
2.598458104929248,5.963055696748844
2.7004623524206774,5.4587147325259116
2.806470846309834,4.996035555628499
2.916640776023701,4.5716806884522425
3.031135501567576,4.182569483922633
3.150124795755327,3.8258593978984563
3.2737850959485697,3.4989279040730796
3.4022997656780634,3.199353895755474
3.5358593665351745,2.9249057380190373
3.6746619407366854,2.673528235432009
3.8189133047818515,2.4433292161094267
3.968827354637162,2.2325670873178467
4.1246263829013445,2.039639403938187
4.286541408420921,1.8630721760353934
4.4548125188449825,1.701509764295678
4.629689226627261,1.5537057008422865
4.811430839003257,1.4185142047106698
5.000306842491082,1.2948822903936785
5.196597302486189,1.1818422873639924
5.400593278542364,1.0785053559419298
5.612597255954967,0.9840553983348733
5.8329235942862,0.8977432856860209
6.06189899349756,0.8188815254274199
6.29986297838068,0.7468393326770992
6.547168402004727,0.681038083237254
6.804181968927091,0.6209471318759033
7.071284778942991,0.5660799449096364
7.348872892180382,0.5159905326556583
7.637357916378006,0.47027014178931437
7.937167617217536,0.4285440578255981
8.248746552614573,0.39046896320296404
8.572556731909314,0.3557304967097861
8.909078300934132,0.3240408659881306
9.258810253973934,0.2951366502099914
9.622271173675122,0.26877689670344784
9.999999999999984,0.24474139899409658
