k [1/Mpc],P(k) [Mpc^3]
0.0001,2852.827064707495
0.00010392556829367125,2964.3626918277887
0.00010800523745162529,3080.2218223224804
0.00011224505680853065,3200.5675601061052
0.00011665131316981963,3325.568764660123
0.00012123054013376525,3455.399937388068
0.00012598952777950273,3590.2416332239986
0.00013093533273536104,3730.2803437343055
0.00013607528864243335,3875.7084841403603
0.00014141701702890234,4026.7249378662973
0.00014696843861124463,4183.53469704753
0.00015273778503907136,4346.349309226426
0.00015873361110102093,4515.386922837914
0.00016496480740980205,4690.8718986268
0.0001714406135851971,4873.0355881948235
0.00017817063195457305,5062.11577493996
0.00018516484179121546,5258.356910071531
0.000192433614111598,5462.0104215434885
0.00019998772705352857,5673.333576245809
0.0002078383818579757,5892.590582476768
0.00021599721947827182,6120.051890897411
0.0002244763378413224,6355.993792954167
0.0002332883097864157,6600.69940968155
0.00024244620170823283,6854.457093690702
0.0002519635929317015,7117.5612822342055
0.0002618545958474233,7390.311970392311
0.0002721338768375308,7673.013103379773
0.0002828166780230032,7965.974238305021
0.0002939188398646886,8269.508245898549
0.0003054568246515432,8583.931509599686
0.00031744774091091926,8909.564518524096
0.00032990936877709396,9246.729427221477
0.00034286018635565856,9595.751504034068
0.00035631939712285854,9956.956777970016
0.000370306958400514,10330.670762344693
0.00038484361094874304,10717.219876127649
0.0003999509097203664,11116.927588683111
0.00041565125582259895,11530.115636215089
0.00043196792973341727,11957.102907275746
0.0004489251258218605,12398.202691506718
0.0004665479882234472,12853.724192400165
0.000484862648123908,13323.968430832898
0.000503896262506515,13809.22798361438
0.0005236770544204653,14309.786104853296
0.0005442343548300266,14825.910651562823
0.0005655986461065005,15357.857006984777
0.0005878016072274912,15905.863213900167
0.0006108761607505036,16470.147351475043
0.0006348565216305217,17050.908558458872
0.0006597782479539537,17648.316343330174
0.0006856782936641739,18262.514154056924
0.0007125950633568407,18893.615082948636
0.0007405684692262436,19541.694208794328
0.0007696399902471156,20206.793480807046
0.0007998527336796708,20888.907478450954
0.000831251498989063,21587.984572796293
0.0008638828442740447,22303.92768560786
0.000897795155303332,23036.58206431657
0.0009330387172620361,23785.74176524363
0.0009696657893145519,24551.14305348832
0.001007730682094461,25332.460791672744
0.0010472898382363582,26129.30859281979
0.0010884019160690055,26941.223388712337
0.0011311278765939214,27767.671145473054
0.001175531073878369,28608.03605196515
0.0012216773489967915,29461.60746924285
0.0012696351276599736,30327.599472512855
0.0013194755216767058,31205.18950130206
0.0013712724343984,32093.503360689505
0.0014251026703029975,32991.57517652878
0.0014810460488806749,33898.31268422441
0.0015391855229902056,34812.52993942067
0.001599607301861487,35732.93654656239
0.0016624009789266115,36658.13623833095
0.0017276596646690358,37586.64904589513
0.0017954801246878305,38516.94077836451
0.0018659629231817451,39447.40368306186
0.001939212572065829,40376.347576099324
0.0020153376859417325,41302.0015025861
0.002094451143151469,42222.52210122179
0.002176670253153458,43136.0366998737
0.002262116930469025,44040.630291233916
0.002350917875457286,44934.325409646815
0.002443204762186487,45815.0818263273
0.0025391144336803463,46680.81148117975
0.002638789104828933,47529.452628808016
0.002742376573264949,48358.973103258766
0.0028500304385181063,49167.30635300005
0.0029619103297725525,49952.30326038713
0.0030781821425650787,50711.78385309228
0.003199018284775064,51443.60766983982
0.0033245979322709396,52145.70502699401
0.003455107294592217,52815.974271977
0.0035907398910610534,53451.88647980508
0.0037316968377327513,54050.70479519596
0.0038781871456107214,54610.31870871802
0.0040304280305680515,55130.1518880048
0.00418864523543527,55609.81419756686
0.004353073364731888,56046.59659478133
0.00452395623253805,56435.84583062745
0.004701547224022131,56773.47119792105
0.004886109671160325,57057.98575291469
0.005077917243205399,57288.707113551216
0.005277254352483535,57465.12420421467
0.005484416576121017,57586.90493977844
0.005699711094326071,57653.75014489791
0.005923457145875801,57664.571648604695
0.006155986501483508,57618.01272553127
0.006397643955748424,57512.82540146403
0.0066487878384172625,57347.810301100835
0.0069097905457156435,57121.9621507419
0.007181039092537346,56834.65883325226
0.007462935686310132,56485.62784512712
0.007755898323389004,56074.87045717345
0.00806036140886134,55602.78407218505
0.008376776400682916,55070.01966669711
0.008705612479099857,54476.85713848842
0.009047357242349292,53823.09603443876
0.00940251742967013,53108.89709712638
0.009771619672696168,52335.42469025606
0.010155211276345676,51504.40458342307
0.010553861030365234,50617.48887746884
0.010968160052731372,49675.93206527531
0.011398722666160517,48681.22226809957
0.011846187309026826,47635.099620458794
0.012311217482038896,46539.58293596688
0.012794502732078732,45397.09634271769
0.013296759674662111,44210.64396003791
0.013818733056536317,42983.551504676165
0.014361196859990781,41719.18864775878
0.014924955450518284,40420.94712941026
0.015510844769528393,39092.54354161667
0.016119733573881575,37738.41390939945
0.01675252472408214,36363.305690558314
0.017410156523040152,34972.286922039864
0.018093604107387147,33570.889936509186
0.01880388089340914,32164.62480780433
0.019542040079740527,30759.476265689023
0.02030917620904734,29361.506926305094
0.021106426791015535,27976.79866873377
0.021934973989050584,26612.312060915236
0.02279604637318978,25274.45309667584
0.023690920741826323,23969.033942276936
0.02462092401494623,22701.249527738615
0.02558743520168586,21476.054350938823
0.02659188744512693,20301.163904952493
0.027635770147361564,19183.78076836657
0.028720631177978267,18127.18081264456
0.029848079169243254,17129.986858452376
0.03101978590138095,16190.388845785617
0.03223748878149028,15307.977362278221
0.0335029934197723,14482.797563551074
0.03481817630688963,13714.306536405935
0.03618498759642746,13001.387844879526
0.037605453996581675,12342.405663528481
0.03908168177536263,11731.104561476914
0.04061585988376978,11157.700787534026
0.04221026320156896,10613.43014793123
0.04386725591048496,10089.43948945265
0.0455892949998106,9577.950950604129
0.047378933909631396,9073.405536938419
0.049238826317067365,8572.636389355626
0.05117173007114603,8073.3864310689605
0.05318051128214196,7572.84364953453
0.05526814857144601,7068.740743259501
0.057437737488265785,6565.777876030001
0.0596924950997073,6078.655018656151
0.0620357647610427,5617.875327533554
0.06447102107323864,5183.833664359273
0.06700187503509585,4777.100247199116
0.06963207939763882,4409.303442330059
0.0723655342286965,4089.5900690500894
0.07520629269592405,3815.0220079280566
0.07815856707684081,3578.4962408990914
0.08122673500479707,3369.629564231901
0.08441534596012978,3180.1237700300544
0.0877291280161335,3002.0281347908326
0.09117299484984914,2820.7323441642943
0.09475205302806537,2632.8609337729445
0.09847160957933764,2445.4669459667252
0.1023371798632519,2258.6606690060044
0.10635449574860109,2071.9279799615274
0.11052951411260206,1894.492928485787
0.1148684256737553,1739.8991590325688
0.1193776641714435,1606.6481876052414
0.1240639159058831,1490.1207004856142
0.12893412965257148,1387.0702877686117
0.13399552696593373,1293.9205538964493
0.1392556128874462,1200.792951842083
0.14472218707411338,1108.6747835879173
0.15040335536380234,1019.840899408271
0.15630754179458153,936.9885986226028
0.16244350109588662,862.0006160634355
0.16882033167003618,794.2198637454159
0.17544748908334581,733.675203469541
0.1823348000868439,677.2758689335676
0.189492477187382,623.6901431245675
0.19693113379074215,573.6274221117058
0.20466179993919872,527.0621686861188
0.21269593866686892,484.73838085026676
0.22104546299710207,445.7107175468729
0.22972275360711503,409.8623659014332
0.23874067718606454,376.4718264953145
0.2481126055137766,345.6177912060979
0.25785243528842716,317.26212580305906
0.26797460873256895,291.1784177098676
0.27849413500806414,267.1455461264881
0.28942661247167484,244.99175470046828
0.3007882518043098,224.57510667240936
0.31259590004822796,205.8106510050151
0.324867065587837,188.56016346635906
0.3376199441111335,172.69075268545123
0.35087344559027084,158.10416197438622
0.36464722232127456,144.70409676720305
0.37896169806447155,132.398597034272
0.3938380983288488,121.10140657973052
0.4092984818452433,110.73754105856221
0.4253657732750382,101.23303027928948
0.44206379720285277,92.52642994906316
0.45941731346364734,84.54509226233591
0.47745205385661277,77.23450177162744
0.4961947603002895,70.54012309995468
0.5156732244854959,64.41041741040986
0.5359163290848509,58.79658867650832
0.556954090580013,53.657062432447994
0.5788177037701272,48.95278862073064
0.6015395880274836,44.648317178979816
0.6251534353689703,40.711762832495126
0.6496942604146115,37.11409652559486
0.6751984523072497,33.827737410751936
0.7017038286703824,30.826663524923898
0.7292496916841444,28.087039818727188
0.7578768863625915,25.585706455071097
0.7876278611187046,23.301198314849856
0.8185467307069019,21.2154692477126
0.850679341636415,19.312008981372067
0.8840733401525058,17.575576466027062
0.9187782428863317,15.992114751790146
0.9548455102782278,14.548665988337033
0.9923286228832539,13.233196680023608
1.0312831606721837,12.034561708206075
1.0717668854455022,10.942564366691435
1.1138398264826193,9.947882951222068
1.1575643695533022,9.04199686928289
1.2030053494233226,8.217120174683707
1.2502301459914542,7.4661540647321205
1.299308784200415,6.782618707077055
1.3503140378698726,6.16058774309094
1.4033215376054824,5.594642248047756
1.4584098829439835,5.079828656909604
1.5156607589006013,4.611620328930317
1.575159057091621,4.185883658668656
1.6369930016117014,3.7988433597309905
1.7012542798525885,3.447051256802168
1.7680381784572046,3.127358840574764
1.8374437246107238,2.8368920381989806
1.9095738328780953,2.5730274825277784
1.9845354578058014,2.333369482608569
2.0624397525140905,2.115733090309502
2.143402233514853,1.9181268468915598
2.227542951999554,1.7387360312576727
2.314986671851158,1.5759073195711581
2.405863054644063,1.4281344906422324
2.5003068519063225,1.2940451974533962
2.598458104929248,1.1723900477238232
2.7004623524206774,1.0620319429209186
2.806470846309834,0.9619361630494658
2.916640776023701,0.8711613132603865
3.031135501567576,0.7888515440323872
3.150124795755327,0.7142292308657712
3.2737850959485697,0.6465869597163625
3.4022997656780634,0.5852812117238537
3.5358593665351745,0.5297267248923745
3.6746619407366854,0.47939132533666157
3.8189133047818515,0.4337907139164245
3.968827354637162,0.3924842449580774
4.1246263829013445,0.35507178069407247
4.286541408420921,0.32119006020149066
4.4548125188449825,0.29050933992316
4.629689226627261,0.26273035226915004
4.811430839003257,0.23758177421365767
5.000306842491082,0.21481754280365156
5.196597302486189,0.1942142802792382
5.400593278542364,0.17556923156465198
5.612597255954967,0.1586983940096201
5.8329235942862,0.1434348021816976
6.06189899349756,0.1296268867114261
6.29986297838068,0.11713714670395588
6.547168402004727,0.10584092852619431
6.804181968927091,0.09562524088398631
7.071284778942991,0.08638767684132904
7.348872892180382,0.07803543284409728
7.637357916378006,0.0704844129482634
7.937167617217536,0.06365842746286603
8.248746552614573,0.05748846100976621
8.572556731909314,0.05191200433000947
8.909078300934132,0.04687244755924508
9.258810253973934,0.04231854008148609
9.622271173675122,0.03820391383575091
9.999999999999984,0.0344865860195243
