k [1/Mpc],P(k) [Mpc^3]
0.0001,69.880962524994
0.00010392556829367125,73.04433270975557
0.00010800523745162529,76.35086188980952
0.00011224505680853065,79.80702258970008
0.00011665131316981963,83.41957877682556
0.00012123054013376525,87.195598979147
0.00012598952777950273,91.14247037555455
0.00013093533273536104,95.26791267016638
0.00013607528864243335,99.5799934529902
0.00014141701702890234,104.08714626555819
0.00014696843861124463,108.79818811798422
0.00015273778503907136,113.7223328738459
0.00015873361110102093,118.86920044150035
0.00016496480740980205,124.24883929740693
0.0001714406135851971,129.8717520095082
0.00017817063195457305,135.74891872749464
0.00018516484179121546,141.89181407027743
0.000192433614111598,148.31242560299503
0.00019998772705352857,155.0232774816836
0.0002078383818579757,162.03745306546304
0.00021599721947827182,169.3686123644452
0.0002244763378413224,177.0310248446258
0.0002332883097864157,185.03960236460102
0.00024244620170823283,193.40992825826848
0.0002519635929317015,202.15828155809174
0.0002618545958474233,211.3016592963233
0.0002721338768375308,220.85781371746194
0.0002828166780230032,230.84528002947658
0.0002939188398646886,241.28340521808283
0.0003054568246515432,252.19239518492992
0.00031744774091091926,263.5933629491929
0.00032990936877709396,275.5083642759828
0.00034286018635565856,287.96041641527364
0.00035631939712285854,300.9735133327703
0.000370306958400514,314.57269859089246
0.00038484361094874304,328.7841140967758
0.0003999509097203664,343.63504737007827
0.00041565125582259895,359.1539815008128
0.00043196792973341727,375.370645659861
0.0004489251258218605,392.3160670916608
0.0004665479882234472,410.02257811319686
0.000484862648123908,428.5238563600683
0.000503896262506515,447.85502861871936
0.0005236770544204653,468.05273517280796
0.0005442343548300266,489.15519109959513
0.0005655986461065005,511.20222301301794
0.0005878016072274912,534.2353097934322
0.0006108761607505036,558.2976824266906
0.0006348565216305217,583.4343509601924
0.0006597782479539537,609.6921903682611
0.0006856782936641739,637.120017174228
0.0007125950633568407,665.7686214227863
0.0007405684692262436,695.6908859807422
0.0007696399902471156,726.9418348386363
0.0007998527336796708,759.5787135066067
0.000831251498989063,793.6610690185912
0.0008638828442740447,829.2507084032077
0.000897795155303332,866.4118747191427
0.0009330387172620361,905.2113565643631
0.0009696657893145519,945.7185703336224
0.001007730682094461,988.0056320819638
0.0010472898382363582,1032.147215519551
0.0010884019160690055,1078.220751292096
0.0011311278765939214,1126.3065614660934
0.001175531073878369,1176.48788326664
0.0012216773489967915,1228.8510241477084
0.0012696351276599736,1283.4852253585252
0.0013194755216767058,1340.4827939134495
0.0013712724343984,1399.9391971183993
0.0014251026703029975,1461.9528184394417
0.0014810460488806749,1526.6253131694455
0.0015391855229902056,1594.0615483323033
0.001599607301861487,1664.3696324850578
0.0016624009789266115,1737.6610388501624
0.0017276596646690358,1814.0501331516707
0.0017954801246878305,1893.6545499891993
0.0018659629231817451,1976.5950927516317
0.001939212572065829,2062.9955325584933
0.0020153376859417325,2152.982918094671
0.002094451143151469,2246.6869291594285
0.002176670253153458,2344.24011870947
0.002262116930469025,2445.777878497997
0.002350917875457286,2551.4378710586184
0.002443204762186487,2661.3604832193346
0.0025391144336803463,2775.688109080189
0.002638789104828933,2894.5650932164826
0.002742376573264949,3018.137757721682
0.0028500304385181063,3146.5532267097306
0.0029619103297725525,3279.9600238027724
0.0030781821425650787,3418.5073337337662
0.003199018284775064,3562.3444796895133
0.0033245979322709396,3711.621155510037
0.003455107294592217,3866.4857870351557
0.0035907398910610534,4027.0859120128175
0.0037316968377327513,4193.567282277169
0.0038781871456107214,4366.072441066072
0.0040304280305680515,4544.741429962827
0.00418864523543527,4729.709476305521
0.004353073364731888,4921.106961280689
0.00452395623253805,5119.058830042636
0.004701547224022131,5323.681913500092
0.004886109671160325,5535.0860175355365
0.005077917243205399,5753.3710859784915
0.005277254352483535,5978.626225251645
0.005484416576121017,6210.9295169672505
0.005699711094326071,6450.342715304862
0.005923457145875801,6696.913287268554
0.006155986501483508,6950.671788716352
0.006397643955748424,7211.629242408824
0.0066487878384172625,7479.777289650068
0.0069097905457156435,7755.07562773273
0.007181039092537346,8037.456157416141
0.007462935686310132,8326.831247186587
0.007755898323389004,8623.09812523766
0.00806036140886134,8926.125906608135
0.008376776400682916,9235.702047512332
0.008705612479099857,9551.540850393405
0.009047357242349292,9873.32065935568
0.00940251742967013,10200.69923343772
0.009771619672696168,10533.29713472743
0.010155211276345676,10870.687875045596
0.010553861030365234,11212.396047821676
0.010968160052731372,11557.888611830871
0.011398722666160517,11906.522102622195
0.011846187309026826,12257.576498510476
0.012311217482038896,12610.252890519518
0.012794502732078732,12963.659535005792
0.013296759674662111,13316.833176366878
0.013818733056536317,13668.703068596842
0.014361196859990781,14018.10945747009
0.014924955450518284,14363.801967758423
0.015510844769528393,14704.406233517711
0.016119733573881575,15038.468344658259
0.01675252472408214,15364.400559462232
0.017410156523040152,15680.497692874498
0.018093604107387147,15984.971640433329
0.01880388089340914,16275.891965379456
0.019542040079740527,16551.260605081665
0.02030917620904734,16808.97753029219
0.021106426791015535,17046.840155180984
0.021934973989050584,17262.619783462265
0.02279604637318978,17453.993897654065
0.023690920741826323,17618.634748772532
0.02462092401494623,17754.22835059846
0.02558743520168586,17858.464089243065
0.02659188744512693,17929.13952029067
0.027635770147361564,17964.153935318856
0.028720631177978267,17961.567104377536
0.029848079169243254,17919.684186594855
0.03101978590138095,17837.120478581244
0.03223748878149028,17712.805461284574
0.0335029934197723,17546.123435212623
0.03481817630688963,17336.920428942565
0.03618498759642746,17085.548063098842
0.037605453996581675,16793.313857182697
0.03908168177536263,16462.018772953856
0.04061585988376978,16093.97300000141
0.04221026320156896,15692.017722765064
0.04386725591048496,15259.595957788079
0.0455892949998106,14802.964467525937
0.047378933909631396,14329.23872248641
0.049238826317067365,13844.151062953662
0.05117173007114603,13351.242619590552
0.05318051128214196,12854.008915815093
0.05526814857144601,12360.28711404216
0.057437737488265785,11879.899889409644
0.0596924950997073,11421.016703149122
0.0620357647610427,10989.919266122637
0.06447102107323864,10591.661420864028
0.06700187503509585,10229.930828819086
0.06963207939763882,9907.389949497268
0.0723655342286965,9624.493035382126
0.07520629269592405,9380.498619109963
0.07815856707684081,9172.424929661172
0.08122673500479707,8995.929346709632
0.08441534596012978,8844.28526757055
0.0877291280161335,8708.644300180818
0.09117299484984914,8577.745222702215
0.09475205302806537,8438.075526007497
0.09847160957933764,8275.113206972088
0.1023371798632519,8074.816032194635
0.10635449574860109,7826.700065691767
0.11052951411260206,7525.352867003228
0.1148684256737553,7170.740228599141
0.1193776641714435,6768.08905284392
0.1240639159058831,6330.628559383756
0.12893412965257148,5877.646194348397
0.13399552696593373,5432.526974351566
0.1392556128874462,5020.42329938289
0.14472218707411338,4663.762530269267
0.15040335536380234,4377.829332477866
0.15630754179458153,4167.970661222723
0.16244350109588662,4028.6345125907646
0.16882033167003618,3943.8737549237735
0.17544748908334581,3888.6976323496096
0.1823348000868439,3831.841953832982
0.189492477187382,3741.3144859179947
0.19693113379074215,3592.5129984671685
0.20466179993919872,3376.709260728812
0.21269593866686892,3107.0802239930213
0.22104546299710207,2817.974902073685
0.22972275360711503,2552.8985767574122
0.23874067718606454,2346.463911890891
0.2481126055137766,2213.249933920589
0.25785243528842716,2145.052962158651
0.26797460873256895,2111.1694532738193
0.27849413500806414,2067.132324572969
0.28942661247167484,1976.1562016881132
0.3007882518043098,1828.997430225626
0.31259590004822796,1651.3584047724096
0.324867065587837,1489.5342164473523
0.3376199441111335,1378.9616170515105
0.35087344559027084,1322.892884073895
0.36464722232127456,1291.2083003720013
0.37896169806447155,1241.5502149606482
0.3938380983288488,1151.8638751878332
0.4092984818452433,1040.467615936815
0.4253657732750382,947.508006024262
0.44206379720285277,893.2531371521848
0.45941731346364734,861.144133065117
0.47745205385661277,817.2442295305942
0.4961947603002895,749.7825146615489
0.5156732244854959,681.7999210878259
0.5359163290848509,636.5359361151279
0.556954090580013,606.4204782249412
0.5788177037701272,568.1552777589844
0.6015395880274836,519.743142597313
0.6251534353689703,479.7636014533392
0.6496942604146115,452.1311428771669
0.6751984523072497,422.36443291865794
0.7017038286703824,387.96971042983824
0.7292496916841444,359.850723179305
0.7578768863625915,336.8478009519569
0.7876278611187046,311.44028583064426
0.8185467307069019,287.6192743271883
0.850679341636415,267.8855763580837
0.8840733401525058,248.9304986405004
0.9187782428863317,230.43624949310455
0.9548455102782278,212.87271195002512
0.9923286228832539,196.57634613257406
1.0312831606721837,181.6319142836256
1.0717668854455022,167.8943846114141
1.1138398264826193,155.224865993523
1.1575643695533022,143.50450358645347
1.2030053494233226,132.63156222113793
1.2502301459914542,122.52034986562798
1.299308784200415,113.11566272322781
1.3503140378698726,104.37980297288415
1.4033215376054824,96.2757125376377
1.4584098829439835,88.7668642751794
1.5156607589006013,81.81750122347749
1.575159057091621,75.39228009046855
1.6369930016117014,69.45390984354431
1.7012542798525885,63.96634395403258
1.7680381784572046,58.89619029451607
1.8374437246107238,54.212515248837406
1.9095738328780953,49.88665988902168
1.9845354578058014,45.89224834144451
2.0624397525140905,42.205304192327404
2.143402233514853,38.803535012693054
2.227542951999554,35.66612041041403
2.314986671851158,32.773629463875274
2.405863054644063,30.107940377536963
2.5003068519063225,27.65211016323297
2.598458104929248,25.39029412139153
2.7004623524206774,23.30777319357443
2.806470846309834,21.390887763355742
2.916640776023701,19.626966655745544
3.031135501567576,18.004260703404427
3.150124795755327,16.51188423891491
3.2737850959485697,15.139753838934972
3.4022997656780634,13.878528919204836
3.5358593665351745,12.719560437113424
3.6746619407366854,11.654842933345053
3.8189133047818515,10.676969179025273
3.968827354637162,9.779085824900656
4.1246263829013445,8.95485663087192
4.286541408420921,8.198426984302158
4.4548125188449825,7.5043892342562994
4.629689226627261,6.867750333614997
4.811430839003257,6.28390132027036
5.000306842491082,5.748588530416955
5.196597302486189,5.257888617612591
5.400593278542364,4.808184345738209
5.612597255954967,4.396141769545821
5.8329235942862,4.018689010820317
6.06189899349756,3.6729961045086297
6.29986297838068,3.3564565417947216
6.547168402004727,3.0666711342130397
6.804181968927091,2.8014322382879673
7.071284778942991,2.55870903533019
7.348872892180382,2.3366338471061376
7.637357916378006,2.133488743181276
7.937167617217536,1.9476942097614225
8.248746552614573,1.7777991830332374
8.572556731909314,1.6224709510809525
8.909078300934132,1.4804857878603328
9.258810253973934,1.3507204994276392
9.622271173675122,1.2321457283629873
9.999999999999984,1.1238172119537992
