k [1/Mpc],P(k) [Mpc^3]
0.0001,155.68442995995383
0.00010392556829367125,161.32776932207742
0.00010800523745162529,167.17553547672594
0.00011224505680853065,173.2351186309758
0.00011665131316981963,179.51417553704485
0.00012123054013376525,186.02063682966383
0.00012598952777950273,192.7627170617449
0.00013093533273536104,199.7489252411163
0.00013607528864243335,206.9880724815731
0.00014141701702890234,214.4892852365674
0.00014696843861124463,222.2620185769292
0.00015273778503907136,230.31606835732615
0.00015873361110102093,238.66157971060582
0.00016496480740980205,247.30904527159873
0.0001714406135851971,256.26932502411887
0.00017817063195457305,265.5536695081069
0.00018516484179121546,275.1737385351125
0.000192433614111598,285.1416080677963
0.00019998772705352857,295.46977387631546
0.0002078383818579757,306.17116819945056
0.00021599721947827182,317.25917570428334
0.0002244763378413224,328.7476331705056
0.0002332883097864157,340.65086013271116
0.00024244620170823283,352.98369734390525
0.0002519635929317015,365.7615296381418
0.0002618545958474233,379.00027405909043
0.0002721338768375308,392.71632701575084
0.0002828166780230032,406.92662194779706
0.0002939188398646886,421.6487043357108
0.0003054568246515432,436.9007817282935
0.00031744774091091926,452.701695645893
0.00032990936877709396,469.0708635315173
0.00034286018635565856,486.02831689843066
0.00035631939712285854,503.59476381788926
0.000370306958400514,521.791603539743
0.00038484361094874304,540.6409557547735
0.0003999509097203664,560.1656830869233
0.00041565125582259895,580.3894140834055
0.00043196792973341727,601.3365459311781
0.0004489251258218605,623.0321557414411
0.0004665479882234472,645.5020928366969
0.000484862648123908,668.7730608633694
0.000503896262506515,692.8726577591174
0.0005236770544204653,717.8293643702664
0.0005442343548300266,743.6724447945817
0.0005655986461065005,770.4320069596874
0.0005878016072274912,798.1390737219883
0.0006108761607505036,826.8255627049235
0.0006348565216305217,856.5243521488418
0.0006597782479539537,887.2692713341701
0.0006856782936641739,919.0951192775325
0.0007125950633568407,952.0376802126848
0.0007405684692262436,986.133553543997
0.0007696399902471156,1021.4203027218451
0.0007998527336796708,1057.9365439754838
0.000831251498989063,1095.7219685669252
0.0008638828442740447,1134.8173224613174
0.000897795155303332,1175.2641239726677
0.0009330387172620361,1217.1047851692213
0.0009696657893145519,1260.382739875288
0.001007730682094461,1305.1423822797929
0.0010472898382363582,1351.429139392985
0.0010884019160690055,1399.2892557056518
0.0011311278765939214,1448.769789084464
0.001175531073878369,1499.918693741399
0.0012216773489967915,1552.7844241160774
0.0012696351276599736,1607.4162044838376
0.0013194755216767058,1663.8639225981585
0.0013712724343984,1722.1779786434004
0.0014251026703029975,1782.409441980051
0.0014810460488806749,1844.6094793199202
0.0015391855229902056,1908.8295494308102
0.001599607301861487,1975.1213970593112
0.0016624009789266115,2043.5366347969239
0.0017276596646690358,2114.127053194315
0.0017954801246878305,2186.9439975241794
0.0018659629231817451,2262.038319204605
0.001939212572065829,2339.460537540892
0.0020153376859417325,2419.260047760853
0.002094451143151469,2501.485533456895
0.002176670253153458,2586.1843590181643
0.002262116930469025,2673.40210183807
0.002350917875457286,2763.1830568300456
0.002443204762186487,2855.569408390123
0.0025391144336803463,2950.6013972588103
0.002638789104828933,3048.316816298619
0.002742376573264949,3148.749940156267
0.0028500304385181063,3251.9323155660286
0.0029619103297725525,3357.8918796766907
0.0030781821425650787,3466.6528241933675
0.003199018284775064,3578.2354673262207
0.0033245979322709396,3692.654712355126
0.003455107294592217,3809.920799042044
0.0035907398910610534,3930.038154566149
0.0037316968377327513,4053.004652499729
0.0038781871456107214,4178.812239415865
0.0040304280305680515,4307.444914231203
0.00418864523543527,4438.879333698449
0.004353073364731888,4573.084022205397
0.00452395623253805,4710.017659478774
0.004701547224022131,4849.630326468723
0.004886109671160325,4991.860617679957
0.005077917243205399,5136.635862678137
0.005277254352483535,5283.872876506034
0.005484416576121017,5433.475906413589
0.005699711094326071,5585.337571676438
0.005923457145875801,5739.331347958066
0.006155986501483508,5895.309418705126
0.006397643955748424,6053.1128573672
0.0066487878384172625,6212.587428477902
0.0069097905457156435,6373.573388104028
0.007181039092537346,6535.8655636886215
0.007462935686310132,6699.181320105149
0.007755898323389004,6863.214754306968
0.00806036140886134,7027.690283551338
0.008376776400682916,7192.34828305405
0.008705612479099857,7356.893368681999
0.009047357242349292,7520.944028080548
0.00940251742967013,7684.085370468044
0.009771619672696168,7845.912687083518
0.010155211276345676,8006.035623188296
0.010553861030365234,8164.039105048642
0.010968160052731372,8319.430712108087
0.011398722666160517,8471.67876022562
0.011846187309026826,8620.219700424555
0.012311217482038896,8764.44962696225
0.012794502732078732,8903.745075417264
0.013296759674662111,9037.454944043127
0.013818733056536317,9164.908914189393
0.014361196859990781,9285.411328126485
0.014924955450518284,9398.21323550656
0.015510844769528393,9502.55312922981
0.016119733573881575,9597.639733260883
0.01675252472408214,9682.658851671908
0.017410156523040152,9756.797535707592
0.018093604107387147,9819.213314117833
0.01880388089340914,9869.074510757055
0.019542040079740527,9905.55691440033
0.02030917620904734,9927.838972957119
0.021106426791015535,9935.144910215311
0.021934973989050584,9926.728002563696
0.02279604637318978,9901.898558407755
0.023690920741826323,9860.04790065233
0.02462092401494623,9800.652139245476
0.02558743520168586,9723.295667472788
0.02659188744512693,9627.705478162243
0.027635770147361564,9513.755709844801
0.028720631177978267,9381.481197254552
0.029848079169243254,9231.16577680167
0.03101978590138095,9063.260610675112
0.03223748878149028,8878.478710506448
0.0335029934197723,8677.826101240466
0.03481817630688963,8462.462313931523
0.03618498759642746,8233.973870478272
0.037605453996581675,7994.132321303566
0.03908168177536263,7744.895974798937
0.04061585988376978,7488.604817989594
0.04221026320156896,7227.565421489837
0.04386725591048496,6964.532390389403
0.0455892949998106,6702.44759831925
0.047378933909631396,6443.9302299033625
0.049238826317067365,6191.3043976454455
0.05117173007114603,5946.590431489315
0.05318051128214196,5712.325872290577
0.05526814857144601,5491.643586367067
0.057437737488265785,5286.936318822357
0.0596924950997073,5098.89762846535
0.0620357647610427,4927.62242429575
0.06447102107323864,4772.375477020045
0.06700187503509585,4631.956384148122
0.06963207939763882,4504.416716961137
0.0723655342286965,4387.27822828562
0.07520629269592405,4277.423705924729
0.07815856707684081,4171.282207786737
0.08122673500479707,4064.4330935746316
0.08441534596012978,3952.173085412719
0.0877291280161335,3829.700038831068
0.09117299484984914,3693.243268426588
0.09475205302806537,3540.1567467451014
0.09847160957933764,3369.0599175685347
0.1023371798632519,3181.76791457756
0.10635449574860109,2982.782568801224
0.11052951411260206,2778.56031957145
0.1148684256737553,2576.819557607928
0.1193776641714435,2385.691029296762
0.1240639159058831,2212.7551985798564
0.12893412965257148,2064.116816056231
0.13399552696593373,1942.931759745942
0.1392556128874462,1848.5932801539063
0.14472218707411338,1776.7230665793554
0.15040335536380234,1719.7934538521445
0.15630754179458153,1668.2312817586758
0.16244350109588662,1611.8279901383557
0.16882033167003618,1541.8503270277608
0.17544748908334581,1453.697808433918
0.1823348000868439,1348.8096813306654
0.189492477187382,1234.74928973953
0.19693113379074215,1123.3574231052348
0.20466179993919872,1026.7823094395649
0.21269593866686892,952.3705677799989
0.22104546299710207,900.0637240728471
0.22972275360711503,863.5965328464487
0.23874067718606454,832.330232388639
0.2481126055137766,794.0991228303506
0.25785243528842716,742.0744428730253
0.26797460873256895,679.2891238059377
0.27849413500806414,615.7168805463931
0.28942661247167484,562.2519040291129
0.3007882518043098,524.15914778069
0.31259590004822796,498.10336051462684
0.324867065587837,474.38802865624916
0.3376199441111335,444.13882578280607
0.35087344559027084,406.9689685489634
0.36464722232127456,369.8525880300116
0.37896169806447155,340.3699005017361
0.3938380983288488,319.3743335245071
0.4092984818452433,300.83683462621985
0.4253657732750382,279.0393338005479
0.44206379720285277,254.9521610619947
0.45941731346364734,233.71736556876823
0.47745205385661277,217.45929816337366
0.4961947603002895,202.87546802911007
0.5156732244854959,186.97686105317555
0.5359163290848509,171.20935975140733
0.556954090580013,158.06095869056733
0.5788177037701272,146.62521291844305
0.6015395880274836,135.01058277543575
0.6251534353689703,123.88761444581742
0.6496942604146115,114.27809882342642
0.6751984523072497,105.39085065889334
0.7017038286703824,96.76039194969138
0.7292496916841444,88.97477342933844
0.7578768863625915,81.88745507441384
0.7876278611187046,75.17190088293803
0.8185467307069019,68.98161321499622
0.850679341636415,63.320347577423256
0.8840733401525058,58.12719004090888
0.9187782428863317,53.35004808678616
0.9548455102782278,48.94442167816352
0.9923286228832539,44.87586490936524
1.0312831606721837,41.122352155629414
1.0717668854455022,37.663941870751415
1.1138398264826193,34.48129141060516
1.1575643695533022,31.555744115610075
1.2030053494233226,28.86938234276087
1.2502301459914542,26.4043789623378
1.299308784200415,24.142999482227555
1.3503140378698726,22.068825228692514
1.4033215376054824,20.166746890907334
1.4584098829439835,18.422859554888234
1.5156607589006013,16.824373666292054
1.575159057091621,15.359657604669737
1.6369930016117014,14.018089058556386
1.7012542798525885,12.789830304280457
1.7680381784572046,11.665771710075568
1.8374437246107238,10.637484109217452
1.9095738328780953,9.697170363112841
1.9845354578058014,8.837595929914029
2.0624397525140905,8.052073400346949
2.143402233514853,7.334444391735699
2.227542951999554,6.6790403688944595
2.314986671851158,6.080645879494151
2.405863054644063,5.534464962004935
2.5003068519063225,5.036091809991929
2.598458104929248,4.581477794671691
2.7004623524206774,4.166902783060512
2.806470846309834,3.788949962109484
2.916640776023701,3.4444824450831617
3.031135501567576,3.1306210718222482
3.150124795755327,2.844723410043802
3.2737850959485697,2.58436675899254
3.4022997656780634,2.347331062420388
3.5358593665351745,2.1315827058605494
3.6746619407366854,1.9352595321366772
3.8189133047818515,1.7566567291991382
3.968827354637162,1.5942139037197112
4.1246263829013445,1.4465038827741177
4.286541408420921,1.3122218341045324
4.4548125188449825,1.1901751618046124
4.629689226627261,1.0792741960045515
4.811430839003257,0.9785235649757629
5.000306842491082,0.8870143176134472
5.196597302486189,0.8039167492457631
5.400593278542364,0.7284737218398364
5.612597255954967,0.6599945192374488
5.8329235942862,0.5978491943161881
6.06189899349756,0.5414632837330039
6.29986297838068,0.49031312045087666
6.547168402004727,0.4439215671714174
6.804181968927091,0.4018539981843835
7.071284778942991,0.3637146138786953
7.348872892180382,0.32914304615807827
7.637357916378006,0.2978111526690308
7.937167617217536,0.2694203120137419
8.248746552614573,0.24369890538680275
8.572556731909314,0.22039992956355253
8.909078300934132,0.19929881484478923
9.258810253973934,0.18019148004225718
9.622271173675122,0.16289265774542072
9.999999999999984,0.14723399898365253
