k [1/Mpc],P(k) [Mpc^3]
0.0001,384.3890137319264
0.00010392556829367125,400.57231550218347
0.00010800523745162529,417.4319224977024
0.00011224505680853065,434.9954987820114
0.00011665131316981963,453.2917602947185
0.00012123054013376525,472.3504532470779
0.00012598952777950273,492.20245702668507
0.00013093533273536104,512.8798126464735
0.00013607528864243335,534.4157645813134
0.00014141701702890234,556.8447884647865
0.00014696843861124463,580.202529023498
0.00015273778503907136,604.5259177517535
0.00015873361110102093,629.8531677861312
0.00016496480740980205,656.223779579095
0.0001714406135851971,683.6786465703566
0.00017817063195457305,712.2599999296078
0.00018516484179121546,742.0114963007295
0.000192433614111598,772.9781674332942
0.00019998772705352857,805.2062898061832
0.0002078383818579757,838.7436144028057
0.00021599721947827182,873.6393124847525
0.0002244763378413224,909.944024780495
0.0002332883097864157,947.7098537128047
0.00024244620170823283,986.9900978659945
0.0002519635929317015,1027.8395091086543
0.0002618545958474233,1070.3141587624357
0.0002721338768375308,1114.4713865957297
0.0002828166780230032,1160.3699353654965
0.0002939188398646886,1208.0695708695969
0.0003054568246515432,1257.63129275804
0.00031744774091091926,1309.1172747385795
0.00032990936877709396,1362.5906644238974
0.00034286018635565856,1418.1157484692662
0.00035631939712285854,1475.7573678550257
0.000370306958400514,1535.5810226354654
0.00038484361094874304,1597.653014963079
0.0003999509097203664,1662.0401490794134
0.00041565125582259895,1728.8098378836144
0.00043196792973341727,1798.0294745516085
0.0004489251258218605,1869.7662575804095
0.0004665479882234472,1944.0874188325918
0.000484862648123908,2021.0595978691154
0.000503896262506515,2100.749010457569
0.0005236770544204653,2183.220940219205
0.0005442343548300266,2268.5392115963223
0.0005655986461065005,2356.766440095651
0.0005878016072274912,2447.9627864574823
0.0006108761607505036,2542.18611741444
0.0006348565216305217,2639.491604242096
0.0006597782479539537,2739.930385935733
0.0006856782936641739,2843.5502797593117
0.0007125950633568407,2950.3940322705835
0.0007405684692262436,3060.4990145758893
0.0007696399902471156,3173.8974023984365
0.0007998527336796708,3290.613882847796
0.000831251498989063,3410.6666118889184
0.0008638828442740447,3534.065728448318
0.000897795155303332,3660.812166850162
0.0009330387172620361,3790.8986044723374
0.0009696657893145519,3924.307994481786
0.001007730682094461,4061.013525539505
0.0010472898382363582,4200.977334181201
0.0010884019160690055,4344.148511338543
0.0011311278765939214,4490.464155555008
0.001175531073878369,4639.8465545298695
0.0012216773489967915,4792.203087546996
0.0012696351276599736,4947.428427063119
0.0013194755216767058,5105.406993442646
0.0013712724343984,5266.009785241928
0.0014251026703029975,5429.091932113414
0.0014810460488806749,5594.491995192183
0.0015391855229902056,5762.031104521374
0.001599607301861487,5931.504356442751
0.0016624009789266115,6102.685740537425
0.0017276596646690358,6275.335335856314
0.0017954801246878305,6449.2029123426155
0.0018659629231817451,6624.02171333283
0.001939212572065829,6799.506239618443
0.0020153376859417325,6975.35292295934
0.002094451143151469,7151.241314965907
0.002176670253153458,7326.83451921986
0.002262116930469025,7501.779646058412
0.002350917875457286,7675.709599687566
0.002443204762186487,7848.243821993781
0.0025391144336803463,8018.987579353285
0.002638789104828933,8187.530950462259
0.002742376573264949,8353.451359198472
0.0028500304385181063,8516.314727350016
0.0029619103297725525,8675.676414353786
0.0030781821425650787,8831.083549652009
0.003199018284775064,8982.076065801793
0.0033245979322709396,9128.188652214405
0.003455107294592217,9268.915248728914
0.0035907398910610534,9403.655948046202
0.0037316968377327513,9531.805108925235
0.0038781871456107214,9652.961625471762
0.0040304280305680515,9766.899953223157
0.00418864523543527,9873.26520339671
0.004353073364731888,9971.102532627792
0.00452395623253805,10059.305990755112
0.004701547224022131,10137.058768374314
0.004886109671160325,10203.92551147309
0.005077917243205399,10259.515351355893
0.005277254352483535,10303.412471906637
0.005484416576121017,10335.211501942325
0.005699711094326071,10354.429724990063
0.005923457145875801,10360.394049217914
0.006155986501483508,10352.443735853218
0.006397643955748424,10329.876937102603
0.0066487878384172625,10291.992740595277
0.0069097905457156435,10238.137500757435
0.007181039092537346,10167.651065248334
0.007462935686310132,10079.952722708656
0.007755898323389004,9974.46851787913
0.00806036140886134,9850.642520611678
0.008376776400682916,9707.995578827398
0.008705612479099857,9545.827080038925
0.009047357242349292,9363.516159087056
0.00940251742967013,9160.582566000385
0.009771619672696168,8936.64666400958
0.010155211276345676,8691.570621576855
0.010553861030365234,8424.988554499629
0.010968160052731372,8136.655802954783
0.011398722666160517,7826.670888368711
0.011846187309026826,7495.254949177849
0.012311217482038896,7143.143416031862
0.012794502732078732,6770.546769786895
0.013296759674662111,6377.585432948111
0.013818733056536317,5965.77102449594
0.014361196859990781,5538.688027740001
0.014924955450518284,5100.834479527755
0.015510844769528393,4652.042575075376
0.016119733573881575,4187.712187946301
0.01675252472408214,3710.1145130490568
0.017410156523040152,3240.2589880593523
0.018093604107387147,2800.2608196649835
0.01880388089340914,2380.9241428663954
0.019542040079740527,1936.2903464753012
0.02030917620904734,1465.112743206557
0.021106426791015535,1063.5807778630408
0.021934973989050584,799.52537907628
0.02279604637318978,617.1920460066921
0.023690920741826323,345.8532500603897
0.02462092401494623,93.36995727639874
0.02558743520168586,16.434634510993405
0.02659188744512693,6.184014157712071
0.027635770147361564,13.49448096582866
0.028720631177978267,89.00512107917748
0.029848079169243254,469.93861369670645
0.03101978590138095,943.8019400461751
0.03223748878149028,1102.2304361612244
0.0335029934197723,1272.6715926854781
0.03481817630688963,1667.2967123504334
0.03618498759642746,2186.025115100034
0.037605453996581675,2607.2476657254388
0.03908168177536263,2884.681787382912
0.04061585988376978,3085.7064881585347
0.04221026320156896,3227.1562565581035
0.04386725591048496,3258.6669607595686
0.0455892949998106,3152.7549494456357
0.047378933909631396,2925.546469413658
0.049238826317067365,2595.004194285912
0.05117173007114603,2171.6271170577406
0.05318051128214196,1703.4433318183105
0.05526814857144601,1255.9158074880154
0.057437737488265785,823.3437728821893
0.0596924950997073,445.35061051602275
0.0620357647610427,226.44266646734042
0.06447102107323864,67.32403326701717
0.06700187503509585,4.386555400021622
0.06963207939763882,3.43551311614898
0.0723655342286965,50.372787385657304
0.07520629269592405,85.5068978316413
0.07815856707684081,76.63909545997922
0.08122673500479707,61.115317052723775
0.08441534596012978,21.394916311735937
0.0877291280161335,3.1510170633344363
0.09117299484984914,8.80338522900515
0.09475205302806537,106.72261487331481
0.09847160957933764,185.28345421418035
0.1023371798632519,280.18910511114575
0.10635449574860109,325.64629028894075
0.11052951411260206,289.59001040449016
0.1148684256737553,215.38263583426644
0.1193776641714435,88.03767610300069
0.1240639159058831,43.39073794494675
0.12893412965257148,0.0585326802328826
0.13399552696593373,7.979275218723989
0.1392556128874462,14.18503485089313
0.14472218707411338,11.248302662001523
0.15040335536380234,0.364143890453114
0.15630754179458153,12.494438151732595
0.16244350109588662,43.411800613539675
0.16882033167003618,74.90689924074194
0.17544748908334581,67.52344034477542
0.1823348000868439,34.517069448778834
0.189492477187382,7.8267480744942795
0.19693113379074215,0.047891856873900095
0.20466179993919872,1.7366298468428552
0.21269593866686892,0.00012782205830635796
0.22104546299710207,12.716802538411736
0.22972275360711503,18.443970448183663
0.23874067718606454,21.83190047051705
0.2481126055137766,11.18829526204963
0.25785243528842716,1.5060126290285192
0.26797460873256895,0.010180652400342103
0.27849413500806414,0.02068848646512657
0.28942661247167484,2.788646191604933
0.3007882518043098,7.252139393164465
0.31259590004822796,5.237542152259452
0.324867065587837,1.0865315361053327
0.3376199441111335,0.1309505594208479
0.35087344559027084,0.713445563184647
0.36464722232127456,2.580821311264078
0.37896169806447155,2.370733219925491
0.3938380983288488,0.7006226970859784
0.4092984818452433,0.3251264469055586
0.4253657732750382,0.9163249297842617
0.44206379720285277,1.3001629032274347
0.45941731346364734,0.616345230011232
0.47745205385661277,0.3758711825449372
0.4961947603002895,0.6056487469540259
0.5156732244854959,0.6368621465947105
0.5359163290848509,0.3823505164428653
0.556954090580013,0.2536715767958661
0.5788177037701272,0.20563571236743391
0.6015395880274836,0.19329201231031606
0.6251534353689703,0.19935606605071896
0.6496942604146115,0.21347977040055433
0.6751984523072497,0.2245987157635981
0.7017038286703824,0.2223468065313858
0.7292496916841444,0.20800990406047784
0.7578768863625915,0.18684843957330913
0.7876278611187046,0.16374578714547858
0.8185467307069019,0.14224887747509876
0.850679341636415,0.12444456804981471
0.8840733401525058,0.11051004578548836
0.9187782428863317,0.0993095754085993
0.9548455102782278,0.0899599210021529
0.9923286228832539,0.08182398029373837
1.0312831606721837,0.0744373247257137
1.0717668854455022,0.06748794089003793
1.1138398264826193,0.06094467478248216
1.1575643695533022,0.05487437801656035
1.2030053494233226,0.049315630499584866
1.2502301459914542,0.04428305490802867
1.299308784200415,0.0397727246912479
1.3503140378698726,0.03575681523157959
1.4033215376054824,0.03217455067374333
1.4584098829439835,0.02896881244287434
1.5156607589006013,0.026091425161581996
1.575159057091621,0.023501640955349942
1.6369930016117014,0.021165015453622264
1.7012542798525885,0.01905511541007377
1.7680381784572046,0.017151514742768277
1.8374437246107238,0.015435487703683954
1.9095738328780953,0.013889745322118811
1.9845354578058014,0.012498368769857432
2.0624397525140905,0.011246653732169818
2.143402233514853,0.010120637325042172
2.227542951999554,0.009107544611513915
2.314986671851158,0.008195925221511339
2.405863054644063,0.007375512956225008
2.5003068519063225,0.006637100139078857
2.598458104929248,0.005972446349464698
2.7004623524206774,0.005374192525327742
2.806470846309834,0.004835719220847484
2.916640776023701,0.004351065689109613
3.031135501567576,0.003914864433965881
3.150124795755327,0.0035222825694723662
3.2737850959485697,0.0031689733616490157
3.4022997656780634,0.0028510252793865275
3.5358593665351745,0.0025649140005291893
3.6746619407366854,0.0023074642675039677
3.8189133047818515,0.002075815606454276
3.968827354637162,0.0018673900257671658
4.1246263829013445,0.0016798597474190235
4.286541408420921,0.0015111287876156691
4.4548125188449825,0.0013593119675491677
4.629689226627261,0.001222713612345696
4.811430839003257,0.0010998084317334724
5.000306842491082,0.0009892255913878038
5.196597302486189,0.0008897335239795434
5.400593278542364,0.0008002234895307106
5.612597255954967,0.0007196971483493853
5.8329235942862,0.0006472556203010221
6.06189899349756,0.0005820895874627907
6.29986297838068,0.0005234700604463094
6.547168402004727,0.0004707406724809885
6.804181968927091,0.00042331074900149205
7.071284778942991,0.0003806487474182212
7.348872892180382,0.00034227634609508155
7.637357916378006,0.00030776304059883393
7.937167617217536,0.00027672118125473915
8.248746552614573,0.0002488019964456332
8.572556731909314,0.00022369176442338718
8.909078300934132,0.00020110828509081123
9.258810253973934,0.00018079771116037065
9.622271173675122,0.00016253182022983668
9.999999999999984,0.0001461054311230536
