k [1/Mpc],P(k) [Mpc^3]
0.0001,318.7551890768866
0.00010392556829367125,329.3579787812759
0.00010800523745162529,340.31327024151153
0.00011224505680853065,351.63275767506497
0.00011665131316981963,363.3285186539635
0.00012123054013376525,375.4130268164747
0.00012598952777950273,387.8991666241758
0.00013093533273536104,400.80024493458905
0.00013607528864243335,414.13000665446
0.00014141701702890234,427.9026590921235
0.00014696843861124463,442.13289101242094
0.00015273778503907136,456.835872323655
0.00015873361110102093,472.0272356222554
0.00016496480740980205,487.72310981279963
0.0001714406135851971,503.94016154041594
0.00017817063195457305,520.6956243725645
0.00018516484179121546,538.0072992355493
0.000192433614111598,555.8935590011216
0.00019998772705352857,574.3733701029948
0.0002078383818579757,593.4663070502179
0.00021599721947827182,613.1925453458904
0.0002244763378413224,633.572907904978
0.0002332883097864157,654.628906780087
0.00024244620170823283,676.3827664581843
0.0002519635929317015,698.8574265690694
0.0002618545958474233,722.0765355819476
0.0002721338768375308,746.0644930164838
0.0002828166780230032,770.8464548454782
0.0002939188398646886,796.4483396160452
0.0003054568246515432,822.8968914806502
0.00031744774091091926,850.2197398136191
0.00032990936877709396,878.4454119740379
0.00034286018635565856,907.6032891491454
0.00035631939712285854,937.7235514434345
0.000370306958400514,968.8373014900674
0.00038484361094874304,1000.9766033306915
0.0003999509097203664,1034.1745111426092
0.00041565125582259895,1068.465100856351
0.00043196792973341727,1103.8834979917801
0.0004489251258218605,1140.4659045545113
0.0004665479882234472,1178.2494913579014
0.000484862648123908,1217.272388685929
0.000503896262506515,1257.5738527974656
0.0005236770544204653,1299.1943079808527
0.0005442343548300266,1342.1753735987877
0.0005655986461065005,1386.5598188005692
0.0005878016072274912,1432.3915270716625
0.0006108761607505036,1479.715615958623
0.0006348565216305217,1528.5783536842125
0.0006597782479539537,1579.027229884361
0.0006856782936641739,1631.1109937289414
0.0007125950633568407,1684.879572153173
0.0007405684692262436,1740.384207797413
0.0007696399902471156,1797.6774075822925
0.0007998527336796708,1856.812968676297
0.000831251498989063,1917.845997167673
0.0008638828442740447,1980.8326304778004
0.000897795155303332,2045.8302878740758
0.0009330387172620361,2112.897744174328
0.0009696657893145519,2182.095130685981
0.001007730682094461,2253.4839073643716
0.0010472898382363582,2327.1263496220968
0.0010884019160690055,2403.085826069562
0.0011311278765939214,2481.4269102461344
0.001175531073878369,2562.2152387510296
0.0012216773489967915,2645.5176569051505
0.0012696351276599736,2731.4017292641593
0.0013194755216767058,2819.9358433966872
0.0013712724343984,2911.1892244606343
0.0014251026703029975,3005.2312481863078
0.0014810460488806749,3102.1320154941736
0.0015391855229902056,3201.9620491854994
0.001599607301861487,3304.792185677441
0.0016624009789266115,3410.693653585361
0.0017276596646690358,3519.7369882355033
0.0017954801246878305,3631.9926446475984
0.0018659629231817451,3747.53066323467
0.001939212572065829,3866.420166388924
0.0020153376859417325,3988.7298339969257
0.002094451143151469,4114.526593586567
0.002176670253153458,4243.876006995667
0.002262116930469025,4376.842136121202
0.002350917875457286,4513.48647351585
0.002443204762186487,4653.868732922198
0.0025391144336803463,4798.045564001533
0.002638789104828933,4946.070484334784
0.002742376573264949,5097.993960848658
0.0028500304385181063,5253.861481056371
0.0029619103297725525,5413.7146868427435
0.0030781821425650787,5577.590257643539
0.003199018284775064,5745.519223565832
0.0033245979322709396,5917.527536660945
0.003455107294592217,6093.633663169329
0.0035907398910610534,6273.84949428065
0.0037316968377327513,6458.179239160972
0.0038781871456107214,6646.617606419449
0.0040304280305680515,6839.151329203683
0.00418864523543527,7035.756110819384
0.004353073364731888,7236.3971491676175
0.00452395623253805,7441.028834893131
0.004701547224022131,7649.591489822982
0.004886109671160325,7862.013702533611
0.005077917243205399,8078.209018113314
0.005277254352483535,8298.075463679219
0.005484416576121017,8521.496218311693
0.005699711094326071,8748.33333131236
0.005923457145875801,8978.431749013347
0.006155986501483508,9211.616926782348
0.006397643955748424,9447.69264503849
0.0066487878384172625,9686.442609700409
0.0069097905457156435,9927.615713373647
0.007181039092537346,10170.933502324597
0.007462935686310132,10416.102353002942
0.007755898323389004,10662.820081959442
0.00806036140886134,10910.76091204446
0.008376776400682916,11159.512475361043
0.008705612479099857,11408.591327256137
0.009047357242349292,11657.4914466302
0.00940251742967013,11905.704076941684
0.009771619672696168,12152.69935615893
0.010155211276345676,12397.916941007295
0.010553861030365234,12640.766336635621
0.010968160052731372,12880.619647916263
0.011398722666160517,13116.756354856125
0.011846187309026826,13348.406351706572
0.012311217482038896,13574.751258328582
0.012794502732078732,13794.913399350115
0.013296759674662111,14007.98276288602
0.013818733056536317,14212.982661660408
0.014361196859990781,14408.893830896794
0.014924955450518284,14594.656608499832
0.015510844769528393,14769.141183653926
0.016119733573881575,14931.19726942654
0.01675252472408214,15079.603621532793
0.017410156523040152,15213.089681931446
0.018093604107387147,15330.373301867994
0.01880388089340914,15430.106947656279
0.019542040079740527,15510.953367599834
0.02030917620904734,15571.555197145393
0.021106426791015535,15610.53759012335
0.021934973989050584,15626.580488496169
0.02279604637318978,15618.356996614768
0.023690920741826323,15584.614196498464
0.02462092401494623,15524.18759939538
0.02558743520168586,15435.989102517568
0.02659188744512693,15319.094064026282
0.027635770147361564,15172.728321831557
0.028720631177978267,14996.310239567732
0.029848079169243254,14789.511189887256
0.03101978590138095,14552.295070755146
0.03223748878149028,14284.90566932436
0.0335029934197723,13987.963225477111
0.03481817630688963,13662.448412593421
0.03618498759642746,13309.715466599131
0.037605453996581675,12931.816670835917
0.03908168177536263,12531.10891216137
0.04061585988376978,12110.245798123286
0.04221026320156896,11672.17410911497
0.04386725591048496,11220.165924129446
0.0455892949998106,10759.404101248536
0.047378933909631396,10295.463848384918
0.049238826317067365,9832.691356348158
0.05117173007114603,9373.699850628163
0.05318051128214196,8920.952553006271
0.05526814857144601,8479.777740317755
0.057437737488265785,8056.603094523298
0.0596924950997073,7656.446147161903
0.0620357647610427,7282.831217518937
0.06447102107323864,6938.300575897057
0.06700187503509585,6624.376311089309
0.06963207939763882,6341.833456533684
0.0723655342286965,6089.9919144969135
0.07520629269592405,5867.431862476817
0.07815856707684081,5671.390804047653
0.08122673500479707,5498.379631773599
0.08441534596012978,5343.609409114433
0.0877291280161335,5201.226826027793
0.09117299484984914,5064.209477118907
0.09475205302806537,4924.534732728172
0.09847160957933764,4773.9626622554015
0.1023371798632519,4604.908322608718
0.10635449574860109,4412.150525970889
0.11052951411260206,4193.549521651529
0.1148684256737553,3950.046192312004
0.1193776641714435,3685.4245673915602
0.1240639159058831,3407.6232473430136
0.12893412965257148,3127.4577938955094
0.13399552696593373,2857.414119159282
0.1392556128874462,2610.3269604662764
0.14472218707411338,2397.0344680649955
0.15040335536380234,2224.2313335232307
0.15630754179458153,2093.288360279042
0.16244350109588662,2000.0716400697831
0.16882033167003618,1935.5035179541808
0.17544748908334581,1886.506968436795
0.1823348000868439,1837.5751271883096
0.189492477187382,1773.5564201385987
0.19693113379074215,1683.458516445129
0.20466179993919872,1564.1594301837467
0.21269593866686892,1422.7319772667747
0.22104546299710207,1275.5310189056058
0.22972275360711503,1142.2751855969082
0.23874067718606454,1037.8493987370373
0.2481126055137766,967.6854170884985
0.25785243528842716,927.0966964444098
0.26797460873256895,901.9726834710333
0.27849413500806414,873.0152848504863
0.28942661247167484,825.0079174255858
0.3007882518043098,754.8023083285613
0.31259590004822796,673.6661770160682
0.324867065587837,600.6716894663027
0.3376199441111335,549.695440948182
0.35087344559027084,521.2882250239502
0.36464722232127456,502.95927523012165
0.37896169806447155,478.0618407411402
0.3938380983288488,438.4339998646668
0.4092984818452433,391.48480728186337
0.4253657732750382,352.41347910382456
0.44206379720285277,328.41837691608856
0.45941731346364734,312.9767129056306
0.47745205385661277,293.6103212570828
0.4961947603002895,266.27968914161175
0.5156732244854959,239.35524976550116
0.5359163290848509,220.89821949707277
0.556954090580013,208.03021810787632
0.5788177037701272,192.66502747651901
0.6015395880274836,174.22396332983286
0.6251534353689703,158.9753151458041
0.6496942604146115,148.09830859682833
0.6751984523072497,136.75911860369496
0.7017038286703824,124.17954152065347
0.7292496916841444,113.85651560336504
0.7578768863625915,105.35435753480878
0.7876278611187046,96.28903925449423
0.8185467307069019,87.90292527363663
0.850679341636415,80.9315671424358
0.8840733401525058,74.34127512893384
0.9187782428863317,68.02772896068399
0.9548455102782278,62.12100098866943
0.9923286228832539,56.706518956235186
1.0312831606721837,51.793727492334625
1.0717668854455022,47.3265074309992
1.1138398264826193,43.252663459428476
1.1575643695533022,39.52759314916203
1.2030053494233226,36.11311931244816
1.2502301459914542,32.97688453066347
1.299308784200415,30.095905681537033
1.3503140378698726,27.452659482468395
1.4033215376054824,25.030410353052375
1.4584098829439835,22.813156729983504
1.5156607589006013,20.785668413957954
1.575159057091621,18.93337072606346
1.6369930016117014,17.241737840141422
1.7012542798525885,15.697089879451413
1.7680381784572046,14.286903025866229
1.8374437246107238,12.999711928006976
1.9095738328780953,11.825019782110266
1.9845354578058014,10.753257890922566
2.0624397525140905,9.775771431675587
2.143402233514853,8.8846141853274
2.227542951999554,8.072469830377525
2.314986671851158,7.332606442222037
2.405863054644063,6.65883359047336
2.5003068519063225,6.045450511078662
2.598458104929248,5.487207725375822
2.7004623524206774,4.979293549583951
2.806470846309834,4.517301041244606
2.916640776023701,4.097195498931878
3.031135501567576,3.7152844752430276
3.150124795755327,3.3681908575315465
3.2737850959485697,3.052826683186738
3.4022997656780634,2.7663686057976715
3.5358593665351745,2.50623617017955
3.6746619407366854,2.270071796194201
3.8189133047818515,2.055722240632261
3.968827354637162,1.8612211573040605
4.1246263829013445,1.684773945687522
4.286541408420921,1.5247435728409973
4.4548125188449825,1.3796372366803413
4.629689226627261,1.2480941053901438
4.811430839003257,1.1288739918381239
5.000306842491082,1.020846896062924
5.196597302486189,0.9229837352824868
5.400593278542364,0.8343476631814766
5.612597255954967,0.7540860569071273
5.8329235942862,0.6814231727000126
6.06189899349756,0.6156533461851265
6.29986297838068,0.5561348138278673
6.547168402004727,0.5022842230763424
6.804181968927091,0.4535714722399583
7.071284778942991,0.4095149769869743
7.348872892180382,0.36967733767165945
7.637357916378006,0.33366126949773695
7.937167617217536,0.3011060577244353
8.248746552614573,0.2716843983918652
8.572556731909314,0.24509937552931693
8.909078300934132,0.2210816998550941
9.258810253973934,0.19938722135116063
9.622271173675122,0.17979482335696484
9.999999999999984,0.162104124336177
