k [1/Mpc],P(k) [Mpc^3]
0.0001,425.06348380200376
0.00010392556829367125,439.2012009578534
0.00010800523745162529,453.80881771463305
0.00011224505680853065,468.9018894245695
0.00011665131316981963,484.4964811598174
0.00012123054013376525,500.60920241203996
0.00012598952777950273,517.2572182116456
0.00013093533273536104,534.4582554122838
0.00013607528864243335,552.2306145706635
0.00014141701702890234,570.593196011534
0.00014696843861124463,589.5655158793852
0.00015273778503907136,609.167726607399
0.00015873361110102093,629.4206348235473
0.00016496480740980205,650.3457023274868
0.0001714406135851971,671.9650842857703
0.00017817063195457305,694.3016646842605
0.00018516484179121546,717.3790824570954
0.000192433614111598,741.2217420714635
0.00019998772705352857,765.8548036998764
0.0002078383818579757,791.3042258878609
0.00021599721947827182,817.5968011414649
0.0002244763378413224,844.7601771834532
0.0002332883097864157,872.8228890245509
0.00024244620170823283,901.8143664151296
0.0002519635929317015,931.7649668353196
0.0002618545958474233,962.7059955340678
0.0002721338768375308,994.66968036997
0.0002828166780230032,1027.6892525807143
0.0002939188398646886,1061.799007845144
0.0003054568246515432,1097.0343412219813
0.00031744774091091926,1133.4317336306642
0.00032990936877709396,1171.0286400754967
0.00034286018635565856,1209.863613029718
0.00035631939712285854,1249.9764044774874
0.000370306958400514,1291.4080137181281
0.00038484361094874304,1334.2006843160127
0.0003999509097203664,1378.3978069497637
0.00041565125582259895,1424.0439988994476
0.00043196792973341727,1471.185161497889
0.0004489251258218605,1519.8684278909982
0.0004665479882234472,1570.1422842845495
0.000484862648123908,1622.0565253559607
0.000503896262506515,1675.6622869616212
0.0005236770544204653,1731.0121362554557
0.0005442343548300266,1788.1600271473808
0.0005655986461065005,1847.1613892634355
0.0005878016072274912,1908.072964051747
0.0006108761607505036,1970.9527165526342
0.0006348565216305217,2035.8601140480794
0.0006597782479539537,2102.856122261359
0.0006856782936641739,2172.0032571614383
0.0007125950633568407,2243.3654627799574
0.0007405684692262436,2317.007897705701
0.0007696399902471156,2392.9972313277126
0.0007998527336796708,2471.401479504085
0.000831251498989063,2552.2900538322606
0.0008638828442740447,2635.733823854067
0.000897795155303332,2721.8048223795745
0.0009330387172620361,2810.576504002969
0.0009696657893145519,2902.1234721453025
0.001007730682094461,2996.521368313953
0.0010472898382363582,3093.8471180801
0.0010884019160690055,3194.1783755042184
0.0011311278765939214,3297.5938244661234
0.001175531073878369,3404.1729118077014
0.0012216773489967915,3513.995355609948
0.0012696351276599736,3627.141688766291
0.0013194755216767058,3743.692421987882
0.0013712724343984,3863.7282236187834
0.0014251026703029975,3987.3299629951366
0.0014810460488806749,4114.577791621928
0.0015391855229902056,4245.551819575247
0.001599607301861487,4380.331153730307
0.0016624009789266115,4518.993663197885
0.0017276596646690358,4661.6163734038755
0.0017954801246878305,4808.273804659973
0.0018659629231817451,4959.038844922344
0.001939212572065829,5113.982224794875
0.0020153376859417325,5273.171734906237
0.002094451143151469,5436.672780384293
0.002176670253153458,5604.54592891478
0.002262116930469025,5776.847587914941
0.002350917875457286,5953.630287679902
0.002443204762186487,6134.941433490983
0.0025391144336803463,6320.823911660173
0.002638789104828933,6511.313522538626
0.002742376573264949,6706.438786094858
0.0028500304385181063,6906.221685461506
0.0029619103297725525,7110.675128597701
0.0030781821425650787,7319.804227373696
0.003199018284775064,7533.604466084964
0.0033245979322709396,7752.060414934962
0.003455107294592217,7975.146887704248
0.0035907398910610534,8202.825134245557
0.0037316968377327513,8435.044172653661
0.0038781871456107214,8671.73976794985
0.0040304280305680515,8912.831581430884
0.00418864523543527,9158.225472381686
0.004353073364731888,9407.809229318847
0.00452395623253805,9661.452992277746
0.004701547224022131,9919.009224178062
0.004886109671160325,10180.306853867609
0.005077917243205399,10445.155688811634
0.005277254352483535,10713.343340309722
0.005484416576121017,10984.634055714667
0.005699711094326071,11258.767854108482
0.005923457145875801,11535.440524017837
0.006155986501483508,11814.316682314979
0.006397643955748424,12095.056890978009
0.0066487878384172625,12377.333282485164
0.0069097905457156435,12660.788772690135
0.007181039092537346,12944.919756421896
0.007462935686310132,13229.119978443447
0.007755898323389004,13512.786756881575
0.00806036140886134,13795.39731204804
0.008376776400682916,14076.418820607409
0.008705612479099857,14355.18935748213
0.009047357242349292,14630.922091886005
0.00940251742967013,14902.80907901526
0.009771619672696168,15170.086779203371
0.010155211276345676,15431.987358152192
0.010553861030365234,15687.647244405645
0.010968160052731372,15936.074932467758
0.011398722666160517,16176.238622467868
0.011846187309026826,16407.032771762166
0.012311217482038896,16627.30737903294
0.012794502732078732,16835.868235775048
0.013296759674662111,17031.447843477246
0.013818733056536317,17212.758617426734
0.014361196859990781,17378.44037584327
0.014924955450518284,17527.08630090749
0.015510844769528393,17657.270134063834
0.016119733573881575,17767.465264184055
0.01675252472408214,17856.15122482746
0.017410156523040152,17921.77463276975
0.018093604107387147,17962.751490627907
0.01880388089340914,17977.554050056606
0.019542040079740527,17964.61209173507
0.02030917620904734,17922.42677804839
0.021106426791015535,17849.574922878906
0.021934973989050584,17744.672945858598
0.02279604637318978,17606.518566067123
0.023690920741826323,17434.01782706826
0.02462092401494623,17226.26760970439
0.02558743520168586,16982.630436969695
0.02659188744512693,16702.7021699826
0.027635770147361564,16386.4177037722
0.028720631177978267,16034.08827286128
0.029848079169243254,15646.417234545752
0.03101978590138095,15224.546132954307
0.03223748878149028,14770.187366006063
0.0335029934197723,14285.482958999748
0.03481817630688963,13773.17306502167
0.03618498759642746,13236.645977806556
0.037605453996581675,12679.597265408507
0.03908168177536263,12106.557862427351
0.04061585988376978,11522.34204545199
0.04221026320156896,10932.083497086345
0.04386725591048496,10341.728247355764
0.0455892949998106,9756.809506403444
0.047378933909631396,9183.266530411156
0.049238826317067365,8626.89547758726
0.05117173007114603,8092.744465117737
0.05318051128214196,7586.187756827201
0.05526814857144601,7111.582235113273
0.057437737488265785,6673.230261487227
0.0596924950997073,6275.1563422479185
0.0620357647610427,5919.453198278285
0.06447102107323864,5606.262998624405
0.06700187503509585,5334.737061474039
0.06963207939763882,5102.804136686839
0.0723655342286965,4907.621729753281
0.07520629269592405,4745.0917792282
0.07815856707684081,4610.066055304272
0.08122673500479707,4496.1210576757385
0.08441534596012978,4394.823405066381
0.0877291280161335,4296.960117419371
0.09117299484984914,4193.1012389313755
0.09475205302806537,4072.462914268309
0.09847160957933764,3925.3711134408904
0.1023371798632519,3745.7873019791473
0.10635449574860109,3531.92136448741
0.11052951411260206,3286.995565409216
0.1148684256737553,3018.6172555337344
0.1193776641714435,2738.353323193479
0.1240639159058831,2460.573603807794
0.12893412965257148,2200.3898482082286
0.13399552696593373,1971.4291329276741
0.1392556128874462,1783.6745797451713
0.14472218707411338,1641.9409284964022
0.15040335536380234,1545.590078648919
0.15630754179458153,1488.7975970019793
0.16244350109588662,1460.6349367909615
0.16882033167003618,1445.41796910444
0.17544748908334581,1424.5849124249582
0.1823348000868439,1380.708282306941
0.189492477187382,1302.693370814252
0.19693113379074215,1190.4810633071272
0.20466179993919872,1056.766606458169
0.21269593866686892,922.60399807025
0.22104546299710207,808.4848677322769
0.22972275360711503,727.5468470154125
0.23874067718606454,683.0041845509833
0.2481126055137766,666.8856775266083
0.25785243528842716,661.2497865608123
0.26797460873256895,645.3669090026532
0.27849413500806414,605.0542948759964
0.28942661247167484,541.0009476264182
0.3007882518043098,469.6510396972291
0.31259590004822796,411.605600396781
0.324867065587837,378.1293061924594
0.3376199441111335,365.4363313188869
0.35087344559027084,358.21384616862895
0.36464722232127456,339.5946702414525
0.37896169806447155,304.8284887302637
0.3938380983288488,266.0162922673483
0.4092984818452433,238.2175357389692
0.4253657732750382,225.26046653879916
0.44206379720285277,217.35504246492647
0.45941731346364734,202.32449233249505
0.47745205385661277,179.8002961759908
0.4961947603002895,160.15863377346838
0.5156732244854959,149.3173767151471
0.5359163290848509,141.64438927241156
0.556954090580013,129.75439316824958
0.5788177037701272,115.79446393110456
0.6015395880274836,105.99436456107388
0.6251534353689703,99.3330917278727
0.6496942604146115,90.97203503395318
0.6751984523072497,81.92616633618157
0.7017038286703824,75.40034474625102
0.7292496916841444,69.71076066231021
0.7578768863625915,63.210057989504804
0.7876278611187046,57.73191679970539
0.8185467307069019,52.93887418027069
0.850679341636415,48.445260474050464
0.8840733401525058,44.26775868457824
0.9187782428863317,40.413778551034014
0.9548455102782278,36.877842868086184
0.9923286228832539,33.63853506651964
1.0312831606721837,30.673434273965725
1.0717668854455022,27.961453818813727
1.1138398264826193,25.48281259498148
1.1575643695533022,23.21892140399395
1.2030053494233226,21.151648811543907
1.2502301459914542,19.263891424197777
1.299308784200415,17.54007183531673
1.3503140378698726,15.966003015718771
1.4033215376054824,14.528758407647354
1.4584098829439835,13.216689132703536
1.5156607589006013,12.019410698069256
1.575159057091621,10.92737430882282
1.6369930016117014,9.93176481835584
1.7012542798525885,9.024451489038801
1.7680381784572046,8.197935129635257
1.8374437246107238,7.445258679897187
1.9095738328780953,6.760010797154618
1.9845354578058014,6.136318380451736
2.0624397525140905,5.568803455079217
2.143402233514853,5.0525430454911255
2.227542951999554,4.583036093300306
2.314986671851158,4.15617100643035
2.405863054644063,3.7681853450738214
2.5003068519063225,3.4156366301403
2.598458104929248,3.095376408660334
2.7004623524206774,2.8045261197981373
2.806470846309834,2.5404539255237815
2.916640776023701,2.3007554515401476
3.031135501567576,2.083235605023798
3.150124795755327,1.8858910608487807
3.2737850959485697,1.7068941327162035
3.4022997656780634,1.5445776408202487
3.5358593665351745,1.3974212081412647
3.6746619407366854,1.264039318375312
3.8189133047818515,1.1431697950679853
3.968827354637162,1.0336631697833616
4.1246263829013445,0.9344729197311533
4.286541408420921,0.8446464719712934
4.4548125188449825,0.7633170787973375
4.629689226627261,0.6896963430761024
4.811430839003257,0.6230673367209064
5.000306842491082,0.5627783011569267
5.196597302486189,0.5082368209156086
5.400593278542364,0.4589045525399937
5.612597255954967,0.4142925218474559
5.8329235942862,0.37395671745643794
6.06189899349756,0.33749405682004613
6.29986297838068,0.30453870541527805
6.547168402004727,0.2747587236882145
6.804181968927091,0.2478529902826263
7.071284778942991,0.22354840177298188
7.348872892180382,0.20159732431095714
7.637357916378006,0.18177526888383325
7.937167617217536,0.16387870018820003
8.248746552614573,0.14772311982142355
8.572556731909314,0.13314143056345565
8.909078300934132,0.11998233133061773
9.258810253973934,0.1081088493370505
9.622271173675122,0.09739703376133459
9.999999999999984,0.08773484032513937
