k [1/Mpc],P(k) [Mpc^3]
0.0001,155.6844266440547
0.00010392556829367125,161.3277693682751
0.00010800523745162529,167.17553591690648
0.00011224505680853065,173.23511476612418
0.00011665131316981963,179.51416144889166
0.00012123054013376525,186.02061231915934
0.00012598952777950273,192.7626931615671
0.00013093533273536104,199.7489195072328
0.00013607528864243335,206.9880917341703
0.00014141701702890234,214.48932123113616
0.00014696843861124463,222.26205534947496
0.00015273778503907136,230.31609014626085
0.00015873361110102093,238.66157239630095
0.00016496480740980205,247.30900607651557
0.0001714406135851971,256.2692688699762
0.00017817063195457305,265.5536188522245
0.00018516484179121546,275.1737022042471
0.000192433614111598,285.1415784669754
0.00019998772705352857,295.46974228315264
0.0002078383818579757,306.17113599261717
0.00021599721947827182,317.2591499907933
0.0002244763378413224,328.74761842155505
0.0002332883097864157,340.6508580770472
0.00024244620170823283,352.98370363083546
0.0002519635929317015,365.7615246737851
0.0002618545958474233,379.00022414232245
0.0002721338768375308,392.7162261919582
0.0002828166780230032,406.9265173969035
0.0002939188398646886,421.64866118864427
0.0003054568246515432,436.9008107969873
0.00031744774091091926,452.7017427786363
0.00032990936877709396,469.07086868728277
0.00034286018635565856,486.02826086780715
0.00035631939712285854,503.59466124779226
0.000370306958400514,521.7914805375507
0.00038484361094874304,540.6408469379463
0.0003999509097203664,560.1656109824729
0.00041565125582259895,580.389372016684
0.00043196792973341727,601.3364940185455
0.0004489251258218605,623.0320666673689
0.0004665479882234472,645.5019820117288
0.000484862648123908,668.7729688487484
0.000503896262506515,692.8726153810074
0.0005236770544204653,717.829379202085
0.0005442343548300266,743.6724992485474
0.0005655986461065005,770.4320835064387
0.0005878016072274912,798.139159428954
0.0006108761607505036,826.8256799443824
0.0006348565216305217,856.52456377678
0.0006597782479539537,887.2696179394926
0.0006856782936641739,919.095587922034
0.0007125950633568407,952.0382047997962
0.0007405684692262436,986.1341241187607
0.0007696399902471156,1021.4210221220216
0.0007998527336796708,1057.9375350192283
0.000831251498989063,1095.7232632442358
0.0008638828442740447,1134.818842367857
0.000897795155303332,1175.2658047326831
0.0009330387172620361,1217.1066959078216
0.0009696657893145519,1260.3850291413753
0.001007730682094461,1305.1452097307445
0.0010472898382363582,1351.4326549300595
0.0010884019160690055,1399.293514029323
0.0011311278765939214,1448.7747776819401
0.001175531073878369,1499.9243166718702
0.0012216773489967915,1552.7906691823748
0.0012696351276599736,1607.423231459654
0.0013194755216767058,1663.871926092733
0.0013712724343984,1722.1871792621132
0.0014251026703029975,1782.4200251244965
0.0014810460488806749,1844.621529132986
0.0015391855229902056,1908.8431483101629
0.001599607301861487,1975.1365371500194
0.0016624009789266115,2043.5533216047022
0.0017276596646690358,2114.1453001035197
0.0017954801246878305,2186.9637116489134
0.0018659629231817451,2262.059465986962
0.001939212572065829,2339.4829991721317
0.0020153376859417325,2419.2836489265405
0.002094451143151469,2501.510110626782
0.002176670253153458,2586.209608816782
0.002262116930469025,2673.427855786516
0.002350917875457286,2763.20918392323
0.002443204762186487,2855.5955827987264
0.0025391144336803463,2950.627174101339
0.002638789104828933,3048.341492541064
0.002742376573264949,3148.7730210570403
0.0028500304385181063,3251.9535440048235
0.0029619103297725525,3357.910824897097
0.0030781821425650787,3466.668981755449
0.003199018284775064,3578.247883447437
0.0033245979322709396,3692.6619965512173
0.003455107294592217,3809.9212053160954
0.0035907398910610534,3930.029341623903
0.0037316968377327513,4052.9841926222134
0.0038781871456107214,4178.77725381686
0.0040304280305680515,4307.391644060789
0.00418864523543527,4438.803347736726
0.004353073364731888,4572.979734912845
0.00452395623253805,4709.878928435975
0.004701547224022131,4849.450181458499
0.004886109671160325,4991.630385944382
0.005077917243205399,5136.345751442351
0.005277254352483535,5283.5113913000305
0.005484416576121017,5433.029992210376
0.005699711094326071,5584.791981455065
0.005923457145875801,5738.665464429673
0.006155986501483508,5894.499444165403
0.006397643955748424,6052.135807879069
0.0066487878384172625,6211.421861071259
0.0069097905457156435,6372.1936355243315
0.007181039092537346,6534.222610946842
0.007462935686310132,6697.215078532488
0.007755898323389004,6860.866191333132
0.00806036140886134,7024.908876821713
0.008376776400682916,7189.076894250382
0.008705612479099857,7353.048474123277
0.009047357242349292,7516.424164516099
0.00940251742967013,7678.78253899478
0.009771619672696168,7839.719149882662
0.010155211276345676,7998.8307059219305
0.010553861030365234,8155.672644804963
0.010968160052731372,8309.722528254411
0.011398722666160517,8460.428641491244
0.011846187309026826,8607.200402006836
0.012311217482038896,8749.413642703661
0.012794502732078732,8886.420083919424
0.013296759674662111,9017.526741849366
0.013818733056536317,9142.020599905401
0.014361196859990781,9259.154415740662
0.014924955450518284,9368.143564533359
0.015510844769528393,9468.191356092439
0.016119733573881575,9558.44485372907
0.01675252472408214,9638.03462892108
0.017410156523040152,9706.080250804944
0.018093604107387147,9761.671779039054
0.01880388089340914,9803.919668617442
0.019542040079740527,9831.91826186842
0.02030917620904734,9844.775197631747
0.021106426791015535,9841.642261350962
0.021934973989050584,9821.685855019026
0.02279604637318978,9784.148702585862
0.023690920741826323,9728.344837418028
0.02462092401494623,9653.672474396823
0.02558743520168586,9559.66049460743
0.02659188744512693,9445.974265976969
0.027635770147361564,9312.43667932713
0.028720631177978267,9159.072606102698
0.029848079169243254,8986.135724551445
0.03101978590138095,8794.080036989473
0.03223748878149028,8583.684318387306
0.0335029934197723,8355.973496801977
0.03481817630688963,8112.238138123162
0.03618498759642746,7854.206755980389
0.037605453996581675,7583.745259196662
0.03908168177536263,7303.11123243134
0.04061585988376978,7014.83619293129
0.04221026320156896,6721.512440761538
0.04386725591048496,6426.33589829707
0.0455892949998106,6132.393170968996
0.047378933909631396,5842.654303286475
0.049238826317067365,5560.033996200509
0.05117173007114603,5287.114267003064
0.05318051128214196,5027.05572587454
0.05526814857144601,4782.868395739544
0.057437737488265785,4556.86877572776
0.0596924950997073,4350.77765279448
0.0620357647610427,4165.6263692205985
0.06447102107323864,4001.2485759183455
0.06700187503509585,3857.023240875155
0.06963207939763882,3731.3932554641237
0.0723655342286965,3622.4209274715327
0.07520629269592405,3527.267061198135
0.07815856707684081,3442.551440433618
0.08122673500479707,3363.9475632719973
0.08441534596012978,3286.234416943566
0.0877291280161335,3203.709063101874
0.09117299484984914,3111.241553658761
0.09475205302806537,3003.6913117523777
0.09847160957933764,2876.8129279562227
0.1023371798632519,2729.503905334807
0.10635449574860109,2563.4941096580274
0.11052951411260206,2383.387357337073
0.1148684256737553,2195.8771825453664
0.1193776641714435,2009.3878940360978
0.1240639159058831,1832.9386241962347
0.12893412965257148,1674.9511663544765
0.13399552696593373,1542.04899763837
0.1392556128874462,1437.731373905781
0.14472218707411338,1361.8091036649234
0.15040335536380234,1310.519798437093
0.15630754179458153,1276.8256343782477
0.16244350109588662,1250.8783950040456
0.16882033167003618,1221.2063419826154
0.17544748908334581,1177.2053896808682
0.1823348000868439,1112.3836981860252
0.189492477187382,1026.926134145398
0.19693113379074215,928.4605657268886
0.20466179993919872,830.0204453318179
0.21269593866686892,744.9405154772519
0.22104546299710207,681.6618495788863
0.22972275360711503,641.9478698632996
0.23874067718606454,620.8071321973325
0.2481126055137766,606.735255507396
0.25785243528842716,585.8418244779248
0.26797460873256895,549.5334546275042
0.27849413500806414,498.94455071845414
0.28942661247167484,444.20037171479845
0.3007882518043098,398.28315736993846
0.31259590004822796,368.6381677900733
0.324867065587837,352.96393078021
0.3376199441111335,340.83826422367304
0.35087344559027084,321.69681983189076
0.36464722232127456,292.85313641666835
0.37896169806447155,261.6620225028266
0.3938380983288488,237.89237771344045
0.4092984818452433,223.86203906367427
0.4253657732750382,213.34026121027014
0.44206379720285277,198.68514201987963
0.45941731346364734,179.68505538042933
0.47745205385661277,162.73763357443514
0.4961947603002895,151.48457494261388
0.5156732244854959,142.514015758154
0.5359163290848509,131.28318405730735
0.556954090580013,119.04881012823424
0.5788177037701272,109.50234001289431
0.6015395880274836,102.08600915689658
0.6251534353689703,93.96443136423495
0.6496942604146115,85.63086770395476
0.6751984523072497,78.93216506574326
0.7017038286703824,72.95353706016239
0.7292496916841444,66.72917556036668
0.7578768863625915,61.209129038529404
0.7876278611187046,56.37341941685569
0.8185467307069019,51.80950379164087
0.850679341636415,47.51649571363199
0.8840733401525058,43.51874126158462
0.9187782428863317,39.829297615565615
0.9548455102782278,36.45145577370247
0.9923286228832539,33.368700153658295
1.0312831606721837,30.55057393741768
1.0717668854455022,27.969786508111937
1.1138398264826193,25.60251592239682
1.1575643695533022,23.427927726747654
1.2030053494233226,21.427933828010925
1.2502301459914542,19.58879275044315
1.299308784200415,17.899358276431453
1.3503140378698726,16.349028927335763
1.4033215376054824,14.927719709481092
1.4584098829439835,13.62587143708874
1.5156607589006013,12.434397790234362
1.575159057091621,11.344343163760938
1.6369930016117014,10.347246990571955
1.7012542798525885,9.435345762748092
1.7680381784572046,8.601516922027526
1.8374437246107238,7.839225948582413
1.9095738328780953,7.142492421064567
1.9845354578058014,6.5058924724202924
2.0624397525140905,5.924447715803969
2.143402233514853,5.3935681297879
2.227542951999554,4.909024339812477
2.314986671851158,4.466921608871568
2.405863054644063,4.06367096503415
2.5003068519063225,3.6959595450144587
2.598458104929248,3.360744202159749
2.7004623524206774,3.0552333892167547
2.806470846309834,2.7768672442098814
2.916640776023701,2.5232991740731916
3.031135501567576,2.292379793919198
3.150124795755327,2.0821416585651398
3.2737850959485697,1.8907825006393133
3.4022997656780634,1.7166517388124758
3.5358593665351745,1.5582382747427599
3.6746619407366854,1.414159196282252
3.8189133047818515,1.2831487063621434
3.968827354637162,1.1640486037007336
4.1246263829013445,1.0558004269581833
4.286541408420921,0.9574372221275507
4.4548125188449825,0.868075894683447
4.629689226627261,0.7869101743740466
4.811430839003257,0.7132041467006864
5.000306842491082,0.646286306501972
5.196597302486189,0.5855440941454116
5.400593278542364,0.5304188780141926
5.612597255954967,0.4804013480571435
5.8329235942862,0.43502728686484293
6.06189899349756,0.39387367964846975
6.29986297838068,0.35655516920266334
6.547168402004727,0.322720804548513
6.804181968927091,0.29205105170398715
7.071284778942991,0.26425505546776146
7.348872892180382,0.2390681040244837
7.637357916378006,0.21624921202396635
7.937167617217536,0.19557918349508815
8.248746552614573,0.17685875249678024
8.572556731909314,0.15990680807418184
8.909078300934132,0.14455877342767542
9.258810253973934,0.1306651759356004
9.622271173675122,0.1180904054994879
9.999999999999984,0.10671128148964984
