k [1/Mpc],P(k) [Mpc^3]
0.0001,80.41636601462012
0.00010392556829367125,83.81363074081807
0.00010800523745162529,87.3543209846177
0.00011224505680853065,91.04447325741978
0.00011665131316981963,94.890373349369
0.00012123054013376525,98.89857582743265
0.00012598952777950273,103.07592022485495
0.00013093533273536104,107.4295335445628
0.00013607528864243335,111.96683054815944
0.00014141701702890234,116.69552933287645
0.00014696843861124463,121.6236713559389
0.00015273778503907136,126.75963776401058
0.00015873361110102093,132.11216024409632
0.00016496480740980205,137.69032964486308
0.0001714406135851971,143.50361038162214
0.00017817063195457305,149.56185904711367
0.00018516484179121546,155.87533586378308
0.000192433614111598,162.45472453190433
0.00019998772705352857,169.3111533042292
0.0002078383818579757,176.45621465863076
0.00021599721947827182,183.90197899804176
0.0002244763378413224,191.660993500227
0.0002332883097864157,199.74630905411303
0.00024244620170823283,208.1715140394018
0.0002519635929317015,216.9507612963285
0.0002618545958474233,226.0987834207914
0.0002721338768375308,235.6308880854543
0.0002828166780230032,245.5629804229837
0.0002939188398646886,255.9116095565336
0.0003054568246515432,266.69400194021785
0.00031744774091091926,277.92808169885325
0.00032990936877709396,289.632466724914
0.00034286018635565856,301.82647825400943
0.00035631939712285854,314.5302008551174
0.000370306958400514,327.7645070279801
0.00038484361094874304,341.5510895931546
0.0003999509097203664,355.91247659607217
0.00041565125582259895,370.87203195844927
0.00043196792973341727,386.45401787099877
0.0004489251258218605,402.68360072813823
0.0004665479882234472,419.5868846746994
0.000484862648123908,437.19095509849666
0.000503896262506515,455.52386747050485
0.0005236770544204653,474.61471426356735
0.0005442343548300266,494.49363719828125
0.0005655986461065005,515.1918436841266
0.0005878016072274912,536.7416715015647
0.0006108761607505036,559.1765624712953
0.0006348565216305217,582.531126153143
0.0006597782479539537,606.8411547134784
0.0006856782936641739,632.1435873827825
0.0007125950633568407,658.4766217470577
0.0007405684692262436,685.8797028512538
0.0007696399902471156,714.3935618187444
0.0007998527336796708,744.0602457029964
0.000831251498989063,774.9230165980844
0.0008638828442740447,807.0264826000428
0.000897795155303332,840.4165569443475
0.0009330387172620361,875.1404394885722
0.0009696657893145519,911.2467129519865
0.001007730682094461,948.7851411901216
0.0010472898382363582,987.8067981524945
0.0010884019160690055,1028.3640812718288
0.0011311278765939214,1070.5105991750577
0.001175531073878369,1114.3012984551328
0.0012216773489967915,1159.7920860559268
0.0012696351276599736,1207.0398808465548
0.0013194755216767058,1256.102755277858
0.0013712724343984,1307.0396300030025
0.0014251026703029975,1359.910475187178
0.0014810460488806749,1414.775999891974
0.0015391855229902056,1471.6974894351986
0.001599607301861487,1530.737009922365
0.0016624009789266115,1591.9568968606857
0.0017276596646690358,1655.4199242131572
0.0017954801246878305,1721.1890135378446
0.0018659629231817451,1789.3267023287328
0.001939212572065829,1859.8955423485995
0.0020153376859417325,1932.957420028087
0.002094451143151469,2008.5735369350518
0.002176670253153458,2086.804377359822
0.002262116930469025,2167.7089079247703
0.002350917875457286,2251.344907120117
0.002443204762186487,2337.768215990282
0.0025391144336803463,2427.032334690959
0.002638789104828933,2519.1886391413545
0.002742376573264949,2614.28527556369
0.0028500304385181063,2712.367371862061
0.0029619103297725525,2813.4765890632098
0.0030781821425650787,2917.650348646439
0.003199018284775064,3024.922026463952
0.0033245979322709396,3135.3195161463987
0.003455107294592217,3248.8651535823287
0.0035907398910610534,3365.5756396044344
0.0037316968377327513,3485.4608662955766
0.0038781871456107214,3608.524158486519
0.0040304280305680515,3734.760737277863
0.00418864523543527,3864.157061129027
0.004353073364731888,3996.690977636712
0.00452395623253805,4132.328986454467
0.004701547224022131,4271.027215515218
0.004886109671160325,4412.731275271733
0.005077917243205399,4557.375386203846
0.005277254352483535,4704.881556128624
0.005484416576121017,4855.15041664756
0.005699711094326071,5008.0636327072025
0.005923457145875801,5163.496693226223
0.006155986501483508,5321.335213181841
0.006397643955748424,5481.454913628149
0.0066487878384172625,5643.6658421331595
0.0069097905457156435,5807.708529198373
0.007181039092537346,5973.311432396124
0.007462935686310132,6140.250688376688
0.007755898323389004,6308.308036425131
0.00806036140886134,6477.211099412469
0.008376776400682916,6646.606565457221
0.008705612479099857,6816.117578823255
0.009047357242349292,6985.396563047941
0.00940251742967013,7154.1059899586735
0.009771619672696168,7321.870952749669
0.010155211276345676,7488.240787498822
0.010553861030365234,7652.733827637609
0.010968160052731372,7814.833918614093
0.011398722666160517,7973.992412536687
0.011846187309026826,8129.641313570934
0.012311217482038896,8281.197038308346
0.012794502732078732,8428.061324680171
0.013296759674662111,8569.603790736975
0.013818733056536317,8705.154855428116
0.014361196859990781,8834.03137964697
0.014924955450518284,8955.523659947767
0.015510844769528393,9068.909602366253
0.016119733573881575,9173.460564918476
0.01675252472408214,9268.43378223948
0.017410156523040152,9353.094815556276
0.018093604107387147,9426.714185101577
0.01880388089340914,9488.576132539698
0.019542040079740527,9537.995429337094
0.02030917620904734,9574.323469081897
0.021106426791015535,9596.957385981763
0.021934973989050584,9605.363226010248
0.02279604637318978,9599.088165427711
0.023690920741826323,9577.756658312048
0.02462092401494623,9541.130788399354
0.02558743520168586,9489.079027516877
0.02659188744512693,9421.609414487599
0.027635770147361564,9338.939711471443
0.028720631177978267,9241.393716454973
0.029848079169243254,9129.539166674698
0.03101978590138095,9004.13133523208
0.03223748878149028,8866.062026830368
0.0335029934197723,8716.575899911213
0.03481817630688963,8556.999944580832
0.03618498759642746,8388.81570538105
0.037605453996581675,8213.667913497593
0.03908168177536263,8033.229928409987
0.04061585988376978,7849.661261524799
0.04221026320156896,7665.199667943071
0.04386725591048496,7481.482550577641
0.0455892949998106,7299.169725725596
0.047378933909631396,7118.902512470757
0.049238826317067365,6942.984898391873
0.05117173007114603,6774.6654045390505
0.05318051128214196,6615.864518002017
0.05526814857144601,6464.764893006394
0.057437737488265785,6318.94887447698
0.0596924950997073,6176.389130953371
0.0620357647610427,6035.379331725315
0.06447102107323864,5894.0416714730445
0.06700187503509585,5750.148973479362
0.06963207939763882,5601.793834427733
0.0723655342286965,5447.555286465883
0.07520629269592405,5285.108745933426
0.07815856707684081,5110.6968330519085
0.08122673500479707,4922.376542791272
0.08441534596012978,4720.362790271171
0.0877291280161335,4507.5355094305005
0.09117299484984914,4288.710876371124
0.09475205302806537,4070.283293462577
0.09847160957933764,3858.3002833956198
0.1023371798632519,3657.780147484247
0.10635449574860109,3472.568488767724
0.11052951411260206,3305.5698020514515
0.1148684256737553,3158.2215702698477
0.1193776641714435,3029.617639170682
0.1240639159058831,2915.510481738987
0.12893412965257148,2808.5916401661443
0.13399552696593373,2700.7175453984983
0.1392556128874462,2585.0536755306453
0.14472218707411338,2458.0970848189286
0.15040335536380234,2320.845155035151
0.15630754179458153,2178.546293978111
0.16244350109588662,2038.467059247789
0.16882033167003618,1907.4649321722336
0.17544748908334581,1791.1736668954995
0.1823348000868439,1692.7653678602699
0.189492477187382,1609.7365654595308
0.19693113379074215,1533.9589003721621
0.20466179993919872,1457.3655680854085
0.21269593866686892,1375.6921182866013
0.22104546299710207,1288.5329814151326
0.22972275360711503,1200.7023739343367
0.23874067718606454,1119.3205162357565
0.2481126055137766,1048.2644497233462
0.25785243528842716,987.0945564413121
0.26797460873256895,931.1687751379635
0.27849413500806414,875.5181221758414
0.28942661247167484,818.2815304367634
0.3007882518043098,761.5691689491966
0.31259590004822796,709.630695322026
0.324867065587837,663.4681976880963
0.3376199441111335,621.401764759256
0.35087344559027084,580.6872605473096
0.36464722232127456,540.6253280321665
0.37896169806447155,502.7586215356979
0.3938380983288488,468.2349701511087
0.4092984818452433,436.4295086057492
0.4253657732750382,406.1303973203424
0.44206379720285277,377.28967693245727
0.45941731346364734,350.45213243592195
0.47745205385661277,325.6349391202374
0.4961947603002895,302.34039371159037
0.5156732244854959,280.4239402046573
0.5359163290848509,260.043140094015
0.556954090580013,241.0783240414691
0.5788177037701272,223.3359343391311
0.6015395880274836,206.80085870486374
0.6251534353689703,191.4265284568054
0.6496942604146115,177.1022555444688
0.6751984523072497,163.77305399284631
0.7017038286703824,151.3824168788115
0.7292496916841444,139.86990076162547
0.7578768863625915,129.18184143009634
0.7876278611187046,119.26101176113202
0.8185467307069019,110.05821583059148
0.850679341636415,101.52576334853275
0.8840733401525058,93.61865579617012
0.9187782428863317,86.29455754219799
0.9548455102782278,79.51367103170014
0.9923286228832539,73.23861937100396
1.0312831606721837,67.4343720847129
1.0717668854455022,62.06809374717659
1.1138398264826193,57.108994846882304
1.1575643695533022,52.52822721581403
1.2030053494233226,48.29878316493316
1.2502301459914542,44.395388875081
1.299308784200415,40.79437376692711
1.3503140378698726,37.47362645813046
1.4033215376054824,34.41252483131958
1.4584098829439835,31.591847848783242
1.5156607589006013,28.99369143000172
1.575159057091621,26.60138724054241
1.6369930016117014,24.39942487177384
1.7012542798525885,22.37338297876059
1.7680381784572046,20.50986107438919
1.8374437246107238,18.79641420383569
1.9095738328780953,17.221491081861416
1.9845354578058014,15.774371800148675
2.0624397525140905,14.445111918924745
2.143402233514853,13.224497758037401
2.227542951999554,12.103997446335486
2.314986671851158,11.075714209548646
2.405863054644063,10.132342332834087
2.5003068519063225,9.267122999335967
2.598458104929248,8.473807225828226
2.7004623524206774,7.746623107539159
2.806470846309834,7.080241700781094
2.916640776023701,6.469745014800384
3.031135501567576,5.910596026019264
3.150124795755327,5.39861009322325
3.2737850959485697,4.929929668354553
3.4022997656780634,4.501000542054711
3.5358593665351745,4.108549193845319
3.6746619407366854,3.7495617137842108
3.8189133047818515,3.4212639919465437
3.968827354637162,3.121102905647375
4.1246263829013445,2.8467303410970657
4.286541408420921,2.5959877155227997
4.4548125188449825,2.366891316302007
4.629689226627261,2.1576187115680936
4.811430839003257,1.9664959420030776
5.000306842491082,1.7919856742738145
5.196597302486189,1.6326769888387191
5.400593278542364,1.4872754351101938
5.612597255954967,1.3545937517403348
5.8329235942862,1.2335432933988726
6.06189899349756,1.1231261041179952
6.29986297838068,1.0224276103623227
6.547168402004727,0.9306098924839854
6.804181968927091,0.8469054635975167
7.071284778942991,0.7706115323657095
7.348872892180382,0.7010846878668086
7.637357916378006,0.6377356982189318
7.937167617217536,0.5800252644939891
8.248746552614573,0.5274601990443852
8.572556731909314,0.4795895841873371
8.909078300934132,0.4360012345872555
9.258810253973934,0.39631852636104664
9.622271173675122,0.36019780498428594
9.999999999999984,0.32732516227757913
