k [1/Mpc],P(k) [Mpc^3]
0.0001,220.52971463549994
0.00010392556829367125,228.52249593484203
0.00010800523745162529,236.8046874707863
0.00011224505680853065,245.3867340957378
0.00011665131316981963,254.2794549798538
0.00012123054013376525,263.4940563413867
0.00012598952777950273,273.0421450955302
0.00013093533273536104,282.93574166022347
0.00013607528864243335,293.1872847297498
0.00014141701702890234,303.80965298967806
0.00014696843861124463,314.81618843060033
0.00015273778503907136,326.22071567327924
0.00015873361110102093,338.03755051745514
0.00016496480740980205,350.2814942443899
0.0001714406135851971,362.967859762988
0.00017817063195457305,376.112502806297
0.00018516484179121546,389.7318437002282
0.000192433614111598,403.8428827376264
0.00019998772705352857,418.46320592892204
0.0002078383818579757,433.61100600500487
0.00021599721947827182,449.30510542641395
0.0002244763378413224,465.5649508714162
0.0002332883097864157,482.4106561442037
0.00024244620170823283,499.8630310258649
0.0002519635929317015,517.9436037973287
0.0002618545958474233,536.6746416983939
0.0002721338768375308,556.079142858066
0.0002828166780230032,576.1808772483755
0.0002939188398646886,597.0043994301188
0.0003054568246515432,618.575041645877
0.00031744774091091926,640.9189803373639
0.00032990936877709396,664.0632521236931
0.00034286018635565856,688.0357840491333
0.00035631939712285854,712.8654048721826
0.000370306958400514,738.5818042843204
0.00038484361094874304,765.2156206570179
0.0003999509097203664,792.7984669572654
0.00041565125582259895,821.3629548132569
0.00043196792973341727,850.9427063464415
0.0004489251258218605,881.5722126020728
0.0004665479882234472,913.2869646724938
0.000484862648123908,946.1235540679311
0.000503896262506515,980.1197096743512
0.0005236770544204653,1015.3142882579401
0.0005442343548300266,1051.7470895240713
0.0005655986461065005,1089.4589491270021
0.0005878016072274912,1128.4918448400829
0.0006108761607505036,1168.8888578394892
0.0006348565216305217,1210.694252951135
0.0006597782479539537,1253.953374657653
0.0006856782936641739,1298.712661114322
0.0007125950633568407,1345.0197168206682
0.0007405684692262436,1392.923113960251
0.0007696399902471156,1442.4725599665444
0.0007998527336796708,1493.7188325052734
0.000831251498989063,1546.7137049916985
0.0008638828442740447,1601.5100781988904
0.000897795155303332,1658.1616951245483
0.0009330387172620361,1716.7232716628525
0.0009696657893145519,1777.25043130122
0.001007730682094461,1839.7994104612426
0.0010472898382363582,1904.4273510970943
0.0010884019160690055,1971.1919605556666
0.0011311278765939214,2040.1515268277938
0.001175531073878369,2111.364908282514
0.0012216773489967915,2184.8908237213377
0.0012696351276599736,2260.788340260148
0.0013194755216767058,2339.116507677661
0.0013712724343984,2419.934125972902
0.0014251026703029975,2503.300015361096
0.0014810460488806749,2589.2722285991417
0.0015391855229902056,2677.908345952564
0.001599607301861487,2769.265111954246
0.0016624009789266115,2863.3977596996415
0.0017276596646690358,2960.360550390825
0.0017954801246878305,3060.2057087822386
0.0018659629231817451,3162.9835165887002
0.001939212572065829,3268.7423619091946
0.0020153376859417325,3377.5277597276536
0.002094451143151469,3489.3828335845756
0.002176670253153458,3604.3469923862867
0.002262116930469025,3722.455525179747
0.002350917875457286,3843.7402815981764
0.002443204762186487,3968.2287561983107
0.0025391144336803463,4095.9442355005854
0.002638789104828933,4226.904391397188
0.002742376573264949,4361.120033606134
0.0028500304385181063,4498.596345445105
0.0029619103297725525,4639.331832674959
0.0030781821425650787,4783.3183024697655
0.003199018284775064,4930.540000328187
0.0033245979322709396,5080.971721580616
0.003455107294592217,5234.580031284125
0.0035907398910610534,5391.321658943156
0.0037316968377327513,5551.143192027444
0.0038781871456107214,5713.981268722004
0.0040304280305680515,5879.760413100183
0.00418864523543527,6048.394026991181
0.004353073364731888,6219.782570501886
0.00452395623253805,6393.812368653553
0.004701547224022131,6570.357436602135
0.004886109671160325,6749.279532526078
0.005077917243205399,6930.4276635892775
0.005277254352483535,7113.631323362292
0.005484416576121017,7298.692811129844
0.005699711094326071,7485.3999249333365
0.005923457145875801,7673.558615397129
0.006155986501483508,7862.985567515622
0.006397643955748424,8053.456419328372
0.0066487878384172625,8244.628822304923
0.0069097905457156435,8436.118506568317
0.007181039092537346,8627.590739066894
0.007462935686310132,8818.772755135422
0.007755898323389004,9009.368169880481
0.00806036140886134,9198.973372880588
0.008376776400682916,9387.133264678807
0.008705612479099857,9573.415854817727
0.009047357242349292,9757.446657177616
0.00940251742967013,9938.842475663441
0.009771619672696168,10117.151495515247
0.010155211276345676,10291.876232708759
0.010553861030365234,10462.504500195997
0.010968160052731372,10628.508356673725
0.011398722666160517,10789.34919360764
0.011846187309026826,10944.475062599719
0.012311217482038896,11093.323190929787
0.012794502732078732,11235.326735740673
0.013296759674662111,11369.916477036286
0.013818733056536317,11496.524212526707
0.014361196859990781,11614.572422291256
0.014924955450518284,11723.47137228704
0.015510844769528393,11822.639010798926
0.016119733573881575,11911.500860749771
0.01675252472408214,11989.496767792067
0.017410156523040152,12056.084930921745
0.018093604107387147,12110.742819817
0.01880388089340914,12152.97637479677
0.019542040079740527,12182.329561491058
0.02030917620904734,12198.387173566272
0.021106426791015535,12200.779399725752
0.021934973989050584,12189.19651019567
0.02279604637318978,12163.381548665131
0.023690920741826323,12123.155782693566
0.02462092401494623,12068.425006317544
0.02558743520168586,11999.162539724415
0.02659188744512693,11915.459946060435
0.027635770147361564,11817.488371081168
0.028720631177978267,11705.519387317085
0.029848079169243254,11579.958300627757
0.03101978590138095,11441.275175982644
0.03223748878149028,11290.077912883165
0.0335029934197723,11127.066076604004
0.03481817630688963,10953.002712973164
0.03618498759642746,10768.773481327975
0.037605453996581675,10575.291838234421
0.03908168177536263,10373.51005128677
0.04061585988376978,10164.408056657436
0.04221026320156896,9948.953081556887
0.04386725591048496,9728.105087835997
0.0455892949998106,9502.796645119395
0.047378933909631396,9273.76739205914
0.049238826317067365,9041.501480103683
0.05117173007114603,8806.501841678632
0.05318051128214196,8569.57527103864
0.05526814857144601,8331.63760767725
0.057437737488265785,8092.841751312072
0.0596924950997073,7851.707555958543
0.0620357647610427,7606.8496146815405
0.06447102107323864,7358.7561766237295
0.06700187503509585,7109.202403780112
0.06963207939763882,6859.672826350515
0.0723655342286965,6610.846482563501
0.07520629269592405,6363.172186468248
0.07815856707684081,6116.438453186437
0.08122673500479707,5869.951332171114
0.08441534596012978,5624.307830568086
0.0877291280161335,5382.106838320868
0.09117299484984914,5145.824246954219
0.09475205302806537,4917.60895934308
0.09847160957933764,4698.339317650378
0.1023371798632519,4487.083715669665
0.10635449574860109,4282.810937542371
0.11052951411260206,4084.6436763722168
0.1148684256737553,3892.225424026742
0.1193776641714435,3705.0782061242585
0.1240639159058831,3522.1184831327387
0.12893412965257148,3342.441805359686
0.13399552696593373,3165.9500082540635
0.1392556128874462,2993.6333024793553
0.14472218707411338,2827.0730868796236
0.15040335536380234,2668.1346325667437
0.15630754179458153,2517.953037043472
0.16244350109588662,2376.161329590038
0.16882033167003618,2241.0897609301455
0.17544748908334581,2111.814382740649
0.1823348000868439,1988.177837309826
0.189492477187382,1869.5459545240353
0.19693113379074215,1755.294981977661
0.20466179993919872,1646.2675780979375
0.21269593866686892,1543.025775102786
0.22104546299710207,1445.5219791564612
0.22972275360711503,1353.7300937302532
0.23874067718606454,1266.8463619361778
0.2481126055137766,1184.3152359737155
0.25785243528842716,1106.2454823090518
0.26797460873256895,1032.4061393568977
0.27849413500806414,962.9383962132974
0.28942661247167484,897.6214650066078
0.3007882518043098,836.1230750447234
0.31259590004822796,778.3085927890812
0.324867065587837,723.9561109410056
0.3376199441111335,672.9411833017544
0.35087344559027084,625.1738980946174
0.36464722232127456,580.3739755096296
0.37896169806447155,538.4809133876192
0.3938380983288488,499.2614537025985
0.4092984818452433,462.653362222616
0.4253657732750382,428.4452667394577
0.44206379720285277,396.5613137471945
0.45941731346364734,366.8272890148392
0.47745205385661277,339.14726093153604
0.4961947603002895,313.39464757100023
0.5156732244854959,289.43703185253315
0.5359163290848509,267.18488337529755
0.556954090580013,246.518530319122
0.5788177037701272,227.32932106937383
0.6015395880274836,209.52907284401266
0.6251534353689703,193.02803568134632
0.6496942604146115,177.73746473500833
0.6751984523072497,163.57765477961482
0.7017038286703824,150.47375132851417
0.7292496916841444,138.3634715210077
0.7578768863625915,127.17456383280441
0.7876278611187046,116.84103668373861
0.8185467307069019,107.30338104163162
0.850679341636415,98.50241385477524
0.8840733401525058,90.38404360576706
0.9187782428863317,82.89953649934608
0.9548455102782278,76.00499601866979
0.9923286228832539,69.6585224274058
1.0312831606721837,63.81861366328194
1.0717668854455022,58.44670874572703
1.1138398264826193,53.507579087192795
1.1575643695533022,48.968423833697685
1.2030053494233226,44.79871575437998
1.2502301459914542,40.970064956234545
1.299308784200415,37.45607809604774
1.3503140378698726,34.23220495390743
1.4033215376054824,31.27566658674691
1.4584098829439835,28.565354077219993
1.5156607589006013,26.081717780389976
1.575159057091621,23.80666283619663
1.6369930016117014,21.723456232325503
1.7012542798525885,19.81663628903343
1.7680381784572046,18.0719132436629
1.8374437246107238,16.47608686768396
1.9095738328780953,15.01697039702235
1.9845354578058014,13.683318615464389
2.0624397525140905,12.464753668457194
2.143402233514853,11.351706388606017
2.227542951999554,10.335365081755251
2.314986671851158,9.407619686648953
2.405863054644063,8.56100941653416
2.5003068519063225,7.7886728649956884
2.598458104929248,7.0842975217260395
2.7004623524206774,6.442083868906922
2.806470846309834,5.856708695453207
2.916640776023701,5.323287857001359
3.031135501567576,4.83734175814233
3.150124795755327,4.394764847784112
3.2737850959485697,3.991797656275138
3.4022997656780634,3.624995101937262
3.5358593665351745,3.291200802882535
3.6746619407366854,2.9875240486375216
3.8189133047818515,2.7113184011090334
3.968827354637162,2.4601594075515023
4.1246263829013445,2.231827065786272
4.286541408420921,2.024292706224959
4.4548125188449825,1.8357032336272698
4.629689226627261,1.6643664077906803
4.811430839003257,1.5087374456170717
5.000306842491082,1.3674075998824027
5.196597302486189,1.2390917128152723
5.400593278542364,1.12261699217726
5.612597255954967,1.016913516252505
5.8329235942862,0.9210055138414499
6.06189899349756,0.8340031608606544
6.29986297838068,0.7550948049194016
6.547168402004727,0.6835409769407425
6.804181968927091,0.6186683252646267
7.071284778942991,0.5598638545099455
7.348872892180382,0.5065696499162106
7.637357916378006,0.4582779752724733
7.937167617217536,0.4145268436086521
8.248746552614573,0.37489612175382075
8.572556731909314,0.3390038341916351
8.909078300934132,0.3065027720381645
9.258810253973934,0.277077416072768
9.622271173675122,0.2504413664755337
9.999999999999984,0.22633457089149578
