k [1/Mpc],P(k) [Mpc^3]
0.0001,193.33482280790386
0.00010392556829367125,199.76574737786308
0.00010800523745162529,206.41046876121047
0.00011224505680853065,213.27608310223206
0.00011665131316981963,220.3699154759177
0.00012123054013376525,227.69952736409562
0.00012598952777950273,235.2727321219583
0.00013093533273536104,243.09761440562724
0.00013607528864243335,251.18253021398868
0.00014141701702890234,259.5360961122425
0.00014696843861124463,268.1671897713625
0.00015273778503907136,277.08498129693527
0.00015873361110102093,286.298968850385
0.00016496480740980205,295.81897661102795
0.0001714406135851971,305.6551354771388
0.00017817063195457305,315.81786996960625
0.00018516484179121546,326.3179407613547
0.000192433614111598,337.16648512845563
0.00019998772705352857,348.37502366954465
0.0002078383818579757,359.9554464251196
0.00021599721947827182,371.9200007671426
0.0002244763378413224,384.2813250276768
0.0002332883097864157,397.0524615161194
0.00024244620170823283,410.2468683178516
0.0002519635929317015,423.8784389092865
0.0002618545958474233,437.96152149779556
0.0002721338768375308,452.5109294658007
0.0002828166780230032,467.54193542410974
0.0002939188398646886,483.0702716989991
0.0003054568246515432,499.1121680241774
0.00031744774091091926,515.6843560226428
0.00032990936877709396,532.8040898605932
0.00034286018635565856,550.4891635214447
0.00035631939712285854,568.7579177141598
0.000370306958400514,587.6292655757591
0.00038484361094874304,607.1226871860238
0.0003999509097203664,627.2582481762797
0.00041565125582259895,648.056618354575
0.00043196792973341727,669.5390344456808
0.0004489251258218605,691.7273616885641
0.0004665479882234472,714.6441227712478
0.000484862648123908,738.3125141431889
0.000503896262506515,762.7564183832128
0.0005236770544204653,788.0003578310946
0.0005442343548300266,814.0695481238665
0.0005655986461065005,840.9899093906362
0.0005878016072274912,868.7880479705929
0.0006108761607505036,897.4913185526883
0.0006348565216305217,927.1277686638833
0.0006597782479539537,957.7261772834985
0.0006856782936641739,989.3161028329556
0.0007125950633568407,1021.9278628508332
0.0007405684692262436,1055.5925813167032
0.0007696399902471156,1090.3420712137206
0.0007998527336796708,1126.208835386315
0.000831251498989063,1163.2261950778077
0.0008638828442740447,1201.4282764464779
0.000897795155303332,1240.8500431865314
0.0009330387172620361,1281.5271526457261
0.0009696657893145519,1323.4958629425066
0.001007730682094461,1366.7932329712157
0.0010472898382363582,1411.4570687382238
0.0010884019160690055,1457.5259630352678
0.0011311278765939214,1505.0391727183733
0.001175531073878369,1554.036384953488
0.0012216773489967915,1604.557978964239
0.0012696351276599736,1656.644814942527
0.0013194755216767058,1710.3382600585392
0.0013712724343984,1765.6802436166085
0.0014251026703029975,1822.7129444650143
0.0014810460488806749,1881.4790165814682
0.0015391855229902056,1942.0212444599138
0.001599607301861487,2004.3824033518445
0.0016624009789266115,2068.6055290954114
0.0017276596646690358,2134.7334481617345
0.0017954801246878305,2202.8089984854205
0.0018659629231817451,2272.874755833881
0.001939212572065829,2344.972625897383
0.0020153376859417325,2419.144260429881
0.002094451143151469,2495.4304594223563
0.002176670253153458,2573.8712826093674
0.002262116930469025,2654.5058687044097
0.002350917875457286,2737.3715651612756
0.002443204762186487,2822.5045996395665
0.0025391144336803463,2909.9395632414876
0.002638789104828933,2999.7092796737297
0.002742376573264949,3091.8447953256873
0.0028500304385181063,3186.374105933066
0.0029619103297725525,3283.322846193839
0.0030781821425650787,3382.7136726806566
0.003199018284775064,3484.565704989231
0.0033245979322709396,3588.8950736721413
0.003455107294592217,3695.7137982791414
0.0035907398910610534,3805.0300724887898
0.0037316968377327513,3916.8475864522647
0.0038781871456107214,4031.1642259056634
0.0040304280305680515,4147.973182969221
0.00418864523543527,4267.261975556496
0.004353073364731888,4389.012400389556
0.00452395623253805,4513.200074148579
0.004701547224022131,4639.792263216014
0.004886109671160325,4768.74936158405
0.005077917243205399,4900.023749745508
0.005277254352483535,5033.559312291535
0.005484416576121017,5169.29167348855
0.005699711094326071,5307.1447896097225
0.005923457145875801,5447.032829344531
0.006155986501483508,5588.859705289323
0.006397643955748424,5732.517883142984
0.0066487878384172625,5877.888953255006
0.0069097905457156435,6024.836123223678
0.007181039092537346,6173.207184556165
0.007462935686310132,6322.842089735778
0.007755898323389004,6473.578889697564
0.00806036140886134,6625.244266671867
0.008376776400682916,6777.620813469066
0.008705612479099857,6930.45062981672
0.009047357242349292,7083.463722825887
0.00940251742967013,7236.393246485534
0.009771619672696168,7388.963111860267
0.010155211276345676,7540.885795778864
0.010553861030365234,7691.863247275508
0.010968160052731372,7841.580532402472
0.011398722666160517,7989.679593206775
0.011846187309026826,8135.7764587543825
0.012311217482038896,8279.467798883516
0.012794502732078732,8420.326657512676
0.013296759674662111,8557.911382543041
0.013818733056536317,8691.757793886454
0.014361196859990781,8821.384451118323
0.014924955450518284,8946.296303994304
0.015510844769528393,9065.977790636427
0.016119733573881575,9179.904498167009
0.01675252472408214,9287.531308150461
0.017410156523040152,9388.295567720108
0.018093604107387147,9481.632375251587
0.01880388089340914,9566.967927427664
0.019542040079740527,9643.732092985685
0.02030917620904734,9711.359322997805
0.021106426791015535,9769.289753683977
0.021934973989050584,9816.982510298581
0.02279604637318978,9853.920718096051
0.023690920741826323,9879.616459475024
0.02462092401494623,9893.62313888448
0.02558743520168586,9895.549004194534
0.02659188744512693,9885.050498591645
0.027635770147361564,9861.870350884903
0.028720631177978267,9825.829749706949
0.029848079169243254,9776.828534185084
0.03101978590138095,9714.90628288075
0.03223748878149028,9640.178827468424
0.0335029934197723,9552.9081198768
0.03481817630688963,9453.504940234494
0.03618498759642746,9342.460507898491
0.037605453996581675,9220.480716248094
0.03908168177536263,9088.35780433389
0.04061585988376978,8947.005656685687
0.04221026320156896,8797.51389584011
0.04386725591048496,8640.986830294047
0.0455892949998106,8478.656543742396
0.047378933909631396,8311.791219790497
0.049238826317067365,8141.538145762472
0.05117173007114603,7968.829326490494
0.05318051128214196,7794.550610421355
0.05526814857144601,7620.024870740731
0.057437737488265785,7446.877695947409
0.0596924950997073,7276.27841179845
0.0620357647610427,7107.943921807632
0.06447102107323864,6941.254703548369
0.06700187503509585,6775.246449349012
0.06963207939763882,6608.668811167326
0.0723655342286965,6440.320516098563
0.07520629269592405,6269.012781458443
0.07815856707684081,6093.701705384802
0.08122673500479707,5913.504046762117
0.08441534596012978,5727.623169854226
0.0877291280161335,5535.294441838418
0.09117299484984914,5336.137233174795
0.09475205302806537,5130.2949524823125
0.09847160957933764,4919.017613835409
0.1023371798632519,4704.765192826139
0.10635449574860109,4491.497837316634
0.11052951411260206,4283.507147250572
0.1148684256737553,4084.0337765128593
0.1193776641714435,3894.6895483352314
0.1240639159058831,3716.8042044473937
0.12893412965257148,3550.916423080557
0.13399552696593373,3396.572257998257
0.1392556128874462,3251.9827931400605
0.14472218707411338,3113.5756737212305
0.15040335536380234,2976.8708157241435
0.15630754179458153,2837.8290894920697
0.16244350109588662,2694.4272458170767
0.16882033167003618,2547.3513997123587
0.17544748908334581,2399.7194271708777
0.1823348000868439,2256.162576633774
0.189492477187382,2121.21852098683
0.19693113379074215,1997.7058403549124
0.20466179993919872,1886.1300223057408
0.21269593866686892,1784.7582048727775
0.22104546299710207,1689.5933420252657
0.22972275360711503,1595.8583440443567
0.23874067718606454,1501.2028927509255
0.2481126055137766,1406.4569009716492
0.25785243528842716,1313.9789853050552
0.26797460873256895,1227.2034928310673
0.27849413500806414,1148.7232578038588
0.28942661247167484,1077.6576456314501
0.3007882518043098,1011.0631304333625
0.31259590004822796,946.2557827599613
0.324867065587837,882.5586899978006
0.3376199441111335,821.4670262218441
0.35087344559027084,764.712153800542
0.36464722232127456,712.8560779724124
0.37896169806447155,664.6486487273287
0.3938380983288488,618.6643788926181
0.4092984818452433,574.5362533557582
0.4253657732750382,533.2154992170157
0.44206379720285277,495.0348097368685
0.45941731346364734,459.50899385620136
0.47745205385661277,426.031117594614
0.4961947603002895,394.5022813884335
0.5156732244854959,365.21108681555273
0.5359163290848509,338.0015256078714
0.556954090580013,312.5671746174603
0.5788177037701272,288.82280863799934
0.6015395880274836,266.76262491629586
0.6251534353689703,246.26342674523096
0.6496942604146115,227.18666235714758
0.6751984523072497,209.46833372981484
0.7017038286703824,193.0428420612845
0.7292496916841444,177.79294378544978
0.7578768863625915,163.6698968005941
0.7876278611187046,150.5924763888938
0.8185467307069019,138.48522961825978
0.850679341636415,127.29322865233891
0.8840733401525058,116.95267967018839
0.9187782428863317,107.39885199895046
0.9548455102782278,98.5773867985651
0.9923286228832539,90.43781394038169
1.0312831606721837,82.93250749214833
1.0717668854455022,76.01659559708237
1.1138398264826193,69.6477951808121
1.1575643695533022,63.785984999687436
1.2030053494233226,58.39350432667725
1.2502301459914542,53.43522337474551
1.299308784200415,48.878399376981164
1.3503140378698726,44.69253817970062
1.4033215376054824,40.84928858963866
1.4584098829439835,37.32232462834263
1.5156607589006013,34.08716801744392
1.575159057091621,31.121071332707732
1.6369930016117014,28.402912446062984
1.7012542798525885,25.913090800751334
1.7680381784572046,23.63340820851886
1.8374437246107238,21.546999192178657
1.9095738328780953,19.638261183486126
1.9845354578058014,17.89276934069545
2.0624397525140905,16.29719598648817
2.143402233514853,14.839234666203039
2.227542951999554,13.507528690007431
2.314986671851158,12.291604197656193
2.405863054644063,11.181807185226505
2.5003068519063225,10.169244426303274
2.598458104929248,9.245727820831268
2.7004623524206774,8.403718236400099
2.806470846309834,7.636279973293397
2.916640776023701,6.937040014962454
3.031135501567576,6.300145340377445
3.150124795755327,5.720223059845925
3.2737850959485697,5.192343072730281
3.4022997656780634,4.711983010909787
3.5358593665351745,4.274997366031321
3.6746619407366854,3.8775880216456713
3.8189133047818515,3.5162766404484946
3.968827354637162,3.187879067707449
4.1246263829013445,2.88948098905888
4.286541408420921,2.618416252456637
4.4548125188449825,2.372247582024931
4.629689226627261,2.148747826696611
4.811430839003257,1.9458826075668794
5.000306842491082,1.7617942275016851
5.196597302486189,1.5947865595646689
5.400593278542364,1.4433119798535652
5.612597255954967,1.3059590478750185
5.8329235942862,1.1814409526989442
6.06189899349756,1.0685848938299056
6.29986297838068,0.9663222905220143
6.547168402004727,0.8736798202970203
6.804181968927091,0.7897712699643942
7.071284778942991,0.7137899945198012
7.348872892180382,0.6450019964708839
7.637357916378006,0.582739538762789
7.937167617217536,0.5263950256638921
8.248746552614573,0.47541601346738394
8.572556731909314,0.4293005524312341
8.909078300934132,0.38759268665612334
9.258810253973934,0.34987834203720225
9.622271173675122,0.3157817757415746
9.999999999999984,0.2849623167335965
