k [1/Mpc],P(k) [Mpc^3]
0.0001,1042.6564708091776
0.00010392556829367125,1080.4092492788384
0.00010800523745162529,1119.5246978068526
0.00011224505680853065,1160.0514634214233
0.00011665131316981963,1202.0398412711304
0.00012123054013376525,1245.5418915906512
0.00012598952777950273,1290.6115319021792
0.00013093533273536104,1337.3045631530192
0.00013607528864243335,1385.6785713653794
0.00014141701702890234,1435.7929648010327
0.00014696843861124463,1487.7091857389078
0.00015273778503907136,1541.4908340523748
0.00015873361110102093,1597.2036990713634
0.00016496480740980205,1654.9156638728653
0.0001714406135851971,1714.6966763790203
0.00017817063195457305,1776.6189955321797
0.00018516484179121546,1840.7572404065677
0.000192433614111598,1907.1884790236472
0.00019998772705352857,1975.9921672663077
0.0002078383818579757,2047.2500035604535
0.00021599721947827182,2121.046253679451
0.0002244763378413224,2197.467783531915
0.0002332883097864157,2276.6041444116395
0.00024244620170823283,2358.5475961812313
0.0002519635929317015,2443.3929011307437
0.0002618545958474233,2531.2376235111997
0.0002721338768375308,2622.181901782878
0.0002828166780230032,2716.3284316494664
0.0002939188398646886,2813.782803453823
0.0003054568246515432,2914.6532713242564
0.00031744774091091926,3019.050999868036
0.00032990936877709396,3127.0898828745967
0.00034286018635565856,3238.886333999307
0.00035631939712285854,3354.5596853086477
0.000370306958400514,3474.23158915382
0.00038484361094874304,3598.0263105250338
0.0003999509097203664,3726.070851014471
0.00041565125582259895,3858.4945967202384
0.00043196792973341727,3995.429672297696
0.0004489251258218605,4137.0100022439565
0.0004665479882234472,4283.371395009131
0.000484862648123908,4434.652054729524
0.000503896262506515,4590.992087980215
0.0005236770544204653,4752.533810044349
0.0005442343548300266,4919.420826834511
0.0005655986461065005,5091.797675456977
0.0005878016072274912,5269.810411952726
0.0006108761607505036,5453.605267112538
0.0006348565216305217,5643.329262534817
0.0006597782479539537,5839.129788827243
0.0006856782936641739,6041.153810408236
0.0007125950633568407,6249.548399815544
0.0007405684692262436,6464.458552899205
0.0007696399902471156,6686.027658422738
0.0007998527336796708,6914.3970437216185
0.000831251498989063,7149.703562357233
0.0008638828442740447,7392.0813377964405
0.000897795155303332,7641.6591028066905
0.0009330387172620361,7898.559919472829
0.0009696657893145519,8162.9015691928325
0.001007730682094461,8434.792693232224
0.0010472898382363582,8714.334853809061
0.0010884019160690055,9001.619412443937
0.0011311278765939214,9296.725700850968
0.001175531073878369,9599.723038428589
0.0012216773489967915,9910.666104669943
0.0012696351276599736,10229.59648329672
0.0013194755216767058,10556.542278812338
0.0013712724343984,10891.516201986837
0.0014251026703029975,11234.51545447545
0.0014810460488806749,11585.513528970452
0.0015391855229902056,11944.461701972994
0.001599607301861487,12311.290734126544
0.0016624009789266115,12685.907320820887
0.0017276596646690358,13068.195489874057
0.0017954801246878305,13458.011405791183
0.0018659629231817451,13855.18244670727
0.001939212572065829,14259.508743489932
0.0020153376859417325,14670.758825158151
0.002094451143151469,15088.671225876335
0.002176670253153458,15512.950333106191
0.002262116930469025,15943.263856611014
0.002350917875457286,16379.24556400424
0.002443204762186487,16820.489722825354
0.0025391144336803463,17266.55324103172
0.002638789104828933,17716.955609023415
0.002742376573264949,18171.176872133794
0.0028500304385181063,18628.65869100214
0.0029619103297725525,19088.79605959578
0.0030781821425650787,19550.939898809702
0.003199018284775064,20014.398939492086
0.0033245979322709396,20478.434024766942
0.003455107294592217,20942.26442198206
0.0035907398910610534,21405.05812151977
0.0037316968377327513,21865.932969634036
0.0038781871456107214,22323.967398006964
0.0040304280305680515,22778.201213078777
0.00418864523543527,23227.636489064727
0.004353073364731888,23671.171829183688
0.00452395623253805,24107.577264836287
0.004701547224022131,24535.612651485582
0.004886109671160325,24954.252669649224
0.005077917243205399,25362.56069431092
0.005277254352483535,25759.265364123425
0.005484416576121017,26142.42600914961
0.005699711094326071,26510.01067507053
0.005923457145875801,26860.350534620196
0.006155986501483508,27192.021561149377
0.006397643955748424,27503.596984212454
0.0066487878384172625,27793.6232431205
0.0069097905457156435,28060.646871232653
0.007181039092537346,28302.977157984995
0.007462935686310132,28518.704933630044
0.007755898323389004,28705.915719248245
0.00806036140886134,28862.600588747977
0.008376776400682916,28986.76959179337
0.008705612479099857,29076.382018649703
0.009047357242349292,29129.316250682787
0.00940251742967013,29143.536459116305
0.009771619672696168,29116.990328563388
0.010155211276345676,29047.725502292415
0.010553861030365234,28933.771174421097
0.010968160052731372,28772.945671281745
0.011398722666160517,28563.260769009576
0.011846187309026826,28302.6672581711
0.012311217482038896,27989.242410037412
0.012794502732078732,27621.325624166093
0.013296759674662111,27197.235139309538
0.013818733056536317,26715.735015146336
0.014361196859990781,26175.662478607996
0.014924955450518284,25576.050075209092
0.015510844769528393,24916.57285579924
0.016119733573881575,24197.027197964213
0.01675252472408214,23418.008072220655
0.017410156523040152,22580.641939649362
0.018093604107387147,21686.47824583406
0.01880388089340914,20738.248669538054
0.019542040079740527,19739.08802460264
0.02030917620904734,18693.270475220834
0.021106426791015535,17606.184411175152
0.021934973989050584,16483.834839949963
0.02279604637318978,15333.800996282947
0.023690920741826323,14164.342166848544
0.02462092401494623,12984.7691276651
0.02558743520168586,11805.596728375842
0.02659188744512693,10637.6401664629
0.027635770147361564,9492.60976093752
0.028720631177978267,8382.415520264414
0.029848079169243254,7318.744307311723
0.03101978590138095,6312.9429852972125
0.03223748878149028,5375.534903848734
0.0335029934197723,4515.255856131571
0.03481817630688963,3739.6373919816533
0.03618498759642746,3054.14990042231
0.037605453996581675,2460.2272078329856
0.03908168177536263,1957.63904288621
0.04061585988376978,1541.9825533159478
0.04221026320156896,1207.1100906532338
0.04386725591048496,946.9334968931645
0.0455892949998106,751.4566599106987
0.047378933909631396,612.6133845107955
0.049238826317067365,522.6672688905087
0.05117173007114603,472.8849991371757
0.05318051128214196,456.91995391918863
0.05526814857144601,472.0243841289746
0.057437737488265785,517.803614938186
0.0596924950997073,595.052593096965
0.0620357647610427,701.9115194634549
0.06447102107323864,833.7156841917518
0.06700187503509585,980.1699389848989
0.06963207939763882,1125.7779108491638
0.0723655342286965,1250.7706667403088
0.07520629269592405,1334.7798081699652
0.07815856707684081,1359.6649433893126
0.08122673500479707,1314.0051743945035
0.08441534596012978,1195.9519466117583
0.0877291280161335,1015.4925802928371
0.09117299484984914,799.3844523313152
0.09475205302806537,581.2173364824667
0.09847160957933764,390.4783763574898
0.1023371798632519,245.25737939330912
0.10635449574860109,150.06627393411566
0.11052951411260206,98.2645475340614
0.1148684256737553,78.86316714989827
0.1193776641714435,84.84695176905288
0.1240639159058831,115.21417603584008
0.12893412965257148,170.3834931645306
0.13399552696593373,241.97035281017108
0.1392556128874462,307.2167871567727
0.14472218707411338,337.2535382654684
0.15040335536380234,315.24240836602354
0.15630754179458153,248.14897514171184
0.16244350109588662,163.4610594374711
0.16882033167003618,93.06383214339652
0.17544748908334581,52.33769586654799
0.1823348000868439,38.161577979128076
0.189492477187382,44.157486002124635
0.19693113379074215,67.49571097070935
0.20466179993919872,99.42586282174322
0.21269593866686892,119.02735058834062
0.22104546299710207,108.86527045551001
0.22972275360711503,76.04377119999512
0.23874067718606454,43.99732094975203
0.2481126055137766,27.446050604561663
0.25785243528842716,26.632910751690805
0.26797460873256895,37.14473920113674
0.27849413500806414,49.58497616700191
0.28942661247167484,49.702846223997476
0.3007882518043098,36.28822411588772
0.31259590004822796,22.79599079901676
0.324867065587837,18.139619697791225
0.3376199441111335,21.435972600324693
0.35087344559027084,26.072609524173306
0.36464722232127456,24.050233201003344
0.37896169806447155,17.211575929303855
0.3938380983288488,13.26677178627884
0.4092984818452433,14.002486197324767
0.4253657732750382,15.315447568838886
0.44206379720285277,13.21459899512612
0.45941731346364734,10.211184133474633
0.47745205385661277,9.541424426072634
0.4961947603002895,9.850552556559256
0.5156732244854959,8.697164951589366
0.5359163290848509,7.250323047983156
0.556954090580013,6.89966881301325
0.5788177037701272,6.519796688449462
0.6015395880274836,5.688224787916695
0.6251534353689703,4.956195270754995
0.6496942604146115,4.426614643202584
0.6751984523072497,4.0289534871828625
0.7017038286703824,3.7123086233195357
0.7292496916841444,3.4400220887350934
0.7578768863625915,3.184767832715361
0.7876278611187046,2.928548640209674
0.8185467307069019,2.6733886437036123
0.850679341636415,2.427122036192409
0.8840733401525058,2.19548247542596
0.9187782428863317,1.982285360304654
0.9548455102782278,1.7897369297626493
0.9923286228832539,1.6181764937029692
1.0312831606721837,1.4650598387543812
1.0717668854455022,1.3276849951265854
1.1138398264826193,1.203822237252657
1.1575643695533022,1.0916281551126512
1.2030053494233226,0.9895775508065028
1.2502301459914542,0.8965389512185065
1.299308784200415,0.8118214636226752
1.3503140378698726,0.7348051383930054
1.4033215376054824,0.6648939461128558
1.4584098829439835,0.6015190167469737
1.5156607589006013,0.5441402232528564
1.575159057091621,0.49222099652989526
1.6369930016117014,0.44523292714567375
1.7012542798525885,0.402698337323132
1.7680381784572046,0.3641878111906557
1.8374437246107238,0.32931504489337765
1.9095738328780953,0.2977326395558006
1.9845354578058014,0.26913307985048734
2.0624397525140905,0.24324166693607466
2.143402233514853,0.21980817605657904
2.227542951999554,0.19860465427977755
2.314986671851158,0.1794235457857996
2.405863054644063,0.16207581856538827
2.5003068519063225,0.14638847570987393
2.598458104929248,0.13220409370896016
2.7004623524206774,0.11938004240599848
2.806470846309834,0.10778710965643254
2.916640776023701,0.09730824883419419
3.031135501567576,0.08783748649092447
3.150124795755327,0.07927901556384834
3.2737850959485697,0.07154605531148653
3.4022997656780634,0.06455995596494055
3.5358593665351745,0.0582494505830466
3.6746619407366854,0.05254997423408247
3.8189133047818515,0.04740302815101138
3.968827354637162,0.04275559981237319
4.1246263829013445,0.03855969852583004
4.286541408420921,0.03477189292926701
4.4548125188449825,0.031352883174374666
4.629689226627261,0.028267112742754695
4.811430839003257,0.025482418328218265
5.000306842491082,0.022969710351038983
5.196597302486189,0.020702679292632895
5.400593278542364,0.01865753298620819
5.612597255954967,0.016812758690223865
5.8329235942862,0.015148907474869036
6.06189899349756,0.013648400999649988
6.29986297838068,0.012295352832454592
6.547168402004727,0.011075404995693577
6.804181968927091,0.009975582649291093
7.071284778942991,0.008984162489670074
7.348872892180382,0.008090552705779963
7.637357916378006,0.00728517890565983
7.937167617217536,0.006559392408184924
8.248746552614573,0.00590538596559565
8.572556731909314,0.005316112555860164
8.909078300934132,0.004785211903886805
9.258810253973934,0.004306945368117196
9.622271173675122,0.00387614050627314
9.999999999999984,0.0034881298501238784
