k [1/Mpc],P(k) [Mpc^3]
0.0001,25.82133095487957
0.00010392556829367125,26.91237995609609
0.00010800523745162529,28.04951414878398
0.00011224505680853065,29.234678420135396
0.00011665131316981963,30.469898794476368
0.00012123054013376525,31.7572858070424
0.00012598952777950273,33.099039107840674
0.00013093533273536104,34.49745279488642
0.00013607528864243335,35.9549181735908
0.00014141701702890234,37.47392501576881
0.00014696843861124463,39.05706444800466
0.00015273778503907136,40.707036429329705
0.00015873361110102093,42.42665816840404
0.00016496480740980205,44.21886725653489
0.0001714406135851971,46.08672225898874
0.00017817063195457305,48.03340417565428
0.00018516484179121546,50.06222640762293
0.000192433614111598,52.17664481798738
0.00019998772705352857,54.38026293803512
0.0002078383818579757,56.67683407727758
0.00021599721947827182,59.07026369613769
0.0002244763378413224,61.56461910083719
0.0002332883097864157,64.16413618320125
0.00024244620170823283,66.87322617399043
0.0002519635929317015,69.69648388848945
0.0002618545958474233,72.63869620564262
0.0002721338768375308,75.70484934290145
0.0002828166780230032,78.90013357859573
0.0002939188398646886,82.22994914367648
0.0003054568246515432,85.69991863384375
0.00031744774091091926,89.31589413787016
0.00032990936877709396,93.08396737182863
0.00034286018635565856,97.0104795495848
0.00035631939712285854,101.10202971988215
0.000370306958400514,105.36548669395899
0.00038484361094874304,109.80799573375377
0.0003999509097203664,114.43698975305921
0.00041565125582259895,119.26020086996411
0.00043196792973341727,124.28566194239151
0.0004489251258218605,129.52172643823437
0.0004665479882234472,134.97708291935052
0.000484862648123908,140.66076760330606
0.000503896262506515,146.5821765364215
0.0005236770544204653,152.7510667195072
0.0005442343548300266,159.1775765201248
0.0005655986461065005,165.87223849513165
0.0005878016072274912,172.845986694875
0.0006108761607505036,180.11018015422738
0.0006348565216305217,187.67660345652405
0.0006597782479539537,195.55748618671313
0.0006856782936641739,203.76552497543102
0.0007125950633568407,212.31389212794033
0.0007405684692262436,221.21625848727788
0.0007696399902471156,230.48678226446572
0.0007998527336796708,240.14012209102444
0.000831251498989063,250.1914778145892
0.0008638828442740447,260.6566022022454
0.000897795155303332,271.55182289402757
0.0009330387172620361,282.89402608196144
0.0009696657893145519,294.7006502162641
0.001007730682094461,306.9897447154606
0.0010472898382363582,319.77997383162597
0.0010884019160690055,333.0906415485378
0.0011311278765939214,346.9416798474368
0.001175531073878369,361.3536100233823
0.0012216773489967915,376.3476177032222
0.0012696351276599736,391.94551946381955
0.0013194755216767058,408.1697837642478
0.0013712724343984,425.0435595052958
0.0014251026703029975,442.59061628523295
0.0014810460488806749,460.8354128289123
0.0015391855229902056,479.80302766469157
0.001599607301861487,499.519136714096
0.0016624009789266115,520.0100922398252
0.0017276596646690358,541.3028179262891
0.0017954801246878305,563.424874681669
0.0018659629231817451,586.4044019431278
0.001939212572065829,610.2700205421964
0.0020153376859417325,635.0509464641614
0.002094451143151469,660.7768418121589
0.002176670253153458,687.4778470863924
0.002262116930469025,715.1845362127661
0.002350917875457286,743.927681623
0.002443204762186487,773.7384295312359
0.0025391144336803463,804.6481558967267
0.002638789104828933,836.6884224123664
0.002742376573264949,869.8909642836562
0.0028500304385181063,904.2873189337863
0.0029619103297725525,939.908997387002
0.0030781821425650787,976.787287832141
0.003199018284775064,1014.9530662480183
0.0033245979322709396,1054.4369228968344
0.003455107294592217,1095.2688013135648
0.0035907398910610534,1137.4780397182321
0.0037316968377327513,1181.093125306896
0.0038781871456107214,1226.1412471289293
0.0040304280305680515,1272.648566804578
0.00418864523543527,1320.6398578717512
0.004353073364731888,1370.138419168551
0.00452395623253805,1421.1658558114254
0.004701547224022131,1473.7413070322507
0.004886109671160325,1527.8818046711926
0.005077917243205399,1583.6018069345257
0.005277254352483535,1640.9129250743051
0.005484416576121017,1699.8238749214045
0.005699711094326071,1760.3392207558825
0.005923457145875801,1822.4598261962296
0.006155986501483508,1886.182540601158
0.006397643955748424,1951.4996273529132
0.0066487878384172625,2018.3987719133563
0.0069097905457156435,2086.860296990033
0.007181039092537346,2156.8578968250768
0.007462935686310132,2228.361042747007
0.007755898323389004,2301.336938591268
0.00806036140886134,2375.7470585933193
0.008376776400682916,2451.5350955438457
0.008705612479099857,2528.6275362678903
0.009047357242349292,2606.9434154488
0.00940251742967013,2686.399711560059
0.009771619672696168,2766.9066857019056
0.010155211276345676,2848.36683047493
0.010553861030365234,2930.6749507028953
0.010968160052731372,3013.71546510881
0.011398722666160517,3097.351865373154
0.011846187309026826,3181.4326268165387
0.012311217482038896,3265.7932461510854
0.012794502732078732,3350.2540956265957
0.013296759674662111,3434.6234741706653
0.013818733056536317,3518.6940470864884
0.014361196859990781,3602.244460500884
0.014924955450518284,3685.040389232862
0.015510844769528393,3766.8312681923007
0.016119733573881575,3847.354644634441
0.01675252472408214,3926.3308319420694
0.017410156523040152,4003.4637020071086
0.018093604107387147,4078.446746177152
0.01880388089340914,4150.959948922141
0.019542040079740527,4220.674921074576
0.02030917620904734,4287.255163494998
0.021106426791015535,4350.35643573887
0.021934973989050584,4409.6326296156
0.02279604637318978,4464.738196547685
0.023690920741826323,4515.33067493146
0.02462092401494623,4561.076759631475
0.02558743520168586,4601.659218416712
0.02659188744512693,4636.7746940648185
0.027635770147361564,4666.152537496074
0.028720631177978267,4689.5526903453665
0.029848079169243254,4706.767275596734
0.03101978590138095,4717.651806218108
0.03223748878149028,4722.096962582711
0.0335029934197723,4720.064711825127
0.03481817630688963,4711.592799683664
0.03618498759642746,4696.7636522286575
0.037605453996581675,4675.774320047665
0.03908168177536263,4648.8757180674775
0.04061585988376978,4616.392992055332
0.04221026320156896,4578.756671230153
0.04386725591048496,4536.422418274502
0.0455892949998106,4489.931648245065
0.047378933909631396,4439.865911837408
0.049238826317067365,4386.763610446533
0.05117173007114603,4331.066353676841
0.05318051128214196,4273.207038709402
0.05526814857144601,4213.876317890506
0.057437737488265785,4153.958550114188
0.0596924950997073,4094.1126419451816
0.0620357647610427,4034.1961797998397
0.06447102107323864,3973.8689748417974
0.06700187503509585,3912.579741441448
0.06963207939763882,3849.591391467477
0.0723655342286965,3784.170272793442
0.07520629269592405,3715.5651890134736
0.07815856707684081,3643.0863313763175
0.08122673500479707,3566.118020260892
0.08441534596012978,3484.0773861780044
0.0877291280161335,3396.3827366388223
0.09117299484984914,3302.6718833814075
0.09475205302806537,3202.899526822758
0.09847160957933764,3097.718149955974
0.1023371798632519,2988.5740275897415
0.10635449574860109,2877.927182552489
0.11052951411260206,2768.5389888535447
0.1148684256737553,2662.5821436191545
0.1193776641714435,2561.232929270525
0.1240639159058831,2465.5195879993776
0.12893412965257148,2375.9744485106607
0.13399552696593373,2292.4755646712633
0.1392556128874462,2213.9848153341177
0.14472218707411338,2138.200201895406
0.15040335536380234,2062.1083032290403
0.15630754179458153,1982.8974786176084
0.16244350109588662,1899.0789832856365
0.16882033167003618,1811.0396837018693
0.17544748908334581,1720.925687565729
0.1823348000868439,1632.0542201936141
0.189492477187382,1547.79038267075
0.19693113379074215,1470.3502999451198
0.20466179993919872,1400.3075970028262
0.21269593866686892,1336.5762691468235
0.22104546299710207,1276.3185758166467
0.22972275360711503,1216.0005772642628
0.23874067718606454,1153.8288051072695
0.2481126055137766,1090.4128337782965
0.25785243528842716,1027.5796319665872
0.26797460873256895,968.0687306843085
0.27849413500806414,914.0449753656089
0.28942661247167484,864.9589716739815
0.3007882518043098,818.569405667511
0.31259590004822796,772.7665651541005
0.324867065587837,727.0192566107554
0.3376199441111335,682.5822584227312
0.35087344559027084,640.9518345172643
0.36464722232127456,602.686968265729
0.37896169806447155,566.8192773350893
0.3938380983288488,532.1942020856548
0.4092984818452433,498.53425821765956
0.4253657732750382,466.70545391510547
0.44206379720285277,437.0573133400617
0.45941731346364734,409.2222237826129
0.47745205385661277,382.7093372370405
0.4961947603002895,357.4701623833766
0.5156732244854959,333.8080251287948
0.5359163290848509,311.626242183467
0.556954090580013,290.6840959008518
0.5788177037701272,270.9392552555242
0.6015395880274836,252.42244540095626
0.6251534353689703,235.0528101629724
0.6496942604146115,218.73128405242792
0.6751984523072497,203.42718573842555
0.7017038286703824,189.10667455309027
0.7292496916841444,175.68319353971862
0.7578768863625915,163.1349623242089
0.7876278611187046,151.40633791213438
0.8185467307069019,140.4451600823612
0.850679341636415,130.2180434933793
0.8840733401525058,120.68091175016147
0.9187782428863317,111.78681604607472
0.9548455102782278,103.49772186374744
0.9923286228832539,95.77807124875919
1.0312831606721837,88.5938080497318
1.0717668854455022,81.91237731306643
1.1138398264826193,75.70264071007217
1.1575643695533022,69.9344984630634
1.2030053494233226,64.57929195353378
1.2502301459914542,59.609971074692325
1.299308784200415,55.0010270527603
1.3503140378698726,50.72842577438304
1.4033215376054824,46.7695729902808
1.4584098829439835,43.10326169077524
1.5156607589006013,39.70954512205614
1.575159057091621,36.56967256003831
1.6369930016117014,33.666033371891736
1.7012542798525885,30.98209870142349
1.7680381784572046,28.502339876932666
1.8374437246107238,26.212201348515908
1.9095738328780953,24.09807066003747
1.9845354578058014,22.14722648652488
2.0624397525140905,20.347788446293368
2.143402233514853,18.688668903310493
2.227542951999554,17.159526811075775
2.314986671851158,15.750723870647269
2.405863054644063,14.45328251336059
2.5003068519063225,13.258845820647679
2.598458104929248,12.159638970279769
2.7004623524206774,11.148427162534004
2.806470846309834,10.218484784807895
2.916640776023701,9.363568700761235
3.031135501567576,8.577886823989363
3.150124795755327,7.856068284275275
3.2737850959485697,7.193134928184091
3.4022997656780634,6.584473964447515
3.5358593665351745,6.02581455551779
3.6746619407366854,5.513204698265741
3.8189133047818515,5.042989103841431
3.968827354637162,4.61178841621772
4.1246263829013445,4.216478782708632
4.286541408420921,3.8541739137577777
4.4548125188449825,3.5222094190194704
4.629689226627261,3.2181268121559943
4.811430839003257,2.9396585003693256
5.000306842491082,2.6847136418656423
5.196597302486189,2.4513645176276957
5.400593278542364,2.2378351284179296
5.612597255954967,2.0424901504995088
5.8329235942862,1.8638243230395666
6.06189899349756,1.700452583790237
6.29986297838068,1.551100848534691
6.547168402004727,1.4145974937709638
6.804181968927091,1.2898655759432907
7.071284778942991,1.1759155113776305
7.348872892180382,1.0718382808409863
7.637357916378006,0.9767990592082658
7.937167617217536,0.8900308600334328
8.248746552614573,0.810829678038769
8.572556731909314,0.7385498589298917
8.909078300934132,0.6725994191154571
9.258810253973934,0.6124357240933546
9.622271173675122,0.557561862542467
9.999999999999984,0.5075232850143766
