k [1/Mpc],P(k) [Mpc^3]
0.0001,2840.2720560674475
0.00010392556829367125,2959.8515741105866
0.00010800523745162529,3084.4282950698857
0.00011224505680853065,3214.206487017258
0.00011665131316981963,3349.3983471684815
0.00012123054013376525,3490.223842597101
0.00012598952777950273,3636.9112565119067
0.00013093533273536104,3789.697419840542
0.00013607528864243335,3948.8277687760587
0.00014141701702890234,4114.556922226756
0.00014696843861124463,4287.148321051266
0.00015273778503907136,4466.874692144971
0.00015873361110102093,4654.018536729719
0.00016496480740980205,4848.87186178249
0.0001714406135851971,5051.736961893212
0.00017817063195457305,5262.925910160761
0.00018516484179121546,5482.760615521961
0.000192433614111598,5711.573713636466
0.00019998772705352857,5949.707561254547
0.0002078383818579757,6197.5152356165945
0.00021599721947827182,6455.360336442803
0.0002244763378413224,6723.616278823246
0.0002332883097864157,7002.667608365586
0.00024244620170823283,7292.90839049771
0.0002519635929317015,7594.742806940577
0.0002618545958474233,7908.585547705668
0.0002721338768375308,8234.859874529011
0.0002828166780230032,8573.999373988294
0.0002939188398646886,8926.446259710585
0.0003054568246515432,9292.650812900765
0.00031744774091091926,9673.072605818366
0.00032990936877709396,10068.17738900022
0.00034286018635565856,10478.438580821885
0.00035631939712285854,10904.336049859867
0.000370306958400514,11346.353778890625
0.00038484361094874304,11804.981870228583
0.0003999509097203664,12280.713208667701
0.00041565125582259895,12774.043594030705
0.00043196792973341727,13285.471267135052
0.0004489251258218605,13815.492539136216
0.0004665479882234472,14364.603955455868
0.000484862648123908,14933.29880552931
0.000503896262506515,15522.065285917426
0.0005236770544204653,16131.386826017215
0.0005442343548300266,16761.734373051342
0.0005655986461065005,17413.568613511507
0.0005878016072274912,18087.33641465462
0.0006108761607505036,18783.465073154886
0.0006348565216305217,19502.36487135386
0.0006597782479539537,20244.415958796875
0.0006856782936641739,21009.969035826456
0.0007125950633568407,21799.344724902483
0.0007405684692262436,22612.820420255048
0.0007696399902471156,23450.63644823519
0.0007998527336796708,24312.98113240447
0.000831251498989063,25199.984848716573
0.0008638828442740447,26111.72594327607
0.000897795155303332,27048.212920804384
0.0009330387172620361,28009.389488067023
0.0009696657893145519,28995.13037403604
0.001007730682094461,30005.232414590428
0.0010472898382363582,31039.41618539464
0.0010884019160690055,32097.307268069148
0.0011311278765939214,33178.436447883265
0.001175531073878369,34282.234577101735
0.0012216773489967915,35408.00764741847
0.0012696351276599736,36554.9550996001
0.0013194755216767058,37722.22521417856
0.0013712724343984,38908.91949979864
0.0014251026703029975,40114.024622951045
0.0014810460488806749,41336.330896624284
0.0015391855229902056,42574.47892997652
0.001599607301861487,43826.98177375941
0.0016624009789266115,45092.22049691888
0.0017276596646690358,46368.44946683201
0.0017954801246878305,47653.82479676935
0.0018659629231817451,48946.39442774535
0.001939212572065829,50244.074598218875
0.0020153376859417325,51544.63570976499
0.002094451143151469,52845.72096903975
0.002176670253153458,54144.88705232939
0.002262116930469025,55439.61076595443
0.002350917875457286,56727.25834342331
0.002443204762186487,58005.072118856544
0.0025391144336803463,59270.18833277814
0.002638789104828933,60519.66017422936
0.002742376573264949,61750.47315095639
0.0028500304385181063,62959.5468448924
0.0029619103297725525,64143.809329591466
0.0030781821425650787,65300.18156834875
0.003199018284775064,66425.33611746764
0.0033245979322709396,67515.29092591164
0.003455107294592217,68565.95922112798
0.0035907398910610534,69574.7050366788
0.0037316968377327513,70540.40313126241
0.0038781871456107214,71461.19324149369
0.0040304280305680515,72330.45925895977
0.00418864523543527,73139.94156721602
0.004353073364731888,73884.00688748217
0.00452395623253805,74561.54345427475
0.004701547224022131,75171.7036676529
0.004886109671160325,75710.31565448685
0.005077917243205399,76171.34579232168
0.005277254352483535,76549.89577500748
0.005484416576121017,76844.1632003127
0.005699711094326071,77053.0237557936
0.005923457145875801,77173.65513862879
0.006155986501483508,77201.65000193051
0.006397643955748424,77132.76829028635
0.0066487878384172625,76962.74692980596
0.0069097905457156435,76687.62366220994
0.007181039092537346,76303.7692717052
0.007462935686310132,75807.86067316667
0.007755898323389004,75197.09807305822
0.00806036140886134,74468.74891960694
0.008376776400682916,73620.50265942329
0.008705612479099857,72650.04239780603
0.009047357242349292,71553.74090157116
0.00940251742967013,70328.73700031645
0.009771619672696168,68973.24670012004
0.010155211276345676,67486.68755143032
0.010553861030365234,65869.36180517875
0.010968160052731372,64120.35278303282
0.011398722666160517,62239.86024602425
0.011846187309026826,60228.99243194338
0.012311217482038896,58089.36612990016
0.012794502732078732,55824.93718780762
0.013296759674662111,53440.22788698093
0.013818733056536317,50941.83564557204
0.014361196859990781,48338.34151820027
0.014924955450518284,45638.26960034393
0.015510844769528393,42853.74914202911
0.016119733573881575,39998.35391706422
0.01675252472408214,37087.92274328744
0.017410156523040152,34142.062604406296
0.018093604107387147,31180.426014796525
0.01880388089340914,28226.566363372647
0.019542040079740527,25305.640562356082
0.02030917620904734,22443.15643210181
0.021106426791015535,19668.1024028384
0.021934973989050584,17007.458500153567
0.02279604637318978,14488.995292237207
0.023690920741826323,12139.903329337065
0.02462092401494623,9982.732838423135
0.02558743520168586,8038.632763629291
0.02659188744512693,6322.4452071696005
0.027635770147361564,4842.580271414207
0.028720631177978267,3601.314425736943
0.029848079169243254,2592.3590115602183
0.03101978590138095,1800.6203506554402
0.03223748878149028,1202.950869403248
0.0335029934197723,770.4099525751279
0.03481817630688963,473.4641938368659
0.03618498759642746,290.5909153908173
0.037605453996581675,189.1938036682273
0.03908168177536263,139.0360965154568
0.04061585988376978,123.22671099676332
0.04221026320156896,139.61319523611877
0.04386725591048496,193.97190301769746
0.0455892949998106,297.6134385234036
0.047378933909631396,466.83469830775846
0.049238826317067365,718.7885321831251
0.05117173007114603,1056.0875404600986
0.05318051128214196,1462.525621053126
0.05526814857144601,1898.059577678682
0.057437737488265785,2310.329093061188
0.0596924950997073,2638.1067720013484
0.0620357647610427,2821.7963657670384
0.06447102107323864,2810.373409669836
0.06700187503509585,2584.7207796131956
0.06963207939763882,2174.25003790435
0.0723655342286965,1656.2710053868063
0.07520629269592405,1125.3985222265512
0.07815856707684081,667.941516870464
0.08122673500479707,337.77551888613795
0.08441534596012978,140.03142677428013
0.0877291280161335,52.72831815568179
0.09117299484984914,25.904403192746614
0.09475205302806537,29.46206725202376
0.09847160957933764,66.17125126430643
0.1023371798632519,160.8149063101203
0.10635449574860109,321.135313751806
0.11052951411260206,506.77157903017263
0.1148684256737553,639.9749152877237
0.1193776641714435,655.9063524212834
0.1240639159058831,539.5819948366454
0.12893412965257148,347.91606495450037
0.13399552696593373,174.8527721974182
0.1392556128874462,71.9611755287305
0.14472218707411338,32.5889898605418
0.15040335536380234,31.175960674392137
0.15630754179458153,60.94833992575476
0.16244350109588662,123.13828716339759
0.16882033167003618,188.5023698826578
0.17544748908334581,204.48036265935696
0.1823348000868439,158.68854502864704
0.189492477187382,90.41342166848646
0.19693113379074215,44.79051428570122
0.20466179993919872,31.100667732487338
0.21269593866686892,40.58676844464719
0.22104546299710207,64.40934378155127
0.22972275360711503,79.95369929635496
0.23874067718606454,69.37068054711337
0.2481126055137766,44.84257620123262
0.25785243528842716,29.096882279783014
0.26797460873256895,27.877417822833987
0.27849413500806414,35.090154784649684
0.28942661247167484,38.694245999824815
0.3007882518043098,32.03326834060925
0.31259590004822796,23.27473110789007
0.324867065587837,20.456605226483322
0.3376199441111335,22.056903039503204
0.35087344559027084,21.89008855910559
0.36464722232127456,18.19982109710692
0.37896169806447155,15.317949735383062
0.3938380983288488,14.86062270187264
0.4092984818452433,14.307760616709677
0.4253657732750382,12.481735627013494
0.44206379720285277,11.097505659142943
0.45941731346364734,10.4701452477853
0.47745205385661277,9.554138525399425
0.4961947603002895,8.541899396596811
0.5156732244854959,7.860009480916854
0.5359163290848509,7.189513808242838
0.556954090580013,6.507005877091494
0.5788177037701272,5.927489597442568
0.6015395880274836,5.400697605459012
0.6251534353689703,4.920251549945782
0.6496942604146115,4.481858237341263
0.6751984523072497,4.081664130916769
0.7017038286703824,3.7162055941530805
0.7292496916841444,3.3824180852033456
0.7578768863625915,3.0777318058124155
0.7876278611187046,2.7998116052158593
0.8185467307069019,2.5464785358004955
0.850679341636415,2.315703895172546
0.8840733401525058,2.105601559478248
0.9187782428863317,1.9143814343341312
0.9548455102782278,1.7403512349921915
0.9923286228832539,1.5819682502659211
1.0312831606721837,1.4378292669151
1.0717668854455022,1.3066577493929594
1.1138398264826193,1.1872935944985996
1.1575643695533022,1.078688769650771
1.2030053494233226,0.9798898072814707
1.2502301459914542,0.8900259536215911
1.299308784200415,0.8083021750166669
1.3503140378698726,0.7339927413317199
1.4033215376054824,0.666435099982813
1.4584098829439835,0.6050244046700278
1.5156607589006013,0.5492090430217067
1.575159057091621,0.49848609126376814
1.6369930016117014,0.4523971006947727
1.7012542798525885,0.4105242123721418
1.7680381784572046,0.3724864104674599
1.8374437246107238,0.33793650463983804
1.9095738328780953,0.30655833229576473
1.9845354578058014,0.2780640267866263
2.0624397525140905,0.2521915206192311
2.143402233514853,0.22870231100133107
2.227542951999554,0.207379424982704
2.314986671851158,0.18802538907235936
2.405863054644063,0.1704604853064838
2.5003068519063225,0.15452118029088835
2.598458104929248,0.14005868762520507
2.7004623524206774,0.12693761680512136
2.806470846309834,0.1150348058526317
2.916640776023701,0.10423827192300503
3.031135501567576,0.09444621058341995
3.150124795755327,0.08556608225838999
3.2737850959485697,0.07751377738611556
3.4022997656780634,0.07021285284716379
3.5358593665351745,0.06359384899755958
3.6746619407366854,0.05759366110589178
3.8189133047818515,0.05215496455981098
3.968827354637162,0.04722569206597592
4.1246263829013445,0.04275857484341184
4.286541408420921,0.0387107028204621
4.4548125188449825,0.03504310482184475
4.629689226627261,0.03172039074150196
4.811430839003257,0.028710426964073138
5.000306842491082,0.025984034432398103
5.196597302486189,0.0235146943952406
5.400593278542364,0.02127833808267249
5.612597255954967,0.019253135495552853
5.8329235942862,0.017419288488580986
6.06189899349756,0.015758842998505586
6.29986297838068,0.014255528591840122
6.547168402004727,0.012894604961887095
6.804181968927091,0.011662701709619477
7.071284778942991,0.010547690927039615
7.348872892180382,0.00953857314802295
7.637357916378006,0.008625372337550017
7.937167617217536,0.007799032775612335
8.248746552614573,0.007051342666548645
8.572556731909314,0.006374862131668727
8.909078300934132,0.005762851074766769
9.258810253973934,0.005209203712742426
9.622271173675122,0.0047083918924534
9.999999999999984,0.004255413462975486
