k [1/Mpc],P(k) [Mpc^3]
0.0001,992.7117079038671
0.00010392556829367125,1025.724723170409
0.00010800523745162529,1059.834349783141
0.00011224505680853065,1095.0768552008235
0.00011665131316981963,1131.4896992696288
0.00012123054013376525,1169.1115892077
0.00012598952777950273,1207.9825109076594
0.00013093533273536104,1248.1437299255754
0.00013607528864243335,1289.6377984677913
0.00014141701702890234,1332.508648882464
0.00014696843861124463,1376.8016486997337
0.00015273778503907136,1422.563645211437
0.00015873361110102093,1469.8430023761482
0.00016496480740980205,1518.6896337131839
0.0001714406135851971,1569.1550632902222
0.00017817063195457305,1621.2923947538416
0.00018516484179121546,1675.1563609609082
0.000192433614111598,1730.803456596863
0.00019998772705352857,1788.2920347147701
0.0002078383818579757,1847.6823304591314
0.00021599721947827182,1909.0363963322657
0.0002244763378413224,1972.418111139892
0.0002332883097864157,2037.8933598959748
0.00024244620170823283,2105.530100473704
0.0002519635929317015,2175.398426268282
0.0002618545958474233,2247.570518189138
0.0002721338768375308,2322.1205887292326
0.0002828166780230032,2399.1251090997744
0.0002939188398646886,2478.6628417030583
0.0003054568246515432,2560.814921561928
0.00031744774091091926,2645.6648934702457
0.00032990936877709396,2733.298654444055
0.00034286018635565856,2823.804633395383
0.00035631939712285854,2917.273606976302
0.000370306958400514,3013.798757281153
0.00038484361094874304,3113.4759246128824
0.0003999509097203664,3216.4035365822165
0.00041565125582259895,3322.6827778498623
0.00043196792973341727,3432.4174601761083
0.0004489251258218605,3545.71397651488
0.0004665479882234472,3662.681570278104
0.000484862648123908,3783.432059889904
0.000503896262506515,3908.080081442728
0.0005236770544204653,4036.742983288237
0.0005442343548300266,4169.540540183041
0.0005655986461065005,4306.595443515718
0.0005878016072274912,4448.03309900039
0.0006108761607505036,4593.981752407779
0.0006348565216305217,4744.572433470324
0.0006597782479539537,4899.9384219909525
0.0006856782936641739,5060.215806583294
0.0007125950633568407,5225.542987271105
0.0007405684692262436,5396.060658990166
0.0007696399902471156,5571.91215841303
0.0007998527336796708,5753.2428209152895
0.000831251498989063,5940.200433203839
0.0008638828442740447,6132.9344856968455
0.000897795155303332,6331.595699426369
0.0009330387172620361,6536.336846255702
0.0009696657893145519,6747.3118022520775
0.001007730682094461,6964.675956541721
0.0010472898382363582,7188.585381625035
0.0010884019160690055,7419.1954616938865
0.0011311278765939214,7656.662288634271
0.001175531073878369,7901.140570079721
0.0012216773489967915,8152.784021649551
0.0012696351276599736,8411.745640246812
0.0013194755216767058,8678.175810839555
0.0013712724343984,8952.223556079276
0.0014251026703029975,9234.033704907393
0.0014810460488806749,9523.74642556366
0.0015391855229902056,9821.498489785174
0.001599607301861487,10127.42013573605
0.0016624009789266115,10441.63668085496
0.0017276596646690358,10764.266410563294
0.0017954801246878305,11095.418868187948
0.0018659629231817451,11435.196371754968
0.001939212572065829,11783.688880801725
0.0020153376859417325,12140.975822777142
0.002094451143151469,12507.12529895891
0.002176670253153458,12882.190954666396
0.002262116930469025,13266.214164903919
0.002350917875457286,13659.219151557867
0.002443204762186487,14061.21338414548
0.0025391144336803463,14472.187721641898
0.002638789104828933,14892.111896363322
0.002742376573264949,15320.937005570693
0.0028500304385181063,15758.590124627632
0.0029619103297725525,16204.973103600778
0.0030781821425650787,16659.964601153035
0.003199018284775064,17123.414078571706
0.0033245979322709396,17595.144549768516
0.003455107294592217,18074.9468095548
0.0035907398910610534,18562.575394886033
0.0037316968377327513,19057.75378688923
0.0038781871456107214,19560.16693090255
0.0040304280305680515,20069.46400129612
0.00418864523543527,20585.254776495487
0.004353073364731888,21107.10233881163
0.00452395623253805,21634.530265619287
0.004701547224022131,22167.009979886105
0.004886109671160325,22703.963885144763
0.005077917243205399,23244.769669468435
0.005277254352483535,23788.753014912178
0.005484416576121017,24335.192462575687
0.005699711094326071,24883.278132674983
0.005923457145875801,25432.11075191424
0.006155986501483508,25980.75886283561
0.006397643955748424,26528.3340987034
0.0066487878384172625,27073.92985864904
0.0069097905457156435,27616.411392057893
0.007181039092537346,28154.333174357034
0.007462935686310132,28686.18548578702
0.007755898323389004,29210.55410976596
0.00806036140886134,29726.04452357777
0.008376776400682916,30231.213796333872
0.008705612479099857,30724.566658831733
0.009047357242349292,31204.557411795857
0.00940251742967013,31669.440305207136
0.009771619672696168,32117.326732493868
0.010155211276345676,32546.26101916832
0.010553861030365234,32954.1625303956
0.010968160052731372,33338.9083239607
0.011398722666160517,33698.28482901299
0.011846187309026826,34030.00253637595
0.012311217482038896,34331.74932968601
0.012794502732078732,34601.09623115261
0.013296759674662111,34835.609755006066
0.013818733056536317,35032.782227868396
0.014361196859990781,35190.00350645629
0.014924955450518284,35304.720368311995
0.015510844769528393,35374.30670435068
0.016119733573881575,35396.20120331176
0.01675252472408214,35367.91210883015
0.017410156523040152,35286.94175327346
0.018093604107387147,35151.000807163065
0.01880388089340914,34957.890454659115
0.019542040079740527,34705.61773756701
0.02030917620904734,34392.4985841122
0.021106426791015535,34017.075279052726
0.021934973989050584,33578.31658732716
0.02279604637318978,33075.631041767745
0.023690920741826323,32508.9097438094
0.02462092401494623,31878.637604710562
0.02558743520168586,31185.990818709273
0.02659188744512693,30432.779608578072
0.027635770147361564,29621.67886280614
0.028720631177978267,28756.27563414045
0.029848079169243254,27840.799333093295
0.03101978590138095,26880.74289529325
0.03223748878149028,25882.22470987009
0.0335029934197723,24852.250645770593
0.03481817630688963,23799.188936235532
0.03618498759642746,22731.350945662998
0.037605453996581675,21658.16479025375
0.03908168177536263,20589.172842391476
0.04061585988376978,19533.947525307463
0.04221026320156896,18503.930197600737
0.04386725591048496,17509.103749219186
0.0455892949998106,16557.33272227462
0.047378933909631396,15654.582790900988
0.049238826317067365,14806.64465504346
0.05117173007114603,14023.83751447181
0.05318051128214196,13315.347337427555
0.05526814857144601,12683.343247875466
0.057437737488265785,12124.39067819481
0.0596924950997073,11634.292372610198
0.0620357647610427,11207.642599271243
0.06447102107323864,10837.935210273632
0.06700187503509585,10515.242642923478
0.06963207939763882,10229.410170839901
0.0723655342286965,9969.585104325895
0.07520629269592405,9720.42024397067
0.07815856707684081,9461.508800808504
0.08122673500479707,9173.493956344362
0.08441534596012978,8839.830357540011
0.0877291280161335,8448.910555328848
0.09117299484984914,7997.608198922228
0.09475205302806537,7491.467224436952
0.09847160957933764,6943.696225168376
0.1023371798632519,6373.01464833018
0.10635449574860109,5802.485221880217
0.11052951411260206,5256.853736819897
0.1148684256737553,4761.783273620195
0.1193776641714435,4339.400277974006
0.1240639159058831,4003.275149194091
0.12893412965257148,3755.7609260137456
0.13399552696593373,3586.846563396792
0.1392556128874462,3476.0070566145127
0.14472218707411338,3395.2269493500653
0.15040335536380234,3312.6713863342234
0.15630754179458153,3198.401116882676
0.16244350109588662,3031.552350012515
0.16882033167003618,2806.706469887755
0.17544748908334581,2537.9939638635283
0.1823348000868439,2258.0900501800975
0.189492477187382,2006.4995347541544
0.19693113379074215,1811.39768943869
0.20466179993919872,1681.0058816754397
0.21269593866686892,1606.43300143903
0.22104546299710207,1562.710833399174
0.22972275360711503,1513.384977716007
0.23874067718606454,1429.5799415414542
0.2481126055137766,1306.3125304181258
0.25785243528842716,1162.9881983540076
0.26797460873256895,1032.1798207335755
0.27849413500806414,938.5994704953359
0.28942661247167484,884.6845526774408
0.3007882518043098,850.0820658884261
0.31259590004822796,807.0867627846136
0.324867065587837,741.5212139946956
0.3376199441111335,663.0488894285946
0.35087344559027084,595.2212935027521
0.36464722232127456,550.3482003385573
0.37896169806447155,520.6443619930142
0.3938380983288488,487.57425135295045
0.4092984818452433,443.932957558909
0.4253657732750382,399.5484198377505
0.44206379720285277,366.3236751640203
0.45941731346364734,342.1040450935254
0.47745205385661277,316.62328265125285
0.4961947603002895,287.5084462274821
0.5156732244854959,261.6848622865946
0.5359163290848509,241.82725568911943
0.556954090580013,222.92188200648806
0.5788177037701272,203.01121255795874
0.6015395880274836,185.47122448272708
0.6251534353689703,170.65376772754001
0.6496942604146115,156.10911127524724
0.6751984523072497,142.39400568411537
0.7017038286703824,130.45875321496385
0.7292496916841444,119.34794565766178
0.7578768863625915,109.07505369317064
0.7876278611187046,99.62493303686752
0.8185467307069019,90.94639043788754
0.850679341636415,82.98897626193326
0.8840733401525058,75.70343068235773
0.9187782428863317,69.04105247261434
0.9548455102782278,62.950375225236996
0.9923286228832539,57.38245177224207
1.0312831606721837,52.292632397453026
1.0717668854455022,47.64017035822565
1.1138398264826193,43.38787556674243
1.1575643695533022,39.502269231443904
1.2030053494233226,35.9532616997396
1.2502301459914542,32.71310319657508
1.299308784200415,29.756167291434664
1.3503140378698726,27.05880692458223
1.4033215376054824,24.59920019553874
1.4584098829439835,22.357138073813505
1.5156607589006013,20.31400917898659
1.575159057091621,18.452729913265106
1.6369930016117014,16.75762560894741
1.7012542798525885,15.214320254320699
1.7680381784572046,13.809640394277624
1.8374437246107238,12.531521343054632
1.9095738328780953,11.368907634022772
1.9845354578058014,10.311671957470933
2.0624397525140905,9.350541199525729
2.143402233514853,8.477027529651888
2.227542951999554,7.683362454857346
2.314986671851158,6.96244119053705
2.405863054644063,6.307770134210206
2.5003068519063225,5.713416513602525
2.598458104929248,5.173961936304468
2.7004623524206774,4.68445869160734
2.806470846309834,4.240389945235849
2.916640776023701,3.8376354275011044
3.031135501567576,3.4724380595294044
3.150124795755327,3.1413730450028705
3.2737850959485697,2.8413194522259477
3.4022997656780634,2.5694339516199296
3.5358593665351745,2.323127084141597
3.6746619407366854,2.100041450269548
3.8189133047818515,1.8980315544447521
3.968827354637162,1.7151453309990634
4.1246263829013445,1.549607071574034
4.286541408420921,1.399801817153522
4.4548125188449825,1.2642615601605494
4.629689226627261,1.1416522816462833
4.811430839003257,1.0307620426936972
5.000306842491082,0.9304900889590415
5.196597302486189,0.8398367950288598
5.400593278542364,0.7578946809117236
5.612597255954967,0.6838402135783451
5.8329235942862,0.6169262228697207
6.06189899349756,0.5564749818735333
6.29986297838068,0.5018718737332252
6.547168402004727,0.45255961312253096
6.804181968927091,0.40803307608110523
7.071284778942991,0.36783453035910213
7.348872892180382,0.33154927948609625
7.637357916378006,0.2988016911431668
7.937167617217536,0.2692515072875572
8.248746552614573,0.24259062210049018
8.572556731909314,0.21854017508076806
8.909078300934132,0.19684782431966477
9.258810253973934,0.17728526705150208
9.622271173675122,0.15964604408547534
9.999999999999984,0.14374358664880973
