k [1/Mpc],P(k) [Mpc^3]
0.0001,42.572178424116395
0.00010392556829367125,44.37101402805995
0.00010800523745162529,46.245827969999965
0.00011224505680853065,48.199829264935794
0.00011665131316981963,50.23636115481542
0.00012123054013376525,52.35890530353943
0.00012598952777950273,54.57108950360655
0.00013093533273536104,56.876692430908676
0.00013607528864243335,59.27965033142277
0.00014141701702890234,61.784065538626145
0.00014696843861124463,64.39421567363752
0.00015273778503907136,67.11455887998255
0.00015873361110102093,69.94973916189704
0.00016496480740980205,72.90459379037193
0.0001714406135851971,75.98416263630308
0.00017817063195457305,79.19369506323493
0.00018516484179121546,82.5386596487435
0.000192433614111598,86.02475388229291
0.00019998772705352857,89.65791364075648
0.0002078383818579757,93.44432284153523
0.00021599721947827182,97.39042063208609
0.0002244763378413224,101.50291284163549
0.0002332883097864157,105.78878500118434
0.00024244620170823283,110.25531432185295
0.0002519635929317015,114.91008113214188
0.0002618545958474233,119.76097704225856
0.0002721338768375308,124.81621713247803
0.0002828166780230032,130.0843558895365
0.0002939188398646886,135.57429652208117
0.0003054568246515432,141.29530820736153
0.00031744774091091926,147.25704230675836
0.00032990936877709396,153.46954761410024
0.00034286018635565856,159.94328530221335
0.00035631939712285854,166.68913218005778
0.000370306958400514,173.71840189018215
0.00038484361094874304,181.04286970904425
0.0003999509097203664,188.67479115940452
0.00041565125582259895,196.62691989893722
0.00043196792973341727,204.91251012213436
0.0004489251258218605,213.54533506606248
0.0004665479882234472,222.53971979873404
0.000484862648123908,231.91055664306512
0.000503896262506515,241.6733312122799
0.0005236770544204653,251.84413607585506
0.0005442343548300266,262.4396863353186
0.0005655986461065005,273.4773536925658
0.0005878016072274912,284.97516730888714
0.0006108761607505036,296.9518477684087
0.0006348565216305217,309.4268337643877
0.0006597782479539537,322.4202890947972
0.0006856782936641739,335.95314796392586
0.0007125950633568407,350.04712396312965
0.0007405684692262436,364.7247374450345
0.0007696399902471156,380.0093500609499
0.0007998527336796708,395.92515635991145
0.000831251498989063,412.4972384982324
0.0008638828442740447,429.75156656342284
0.000897795155303332,447.7150047075527
0.0009330387172620361,466.4153812911233
0.0009696657893145519,485.88149003134396
0.001007730682094461,506.14313307915756
0.0010472898382363582,527.2311220237649
0.0010884019160690055,549.1772409880093
0.0011311278765939214,572.0143423472583
0.001175531073878369,595.7762847380179
0.0012216773489967915,620.4979656752487
0.0012696351276599736,646.2153957472342
0.0013194755216767058,672.965647139306
0.0013712724343984,700.7869331724052
0.0014251026703029975,729.7185080356516
0.0014810460488806749,759.8006188453895
0.0015391855229902056,791.0746476899415
0.001599607301861487,823.5829585460324
0.0016624009789266115,857.3689907260012
0.0017276596646690358,892.4772237642654
0.0017954801246878305,928.9530230715694
0.0018659629231817451,966.8428093964161
0.001939212572065829,1006.193830854939
0.0020153376859417325,1047.0541829661338
0.002094451143151469,1089.4728597165756
0.002176670253153458,1133.4994505705524
0.002262116930469025,1179.1843301334156
0.002350917875457286,1226.5783732896093
0.002443204762186487,1275.732792309689
0.0025391144336803463,1326.6993385121089
0.002638789104828933,1379.5298918122446
0.002742376573264949,1434.2765755784997
0.0028500304385181063,1490.9915248743728
0.0029619103297725525,1549.726452402395
0.0030781821425650787,1610.5329409269345
0.003199018284775064,1673.4618923786218
0.0033245979322709396,1738.5634899545282
0.003455107294592217,1805.8871521349402
0.0035907398910610534,1875.4808535515194
0.0037316968377327513,1947.3913869092103
0.0038781871456107214,2021.6637171974132
0.0040304280305680515,2098.3406238126836
0.00418864523543527,2177.4628632443487
0.004353073364731888,2259.0680918643516
0.00452395623253805,2343.1911079583188
0.004701547224022131,2429.863289909924
0.004886109671160325,2519.1117018577247
0.005077917243205399,2610.9595099948774
0.005277254352483535,2705.424177982467
0.005484416576121017,2802.5175375651747
0.005699711094326071,2902.2459936123837
0.005923457145875801,3004.609355008477
0.006155986501483508,3109.601047259689
0.006397643955748424,3217.204171193221
0.0066487878384172625,3327.390464004866
0.0069097905457156435,3440.1246770856537
0.007181039092537346,3555.371285277865
0.007462935686310132,3673.089415793182
0.007755898323389004,3793.213250616844
0.00806036140886134,3915.637854040137
0.008376776400682916,4040.243458921515
0.008705612479099857,4166.919754724853
0.009047357242349292,4295.557943045835
0.00940251742967013,4426.026417705355
0.009771619672696168,4558.14755627644
0.010155211276345676,4691.721576129158
0.010553861030365234,4826.546214147515
0.010968160052731372,4962.417388409589
0.011398722666160517,5099.1103392669265
0.011846187309026826,5236.353838828397
0.012311217482038896,5373.848216635758
0.012794502732078732,5511.267220666154
0.013296759674662111,5648.253855797229
0.013818733056536317,5784.428966301918
0.014361196859990781,5919.3870771788925
0.014924955450518284,6052.699702737808
0.015510844769528393,6183.910927481044
0.016119733573881575,6312.524540402453
0.01675252472408214,6438.021845944473
0.017410156523040152,6559.853994191199
0.018093604107387147,6677.445264132856
0.01880388089340914,6790.202242359689
0.019542040079740527,6897.502082696534
0.02030917620904734,6998.708863352181
0.021106426791015535,7093.174154798468
0.021934973989050584,7180.237559813444
0.02279604637318978,7259.242354932623
0.023690920741826323,7329.538018275827
0.02462092401494623,7390.488357783543
0.02558743520168586,7441.485455074943
0.02659188744512693,7481.963811417865
0.027635770147361564,7511.398194833867
0.028720631177978267,7529.343362532648
0.029848079169243254,7535.4324154656615
0.03101978590138095,7529.377125482086
0.03223748878149028,7511.043021040188
0.0335029934197723,7480.383247408617
0.03481817630688963,7437.51571846907
0.03618498759642746,7382.749248000476
0.037605453996581675,7316.4855432196355
0.03908168177536263,7239.387152897071
0.04061585988376978,7152.242863448629
0.04221026320156896,7056.001417496559
0.04386725591048496,6951.906151823908
0.0455892949998106,6841.2252327175775
0.047378933909631396,6725.340560640739
0.049238826317067365,6605.684233514603
0.05117173007114603,6483.672363427491
0.05318051128214196,6360.83608311284
0.05526814857144601,6238.652991177731
0.057437737488265785,6118.62966891937
0.0596924950997073,6002.316549821804
0.0620357647610427,5890.892469556662
0.06447102107323864,5784.285572904155
0.06700187503509585,5682.042687647602
0.06963207939763882,5583.123075731545
0.0723655342286965,5486.162839424346
0.07520629269592405,5389.429016053213
0.07815856707684081,5290.94459573686
0.08122673500479707,5188.4749111593555
0.08441534596012978,5079.651670392359
0.0877291280161335,4961.861383124127
0.09117299484984914,4832.6619525914775
0.09475205302806537,4690.072551753043
0.09847160957933764,4533.290697576116
0.1023371798632519,4363.151950715008
0.10635449574860109,4182.75229194094
0.11052951411260206,3997.1073134059257
0.1148684256737553,3811.3249231291857
0.1193776641714435,3630.0898160961933
0.1240639159058831,3458.5192222935893
0.12893412965257148,3301.0771518811
0.13399552696593373,3160.9956923416917
0.1392556128874462,3039.5274152814036
0.14472218707411338,2934.6614555830515
0.15040335536380234,2841.0176332091287
0.15630754179458153,2750.8394730195246
0.16244350109588662,2655.9622735748417
0.16882033167003618,2550.080752114844
0.17544748908334581,2430.55412673932
0.1823348000868439,2299.400343161329
0.189492477187382,2162.8836566588543
0.19693113379074215,2029.505366942104
0.20466179993919872,1907.561603003581
0.21269593866686892,1803.0122027649275
0.22104546299710207,1716.982843983579
0.22972275360711503,1644.196333011081
0.23874067718606454,1575.3923929241619
0.2481126055137766,1502.024561290394
0.25785243528842716,1419.299662688693
0.26797460873256895,1328.9878485337047
0.27849413500806414,1239.6271736281183
0.28942661247167484,1160.0221403296493
0.3007882518043098,1093.6457529711101
0.31259590004822796,1037.5487130871563
0.324867065587837,984.2659960590543
0.3376199441111335,927.4248158576769
0.35087344559027084,866.4352172727978
0.36464722232127456,807.0360818246752
0.37896169806447155,754.988531984511
0.3938380983288488,710.4857150473705
0.4092984818452433,668.9063720321979
0.4253657732750382,626.2575336615296
0.44206379720285277,583.2957079096919
0.45941731346364734,543.7193316545619
0.47745205385661277,508.91333389986164
0.4961947603002895,476.3283468326588
0.5156732244854959,444.0876137835696
0.5359163290848509,413.15317867779805
0.556954090580013,385.07055928416025
0.5788177037701272,359.1382668515242
0.6015395880274836,334.17641102431134
0.6251534353689703,310.5798650089502
0.6496942604146115,288.87833320284
0.6751984523072497,268.5376610992382
0.7017038286703824,249.3059462163581
0.7292496916841444,231.41527505400418
0.7578768863625915,214.75788669958854
0.7876278611187046,199.12302263459617
0.8185467307069019,184.5635539919462
0.850679341636415,170.99999333694265
0.8840733401525058,158.35127979156718
0.9187782428863317,146.5696462123398
0.9548455102782278,135.60272262316366
0.9923286228832539,125.40060000535296
1.0312831606721837,115.91578141808057
1.0717668854455022,107.10296801908542
1.1138398264826193,98.91900489778011
1.1575643695533022,91.32307051418053
1.2030053494233226,84.2766074644744
1.2502301459914542,77.7432331117555
1.299308784200415,71.68864753696113
1.3503140378698726,66.08052182643802
1.4033215376054824,60.88842974198864
1.4584098829439835,56.08377815779236
1.5156607589006013,51.639719503674286
1.575159057091621,47.53106599576773
1.6369930016117014,43.734200203867466
1.7012542798525885,40.22698038205561
1.7680381784572046,36.98868479716327
1.8374437246107238,33.999940407987395
1.9095738328780953,31.242647794038007
1.9845354578058014,28.699908948766556
2.0624397525140905,26.35595139434273
2.143402233514853,24.19606102484187
2.227542951999554,22.206531146110805
2.314986671851158,20.374602232782447
2.405863054644063,18.68840351695833
2.5003068519063225,17.136897222727825
2.598458104929248,15.7098228356697
2.7004623524206774,14.397649648575737
2.806470846309834,13.191532290077008
2.916640776023701,12.083265812494803
3.031135501567576,11.065243260288153
3.150124795755327,10.130414388945843
3.2737850959485697,9.272244248005817
3.4022997656780634,8.4846835365058
3.5358593665351745,7.762136787379777
3.6746619407366854,7.099430597536081
3.8189133047818515,6.491783863084179
3.968827354637162,5.934779643496837
4.1246263829013445,5.424338998126529
4.286541408420921,4.956697196819847
4.4548125188449825,4.528380973969479
4.629689226627261,4.136187235967266
4.811430839003257,3.777163119477785
5.000306842491082,3.448586369357351
5.196597302486189,3.1479488282590977
5.400593278542364,2.8729414867358583
5.612597255954967,2.6214394307777993
5.8329235942862,2.39148782729594
6.06189899349756,2.181288887863771
6.29986297838068,1.9891897035376735
6.547168402004727,1.8136711729895205
6.804181968927091,1.653337661678154
7.071284778942991,1.5069073692597874
7.348872892180382,1.3732034070188646
7.637357916378006,1.2511451637860969
7.937167617217536,1.13974042632597
8.248746552614573,1.0380792182271523
8.572556731909314,0.9453273081348625
8.909078300934132,0.8607200985169375
9.258810253973934,0.7835570314966575
9.622271173675122,0.7131971370805242
9.999999999999984,0.6490538427456387
