k [1/Mpc],P(k) [Mpc^3]
0.0001,34.43301849259885
0.00010392556829367125,35.887843242169886
0.00010800523745162529,37.404108856227005
0.00011224505680853065,38.98440467784296
0.00011665131316981963,40.631428644242895
0.00012123054013376525,42.347993351006444
0.00012598952777950273,44.13703032670554
0.00013093533273536104,46.00159401484226
0.00013607528864243335,47.94486634616916
0.00014141701702890234,49.97016268552615
0.00014696843861124463,52.08093709431966
0.00015273778503907136,54.280788145757256
0.00015873361110102093,56.57346469326609
0.00016496480740980205,58.96287028009821
0.0001714406135851971,61.45307105284814
0.00017817063195457305,64.0483037017632
0.00018516484179121546,66.75298280745987
0.000192433614111598,69.57170696443991
0.00019998772705352857,72.50926313751322
0.0002078383818579757,75.57063609991701
0.00021599721947827182,78.7610175201252
0.0002244763378413224,82.08581395987605
0.0002332883097864157,85.55065617111399
0.00024244620170823283,89.16140625874912
0.0002519635929317015,92.924167570713
0.0002618545958474233,96.84529360232392
0.0002721338768375308,100.93139257134203
0.0002828166780230032,105.18934285900738
0.0002939188398646886,109.62630700491174
0.0003054568246515432,114.24974347963314
0.00031744774091091926,119.06741373633439
0.00032990936877709396,124.08737896348944
0.00034286018635565856,129.31802154350703
0.00035631939712285854,134.7680650777327
0.000370306958400514,140.446589284374
0.00038484361094874304,146.36303980236505
0.0003999509097203664,152.5272277881559
0.00041565125582259895,158.949348894194
0.00043196792973341727,165.64000044848774
0.0004489251258218605,172.61018674734515
0.0004665479882234472,179.871344157154
0.000484862648123908,187.43534802078526
0.000503896262506515,195.31452856716646
0.0005236770544204653,203.5216940315559
0.0005442343548300266,212.07013862946152
0.0005655986461065005,220.9736665131577
0.0005878016072274912,230.24658605900296
0.0006108761607505036,239.90371263644323
0.0006348565216305217,249.96041614885286
0.0006597782479539537,260.4326356604434
0.0006856782936641739,271.3369012694595
0.0007125950633568407,282.69033472463684
0.0007405684692262436,294.5106379732277
0.0007696399902471156,306.81614598120325
0.0007998527336796708,319.6258222776278
0.000831251498989063,332.9592816106929
0.0008638828442740447,346.83681497951653
0.000897795155303332,361.27936807406553
0.0009330387172620361,376.3085921071097
0.0009696657893145519,391.94682500426916
0.001007730682094461,408.21709314268685
0.0010472898382363582,425.14316165994296
0.0010884019160690055,442.74947575142596
0.0011311278765939214,461.06121812960134
0.001175531073878369,480.10428884028653
0.0012216773489967915,499.90525146834005
0.0012696351276599736,520.4914245624867
0.0013194755216767058,541.8907775312842
0.0013712724343984,564.1319690006383
0.0014251026703029975,587.2443666380505
0.0014810460488806749,611.2579245948949
0.0015391855229902056,636.203293105975
0.001599607301861487,662.1116858464077
0.0016624009789266115,689.014850777321
0.0017276596646690358,716.9451358463966
0.0017954801246878305,745.9352389668086
0.0018659629231817451,776.0183411685774
0.001939212572065829,807.2280260202451
0.0020153376859417325,839.5981536259516
0.002094451143151469,873.1629426872346
0.002176670253153458,907.9565698417166
0.002262116930469025,944.0132593738028
0.002350917875457286,981.3673130672482
0.002443204762186487,1020.0528873543018
0.0025391144336803463,1060.1040700323333
0.002638789104828933,1101.5544247042715
0.002742376573264949,1144.436916735397
0.0028500304385181063,1188.7839977399753
0.0029619103297725525,1234.627125660183
0.0030781821425650787,1281.9969292853834
0.003199018284775064,1330.9228332769858
0.0033245979322709396,1381.432761973937
0.003455107294592217,1433.5532687387013
0.0035907398910610534,1487.3087737608091
0.0037316968377327513,1542.7217038902877
0.0038781871456107214,1599.8122082372736
0.0040304280305680515,1658.5975209625983
0.00418864523543527,1719.0922607092555
0.004353073364731888,1781.3075050395923
0.00452395623253805,1845.2507155676972
0.004701547224022131,1910.9255763966034
0.004886109671160325,1978.3306956301408
0.005077917243205399,2047.4602564087538
0.005277254352483535,2118.3032271509396
0.005484416576121017,2190.842915784147
0.005699711094326071,2265.0565674689087
0.005923457145875801,2340.911063769044
0.006155986501483508,2418.3651713786126
0.006397643955748424,2497.3748222451923
0.0066487878384172625,2577.8962846392733
0.0069097905457156435,2659.8776507489733
0.007181039092537346,2743.2336635636034
0.007462935686310132,2827.8536909435206
0.007755898323389004,2913.6235975002955
0.00806036140886134,3000.442283985021
0.008376776400682916,3088.2026138532983
0.008705612479099857,3176.764885199427
0.009047357242349292,3265.956436322944
0.00940251742967013,3355.593691683116
0.009771619672696168,3445.4967017202944
0.010155211276345676,3535.4782842077757
0.010553861030365234,3625.322714538811
0.010968160052731372,3714.777119771689
0.011398722666160517,3803.570630882358
0.011846187309026826,3891.405854705871
0.012311217482038896,3977.9649260977926
0.012794502732078732,4062.9088963917516
0.013296759674662111,4145.869968657471
0.013818733056536317,4226.4635523081015
0.014361196859990781,4304.274792171869
0.014924955450518284,4378.864013628494
0.015510844769528393,4449.772792565745
0.016119733573881575,4516.502884263817
0.01675252472408214,4578.542122029613
0.017410156523040152,4635.35405956063
0.018093604107387147,4686.377873801197
0.01880388089340914,4731.050537255311
0.019542040079740527,4768.780905058494
0.02030917620904734,4798.979364086418
0.021106426791015535,4821.059457329888
0.021934973989050584,4834.4286003808675
0.02279604637318978,4838.527147889633
0.023690920741826323,4832.809992075809
0.02462092401494623,4816.770633178792
0.02558743520168586,4789.964309405193
0.02659188744512693,4752.001811183788
0.027635770147361564,4702.58249979257
0.028720631177978267,4641.509184301759
0.029848079169243254,4568.697385970187
0.03101978590138095,4484.193884629967
0.03223748878149028,4388.221833413372
0.0335029934197723,4281.145997848239
0.03481817630688963,4163.529609640851
0.03618498759642746,4036.1579021571315
0.037605453996581675,3899.9424298618387
0.03908168177536263,3756.089745320275
0.04061585988376978,3605.9407253471813
0.04221026320156896,3450.986831543986
0.04386725591048496,3293.0325635791482
0.0455892949998106,3133.814397280925
0.047378933909631396,2975.2617339795215
0.049238826317067365,2819.3245003167885
0.05117173007114603,2667.773157352336
0.05318051128214196,2522.5466126319866
0.05526814857144601,2385.3075951473825
0.057437737488265785,2257.754970189055
0.0596924950997073,2141.547880569926
0.0620357647610427,2037.7334343806046
0.06447102107323864,1946.7123730619044
0.06700187503509585,1868.5463813976423
0.06963207939763882,1802.8612505529172
0.0723655342286965,1748.988798528686
0.07520629269592405,1705.7803454827438
0.07815856707684081,1671.6608794044396
0.08122673500479707,1644.5291228052638
0.08441534596012978,1621.4648676709628
0.0877291280161335,1599.152859857022
0.09117299484984914,1574.0790774025868
0.09475205302806537,1542.0941087666324
0.09847160957933764,1499.329216619036
0.1023371798632519,1443.184768445473
0.10635449574860109,1372.626537863152
0.11052951411260206,1288.5551923691667
0.1148684256737553,1193.643120257458
0.1193776641714435,1092.2409982972965
0.1240639159058831,989.9833564100896
0.12893412965257148,893.0046225650897
0.13399552696593373,807.0450651403391
0.1392556128874462,736.5373602189445
0.14472218707411338,683.9104322053962
0.15040335536380234,649.3794827269852
0.15630754179458153,630.9608931165417
0.16244350109588662,624.4116674679236
0.16882033167003618,623.2830499179909
0.17544748908334581,619.6447141329422
0.1823348000868439,605.7855093995961
0.189492477187382,576.5297140652
0.19693113379074215,531.4525874574663
0.20466179993919872,475.86488362044753
0.21269593866686892,419.0660225767203
0.22104546299710207,370.42607965875106
0.22972275360711503,336.2429323087537
0.23874067718606454,318.40370142839237
0.2481126055137766,313.59467202212187
0.25785243528842716,313.65005768493194
0.26797460873256895,308.77992828750405
0.27849413500806414,292.0110316027315
0.28942661247167484,263.36949932048356
0.3007882518043098,230.6244151766699
0.31259590004822796,203.8796179781361
0.324867065587837,188.92760344289192
0.3376199441111335,184.17443313156608
0.35087344559027084,182.10527668997335
0.36464722232127456,174.14201634821575
0.37896169806447155,157.67425871914688
0.3938380983288488,138.79570357395002
0.4092984818452433,125.37301104165964
0.4253657732750382,119.58531438599553
0.44206379720285277,116.39253633629018
0.45941731346364734,109.2864737825629
0.47745205385661277,97.96499001946911
0.4961947603002895,88.02243794940622
0.5156732244854959,82.7781909098406
0.5359163290848509,79.20771728770127
0.556954090580013,73.1901662971867
0.5788177037701272,65.88415819721337
0.6015395880274836,60.83290024580407
0.6251534353689703,57.50587837233916
0.6496942604146115,53.12375194768305
0.6751984523072497,48.25763173935588
0.7017038286703824,44.80012702666565
0.7292496916841444,41.77998476675685
0.7578768863625915,38.213532501346485
0.7876278611187046,35.2054189070632
0.8185467307069019,32.563477846980035
0.850679341636415,30.058680910897277
0.8840733401525058,27.70567264330064
0.9187782428863317,25.5136835076258
0.9548455102782278,23.48398302594211
0.9923286228832539,21.60756680640288
1.0312831606721837,19.874386680520356
1.0717668854455022,18.27484162542607
1.1138398264826193,16.799787016185416
1.1575643695533022,15.440487167413364
1.2030053494233226,14.188148528904598
1.2502301459914542,13.034310508917276
1.299308784200415,11.971207274488954
1.3503140378698726,10.991711768139911
1.4033215376054824,10.089279852320436
1.4584098829439835,9.257993751213116
1.5156607589006013,8.492585444784575
1.575159057091621,7.788164419322068
1.6369930016117014,7.140165209121011
1.7012542798525885,6.544329991754455
1.7680381784572046,5.996687184827452
1.8374437246107238,5.493501539734263
1.9095738328780953,5.031290462540664
1.9845354578058014,4.606832556406582
2.0624397525140905,4.217149280318577
2.143402233514853,3.8594875865062237
2.227542951999554,3.531306757834567
2.314986671851158,3.2302647498455372
2.405863054644063,2.954197374607131
2.5003068519063225,2.7011049315637474
2.598458104929248,2.469140502963153
2.7004623524206774,2.2565988692886534
2.806470846309834,2.0619054268453447
2.916640776023701,1.88360754073841
3.031135501567576,1.7203661629658367
3.150124795755327,1.570947408758377
3.2737850959485697,1.4342147070725215
3.4022997656780634,1.3091212473640519
3.5358593665351745,1.1947031252885791
3.6746619407366854,1.0900735315947545
3.8189133047818515,0.9944168949490577
3.968827354637162,0.9069833977570337
4.1246263829013445,0.8270838816685755
4.286541408420921,0.7540850852037203
4.4548125188449825,0.6874053377169435
4.629689226627261,0.6265105456699548
4.811430839003257,0.5709104452333459
5.000306842491082,0.5201551348474185
5.196597302486189,0.47383181047975054
5.400593278542364,0.4315617998482904
5.612597255954967,0.39299793242139514
5.8329235942862,0.35782201095952754
6.06189899349756,0.3257424694280079
6.29986297838068,0.2964922146196493
6.547168402004727,0.2698266421988828
6.804181968927091,0.24552179091626244
7.071284778942991,0.22337264741070212
7.348872892180382,0.2031915894962873
7.637357916378006,0.18480695081826995
7.937167617217536,0.16806162493663923
8.248746552614573,0.1528118595148708
8.572556731909314,0.13892626188699297
8.909078300934132,0.1262847675947853
9.258810253973934,0.11477768466961612
9.622271173675122,0.10430484624874495
9.999999999999984,0.0947749116998196
