k [1/Mpc],P(k) [Mpc^3]
0.0001,1545.0604185604302
0.00010392556829367125,1596.4267661097665
0.00010800523745162529,1649.4975955841212
0.00011224505680853065,1704.3290091196436
0.00011665131316981963,1760.9789700767083
0.00012123054013376525,1819.50745365712
0.00012598952777950273,1879.9764108054833
0.00013093533273536104,1942.4496343714852
0.00013607528864243335,2006.9928061082485
0.00014141701702890234,2073.673724353357
0.00014696843861124463,2142.5624370141404
0.00015273778503907136,2213.7312644057824
0.00015873361110102093,2287.2547373205734
0.00016496480740980205,2363.209603141363
0.0001714406135851971,2441.675029288523
0.00017817063195457305,2522.7326783104013
0.00018516484179121546,2606.4667878217015
0.000192433614111598,2692.9641779320214
0.00019998772705352857,2782.314231302323
0.0002078383818579757,2874.609073252783
0.00021599721947827182,2969.9433886747092
0.0002244763378413224,3068.414552304604
0.0002332883097864157,3170.122943107052
0.00024244620170823283,3275.172152984001
0.0002519635929317015,3383.6689414006833
0.0002618545958474233,3495.722750156929
0.0002721338768375308,3611.445681142812
0.0002828166780230032,3730.953093757841
0.0002939188398646886,3854.363794103264
0.0003054568246515432,3981.8000590796632
0.00031744774091091926,4113.387256993684
0.00032990936877709396,4249.253610731118
0.00034286018635565856,4389.530777665682
0.00035631939712285854,4534.353535687411
0.000370306958400514,4683.8600311294895
0.00038484361094874304,4838.191901664046
0.0003999509097203664,4997.494076749427
0.00041565125582259895,5161.915091947162
0.00043196792973341727,5331.606390016066
0.0004489251258218605,5506.722451289516
0.0004665479882234472,5687.421192838357
0.000484862648123908,5873.863353515711
0.000503896262506515,6066.213058535446
0.0005236770544204653,6264.637341147539
0.0005442343548300266,6469.305945375391
0.0005655986461065005,6680.391806124129
0.0005878016072274912,6898.070004942729
0.0006108761607505036,7122.518376985453
0.0006348565216305217,7353.917268444261
0.0006597782479539537,7592.448926193424
0.0006856782936641739,7838.298117577409
0.0007125950633568407,8091.650376780028
0.0007405684692262436,8352.692493542143
0.0007696399902471156,8621.612755284985
0.0007998527336796708,8898.599678497108
0.000831251498989063,9183.842929147992
0.0008638828442740447,9477.53126967209
0.000897795155303332,9779.852371374445
0.0009330387172620361,10090.993508303443
0.0009696657893145519,10411.13891038982
0.001007730682094461,10740.471252419906
0.0010472898382363582,11079.168660808537
0.0010884019160690055,11427.402883730798
0.0011311278765939214,11785.342061817237
0.001175531073878369,12153.147681793505
0.0012216773489967915,12530.97555224432
0.0012696351276599736,12918.973157462098
0.0013194755216767058,13317.275477071064
0.0013712724343984,13726.009001986646
0.0014251026703029975,14145.288071630328
0.0014810460488806749,14575.215083445395
0.0015391855229902056,15015.879358647788
0.001599607301861487,15467.350914216304
0.0016624009789266115,15929.684614212561
0.0017276596646690358,16402.914511102124
0.0017954801246878305,16887.052392232727
0.0018659629231817451,17382.090518302582
0.001939212572065829,17887.995673057314
0.0020153376859417325,18404.71158510377
0.002094451143151469,18932.15351903859
0.002176670253153458,19470.203816709465
0.002262116930469025,20018.71707024559
0.002350917875457286,20577.51512601504
0.002443204762186487,21146.38792282128
0.0025391144336803463,21725.09013908479
0.002638789104828933,22313.3346575912
0.002742376573264949,22910.797836188445
0.0028500304385181063,23517.11390905778
0.0029619103297725525,24131.874977618234
0.0030781821425650787,24754.63153607494
0.003199018284775064,25384.886498567146
0.0033245979322709396,26022.098619263328
0.003455107294592217,26665.673458664893
0.0035907398910610534,27314.961170973795
0.0037316968377327513,27969.262608504352
0.0038781871456107214,28627.819502540413
0.0040304280305680515,29289.820766683522
0.00418864523543527,29954.394955974614
0.004353073364731888,30620.60292892515
0.00452395623253805,31287.45220721968
0.004701547224022131,31953.89541641626
0.004886109671160325,32618.832569096896
0.005077917243205399,33281.08055720607
0.005277254352483535,33939.32502825157
0.005484416576121017,34592.19517825779
0.005699711094326071,35238.42447421839
0.005923457145875801,35876.829285938285
0.006155986501483508,36506.0522707619
0.006397643955748424,37124.14265567982
0.0066487878384172625,37728.959537379546
0.0069097905457156435,38318.537810657675
0.007181039092537346,38891.14792852668
0.007462935686310132,39445.05761726037
0.007755898323389004,39978.552750166346
0.00806036140886134,40489.92198800148
0.008376776400682916,40977.293137838176
0.008705612479099857,41438.516553680245
0.009047357242349292,41871.404086093906
0.00940251742967013,42273.69657132927
0.009771619672696168,42643.10724844408
0.010155211276345676,42977.35781685684
0.010553861030365234,43274.161072776245
0.010968160052731372,43531.271777036134
0.011398722666160517,43746.41049995031
0.011846187309026826,43917.295656091504
0.012311217482038896,44041.7056400595
0.012794502732078732,44117.367623273785
0.013296759674662111,44142.10525555631
0.013818733056536317,44113.80104496162
0.014361196859990781,44030.392725107704
0.014924955450518284,43890.00902442633
0.015510844769528393,43690.904899115994
0.016119733573881575,43431.55877864023
0.01675252472408214,43110.68320123668
0.017410156523040152,42727.19585267731
0.018093604107387147,42280.35487942332
0.01880388089340914,41769.795476586216
0.019542040079740527,41195.550443597596
0.02030917620904734,40558.11477048689
0.021106426791015535,39858.544379551466
0.021934973989050584,39098.35687668494
0.02279604637318978,38279.78604629094
0.023690920741826323,37405.72342818079
0.02462092401494623,36479.586044013755
0.02558743520168586,35505.845739678305
0.02659188744512693,34489.397023764526
0.027635770147361564,33435.96686460516
0.028720631177978267,32352.222135703276
0.029848079169243254,31244.92538961021
0.03101978590138095,30122.052330149858
0.03223748878149028,28991.69152427769
0.0335029934197723,27862.05603087821
0.03481817630688963,26742.138006892495
0.03618498759642746,25640.14306976822
0.037605453996581675,24564.547468545774
0.03908168177536263,23523.429145176877
0.04061585988376978,22523.572924916498
0.04221026320156896,21570.713176948033
0.04386725591048496,20669.447721102068
0.0455892949998106,19823.211249156368
0.047378933909631396,19034.45728241986
0.049238826317067365,18304.041081697498
0.05117173007114603,17627.83523736312
0.05318051128214196,17000.513513592647
0.05526814857144601,16413.25188326806
0.057437737488265785,15853.660158414017
0.0596924950997073,15310.647188381685
0.0620357647610427,14774.616124685397
0.06447102107323864,14236.189617646916
0.06700187503509585,13684.288208634962
0.06963207939763882,13108.796355497194
0.0723655342286965,12500.872429478419
0.07520629269592405,11856.841202383488
0.07815856707684081,11179.460729129343
0.08122673500479707,10480.078753425936
0.08441534596012978,9774.787290265818
0.0877291280161335,9081.756245268141
0.09117299484984914,8419.847804621342
0.09475205302806537,7806.686670696669
0.09847160957933764,7257.166441232893
0.1023371798632519,6782.173381272627
0.10635449574860109,6383.70287653719
0.11052951411260206,6054.506763799072
0.1148684256737553,5776.359393662365
0.1193776641714435,5525.265590408487
0.1240639159058831,5276.067966652656
0.12893412965257148,5007.499913904999
0.13399552696593373,4708.043679233001
0.1392556128874462,4380.151585519721
0.14472218707411338,4037.2361571381466
0.15040335536380234,3697.551088511247
0.15630754179458153,3382.71139919685
0.16244350109588662,3114.238336979798
0.16882033167003618,2900.525087157987
0.17544748908334581,2729.7052993536986
0.1823348000868439,2581.553553239495
0.189492477187382,2437.2450886407187
0.19693113379074215,2279.3246112877923
0.20466179993919872,2104.1074088670625
0.21269593866686892,1926.2106566366938
0.22104546299710207,1761.9442186872332
0.22972275360711503,1622.7503844479882
0.23874067718606454,1509.7700050553508
0.2481126055137766,1411.8674970856807
0.25785243528842716,1315.999252191728
0.26797460873256895,1214.7501105979125
0.27849413500806414,1113.6953823244585
0.28942661247167484,1021.3064992925289
0.3007882518043098,942.3111743543993
0.31259590004822796,873.3042590274498
0.324867065587837,807.6445622887398
0.3376199441111335,742.5798458479641
0.35087344559027084,681.0803206812906
0.36464722232127456,626.1513150543723
0.37896169806447155,577.0220936341276
0.3938380983288488,530.9707966110229
0.4092984818452433,487.1724671414341
0.4253657732750382,446.9076006025401
0.44206379720285277,410.43009392135906
0.45941731346364734,376.70909297271567
0.47745205385661277,345.26513373073425
0.4961947603002895,316.390927970977
0.5156732244854959,289.951924156302
0.5359163290848509,265.5383176828592
0.556954090580013,243.04562173881212
0.5788177037701272,222.4154218243923
0.6015395880274836,203.44233319314432
0.6251534353689703,186.0043581502052
0.6496942604146115,170.00295424854477
0.6751984523072497,155.31807710732565
0.7017038286703824,141.84490124604702
0.7292496916841444,129.4974810874027
0.7578768863625915,118.18443189222947
0.7876278611187046,107.82297738910371
0.8185467307069019,98.33666149848763
0.850679341636415,89.65482891338779
0.8840733401525058,81.71221683086172
0.9187782428863317,74.44864017742779
0.9548455102782278,67.80879486498756
0.9923286228832539,61.74164370785284
1.0312831606721837,56.20004704506681
1.0717668854455022,51.14049496701847
1.1138398264826193,46.52285168609387
1.1575643695533022,42.31004037768132
1.2030053494233226,38.467846818834936
1.2502301459914542,34.96481268318707
1.299308784200415,31.77203171418024
1.3503140378698726,28.862954588327923
1.4033215376054824,26.21321309836142
1.4584098829439835,23.80047007557038
1.5156607589006013,21.604235358780944
1.575159057091621,19.605712840023102
1.6369930016117014,17.787668659420998
1.7012542798525885,16.134308516111496
1.7680381784572046,14.631153132063822
1.8374437246107238,13.264934343131687
1.9095738328780953,12.023514972396754
1.9845354578058014,10.8957977103274
2.0624397525140905,9.871639756242518
2.143402233514853,8.94177439173813
2.227542951999554,8.097739771746932
2.314986671851158,7.331810248314706
2.405863054644063,6.636934067281015
2.5003068519063225,6.006676876722632
2.598458104929248,5.435169717072641
2.7004623524206774,4.917060094863873
2.806470846309834,4.44746785034039
2.916640776023701,4.0219468377249905
3.031135501567576,3.636447765887917
3.150124795755327,3.2872839062823713
3.2737850959485697,2.9710995831728573
3.4022997656780634,2.6848409676636233
3.5358593665351745,2.425730098581444
3.6746619407366854,2.1912409302749283
3.8189133047818515,1.979077129041735
3.968827354637162,1.7871517565256356
4.1246263829013445,1.6135685454132371
4.286541408420921,1.4566048451802975
4.4548125188449825,1.3146964336810987
4.629689226627261,1.1864233421467998
4.811430839003257,1.0704968728651332
5.000306842491082,0.9657477365869996
5.196597302486189,0.8711151233060254
5.400593278542364,0.785636961586347
5.612597255954967,0.7084410214641811
5.8329235942862,0.6387367045129355
6.06189899349756,0.5758075639126786
6.29986297838068,0.519004476630537
6.547168402004727,0.46773942761580795
6.804181968927091,0.4214799112380161
7.071284778942991,0.3797437985595059
7.348872892180382,0.3420946618101543
7.637357916378006,0.3081375143673649
7.937167617217536,0.27751484802411436
8.248746552614573,0.24990320117217435
8.572556731909314,0.22501005747226074
8.909078300934132,0.20257093326545705
9.258810253973934,0.18234673237366006
9.622271173675122,0.16412141150279796
9.999999999999984,0.14769989780495651
