k [1/Mpc],P(k) [Mpc^3]
0.0001,220.52978633736785
0.00010392556829367125,228.52257352021493
0.00010800523745162529,236.80479002115672
0.00011224505680853065,245.38686775832508
0.00011665131316981963,254.27960238833896
0.00012123054013376525,263.4941907226716
0.00012598952777950273,273.04225786085806
0.00013093533273536104,282.93584709526306
0.00013607528864243335,293.1874041048928
0.00014141701702890234,303.80980123854016
0.00014696843861124463,314.8163722186734
0.00015273778503907136,326.2209358712422
0.00015873361110102093,338.03780473246337
0.00016496480740980205,350.2817873873907
0.0001714406135851971,362.9682050513084
0.00017817063195457305,376.1129178463083
0.00018516484179121546,389.7323319527499
0.000192433614111598,403.8434270505518
0.00019998772705352857,418.4637855036738
0.0002078383818579757,433.611616734902
0.00021599721947827182,449.305765792931
0.0002244763378413224,465.5656851629491
0.0002332883097864157,482.4114749889786
0.00024244620170823283,499.86393795506575
0.0002519635929317015,517.9446156062164
0.0002618545958474233,536.6757952667392
0.0002721338768375308,556.0804691241794
0.0002828166780230032,576.18235776096
0.0002939188398646886,597.0059887581898
0.0003054568246515432,618.5767415284682
0.00031744774091091926,640.9208601150145
0.00032990936877709396,664.0654094352429
0.00034286018635565856,688.0382632219124
0.00035631939712285854,712.8682061218973
0.000370306958400514,738.5849519933465
0.00038484361094874304,765.2191784556996
0.0003999509097203664,792.802520708615
0.00041565125582259895,821.367533391182
0.00043196792973341727,850.9477891003846
0.0004489251258218605,881.5778493098292
0.0004665479882234472,913.2932957474818
0.000484862648123908,946.1307815756377
0.000503896262506515,980.1279625520967
0.0005236770544204653,1015.3235969127438
0.0005442343548300266,1051.757524859091
0.0005655986461065005,1089.4706569141686
0.0005878016072274912,1128.5050634011513
0.0006108761607505036,1168.9038698708866
0.0006348565216305217,1210.7113425020452
0.0006597782479539537,1253.9728689370495
0.0006856782936641739,1298.7348354580008
0.0007125950633568407,1345.0448075874865
0.0007405684692262436,1392.9514556024997
0.0007696399902471156,1442.5045818155695
0.0007998527336796708,1493.7551285534191
0.000831251498989063,1546.7549241227182
0.0008638828442740447,1601.5568968799498
0.000897795155303332,1658.2149422163566
0.0009330387172620361,1716.7838371989844
0.0009696657893145519,1777.319381272035
0.001007730682094461,1839.8779536081747
0.0010472898382363582,1904.5167225702264
0.0010884019160690055,1971.2936258639133
0.0011311278765939214,2040.2671112057901
0.001175531073878369,2111.4963383131344
0.0012216773489967915,2185.0404231408497
0.0012696351276599736,2260.9585115512386
0.0013194755216767058,2339.3100179600992
0.0013712724343984,2420.1540277107724
0.0014251026703029975,2503.549652495945
0.0014810460488806749,2589.555436382932
0.0015391855229902056,2678.229051370587
0.001599607301861487,2769.6276678177856
0.0016624009789266115,2863.8070243568536
0.0017276596646690358,2960.8217469380406
0.0017954801246878305,3060.724839447135
0.0018659629231817451,3163.5667664800526
0.001939212572065829,3269.3962031363412
0.0020153376859417325,3378.2588759931828
0.002094451143151469,3490.1975917459363
0.002176670253153458,3605.252243828475
0.002262116930469025,3723.458500882916
0.002350917875457286,3844.8484714689835
0.002443204762186487,3969.4495158501322
0.0025391144336803463,4097.283684311149
0.002638789104828933,4228.368217875074
0.002742376573264949,4362.713827859227
0.0028500304385181063,4500.325222013798
0.0029619103297725525,4641.200526949613
0.0030781821425650787,4785.330201826397
0.003199018284775064,4932.697568980416
0.0033245979322709396,5083.276686434329
0.003455107294592217,5237.032491442255
0.0035907398910610534,5393.920940814297
0.0037316968377327513,5553.887403949193
0.0038781871456107214,5716.867357979889
0.0040304280305680515,5882.784263708882
0.00418864523543527,6051.548894345082
0.004353073364731888,6223.059955890055
0.00452395623253805,6397.200220433973
0.004701547224022131,6573.838514758569
0.004886109671160325,6752.829931509643
0.005077917243205399,6934.014934686798
0.005277254352483535,7117.218578664603
0.005484416576121017,7302.237217169135
0.005699711094326071,7488.842985684071
0.005923457145875801,7676.803577873645
0.006155986501483508,7865.906542008303
0.006397643955748424,8055.9293594343035
0.0066487878384172625,8246.558295826151
0.0069097905457156435,8437.38551439364
0.007181039092537346,8627.994860499384
0.007462935686310132,8818.048044376555
0.007755898323389004,9007.222457316155
0.00806036140886134,9195.126053766777
0.008376776400682916,9381.261605375976
0.008705612479099857,9565.110397462222
0.009047357242349292,9746.206714167452
0.00940251742967013,9924.109809623144
0.009771619672696168,10098.337935380205
0.010155211276345676,10268.317044622892
0.010553861030365234,10433.444631287812
0.010968160052731372,10593.086021520832
0.011398722666160517,10746.578195075312
0.011846187309026826,10893.248434395713
0.012311217482038896,11032.41984292212
0.012794502732078732,11163.412903251206
0.013296759674662111,11285.522820455137
0.013818733056536317,11398.011219670037
0.014361196859990781,11500.14074109592
0.014924955450518284,11591.15843777324
0.015510844769528393,11670.314726178281
0.016119733573881575,11736.871033310093
0.01675252472408214,11790.090112458294
0.017410156523040152,11829.26466551107
0.018093604107387147,11853.712514051414
0.01880388089340914,11862.787090592159
0.019542040079740527,11855.897558966592
0.02030917620904734,11832.51498106036
0.021106426791015535,11792.181963831772
0.021934973989050584,11734.539112333325
0.02279604637318978,11659.337231970378
0.023690920741826323,11566.429654500364
0.02462092401494623,11455.841864840944
0.02558743520168586,11327.729331202909
0.02659188744512693,11182.413167590792
0.027635770147361564,11020.458134928776
0.028720631177978267,10842.543900415998
0.029848079169243254,10649.622439510606
0.03101978590138095,10442.844586080919
0.03223748878149028,10223.495208532693
0.0335029934197723,9993.23700357379
0.03481817630688963,9753.790860256684
0.03618498759642746,9507.015507742552
0.037605453996581675,9254.912723872414
0.03908168177536263,8999.47187518837
0.04061585988376978,8743.179228672847
0.04221026320156896,8488.551271607415
0.04386725591048496,8237.385865573538
0.0455892949998106,7990.369150979788
0.047378933909631396,7748.150825790884
0.049238826317067365,7513.164190271411
0.05117173007114603,7288.801930421948
0.05318051128214196,7076.956723376902
0.05526814857144601,6875.50038865738
0.057437737488265785,6681.716670608468
0.0596924950997073,6493.36032737277
0.0620357647610427,6308.5719892825055
0.06447102107323864,6125.355975847439
0.06700187503509585,5941.401014521576
0.06963207939763882,5754.777403339108
0.0723655342286965,5564.097015540597
0.07520629269592405,5367.086734599215
0.07815856707684081,5160.080110633509
0.08122673500479707,4941.31791059377
0.08441534596012978,4711.2373097106865
0.0877291280161335,4472.912452368266
0.09117299484984914,4231.259384267983
0.09475205302806537,3992.630831745651
0.09847160957933764,3762.895714886055
0.1023371798632519,3546.7893426411915
0.10635449574860109,3347.8057824848674
0.11052951411260206,3168.4539997587003
0.1148684256737553,3009.7838544057972
0.1193776641714435,2870.596640414803
0.1240639159058831,2746.5695281990074
0.12893412965257148,2630.608553925717
0.13399552696593373,2515.002573610976
0.1392556128874462,2393.4285756853815
0.14472218707411338,2262.776070400213
0.15040335536380234,2124.1263672589102
0.15630754179458153,1982.4060581866988
0.16244350109588662,1844.2558076845305
0.16882033167003618,1715.7960477775537
0.17544748908334581,1601.911190716175
0.1823348000868439,1505.1824418072472
0.189492477187382,1423.111166418947
0.19693113379074215,1348.3088326178035
0.20466179993919872,1273.6080614172738
0.21269593866686892,1195.3089809577973
0.22104546299710207,1113.1305740543035
0.22972275360711503,1031.282338941589
0.23874067718606454,955.8468515599841
0.2481126055137766,890.0129919443816
0.25785243528842716,833.2510783467985
0.26797460873256895,781.5147347008266
0.27849413500806414,730.5762418370847
0.28942661247167484,678.8827796444197
0.3007882518043098,628.1929188210391
0.31259590004822796,581.9795364178475
0.324867065587837,540.9873010186985
0.3376199441111335,503.7685849275442
0.35087344559027084,468.0503088736049
0.36464722232127456,433.2496943124848
0.37896169806447155,400.5834866018344
0.3938380983288488,370.9274723720168
0.4092984818452433,343.74065499907044
0.4253657732750382,318.03427557959634
0.44206379720285277,293.7480506118824
0.45941731346364734,271.28164880152127
0.47745205385661277,250.61920309922957
0.4961947603002895,231.35088293233594
0.5156732244854959,213.34462859171958
0.5359163290848509,196.69968581322848
0.556954090580013,181.30428439641136
0.5788177037701272,166.99372337433618
0.6015395880274836,153.73951927344953
0.6251534353689703,141.49038985271304
0.6496942604146115,130.14891469591302
0.6751984523072497,119.66042612240156
0.7017038286703824,109.97023947897489
0.7292496916841444,101.02192543241348
0.7578768863625915,92.76507172165056
0.7876278611187046,85.14774325357841
0.8185467307069019,78.12477138315651
0.850679341636415,71.65296953223452
0.8840733401525058,65.69192222814966
0.9187782428863317,60.2038983876015
0.9548455102782278,55.15369983488287
0.9923286228832539,50.508518965110056
1.0312831606721837,46.237829803576325
1.0717668854455022,42.31322918880447
1.1138398264826193,38.70828394008704
1.1575643695533022,35.398412392104326
1.2030053494233226,32.36077162861966
1.2502301459914542,29.57414396027218
1.299308784200415,27.01881063932112
1.3503140378698726,24.676486229996158
1.4033215376054824,22.530237627686166
1.4584098829439835,20.564393352802888
1.5156607589006013,18.76445800172913
1.575159057091621,17.117030960828394
1.6369930016117014,15.609729570166927
1.7012542798525885,14.231120148148884
1.7680381784572046,12.97065135665617
1.8374437246107238,11.81859125252007
1.9095738328780953,10.765968281379873
1.9845354578058014,9.804513673813352
2.0624397525140905,8.926609434202122
2.143402233514853,8.125244690744006
2.227542951999554,7.393970668869095
2.314986671851158,6.726858305671517
2.405863054644063,6.118458689854063
2.5003068519063225,5.56376455905557
2.598458104929248,5.058177146646729
2.7004623524206774,4.5974765315974375
2.806470846309834,4.177792024062643
2.916640776023701,3.7955746399111283
3.031135501567576,3.4475715476027164
3.150124795755327,3.1308020645008536
3.2737850959485697,2.8425362483854943
3.4022997656780634,2.5802749849737445
3.5358593665351745,2.3417312792025724
3.6746619407366854,2.1248129785976726
3.8189133047818515,1.927606711502081
3.968827354637162,1.748362850603069
4.1246263829013445,1.585482493335839
4.286541408420921,1.4375050947986194
4.4548125188449825,1.303096909193464
4.629689226627261,1.181040354156034
4.811430839003257,1.0702241099726102
5.000306842491082,0.9696340283168249
5.196597302486189,0.8783451859529638
5.400593278542364,0.7955143117257898
5.612597255954967,0.7203727882473494
5.8329235942862,0.652220231701744
6.06189899349756,0.5904185993223925
6.29986297838068,0.5343867932441114
6.547168402004727,0.4835957229133611
6.804181968927091,0.4375637742731608
7.071284778942991,0.395852660329997
7.348872892180382,0.35806360897936557
7.637357916378006,0.3238337205233027
7.937167617217536,0.29283291528038996
8.248746552614573,0.2647611833125197
8.572556731909314,0.23934590437806214
8.909078300934132,0.21633939742824493
9.258810253973934,0.1955167231631366
9.622271173675122,0.17667383500268719
9.999999999999984,0.15962547586081718
