k [1/Mpc],P(k) [Mpc^3]
0.0001,125.16031934616865
0.00010392556829367125,130.44658173317455
0.00010800523745162529,135.9558492880811
0.00011224505680853065,141.69749795139813
0.00011665131316981963,147.68129484733967
0.00012123054013376525,153.91741155544247
0.00012598952777950273,160.41644291237967
0.00013093533273536104,167.18941981308373
0.00013607528864243335,174.24782447302317
0.00014141701702890234,181.6036159334428
0.00014696843861124463,189.26925494473372
0.00015273778503907136,197.25772201900406
0.00015873361110102093,205.58252565984756
0.00016496480740980205,214.25771049639306
0.0001714406135851971,223.29789654800442
0.00017817063195457305,232.71830696553005
0.00018516484179121546,242.53479188471127
0.000192433614111598,252.76384685280922
0.00019998772705352857,263.4226251264355
0.0002078383818579757,274.5289754706155
0.00021599721947827182,286.1014565009091
0.0002244763378413224,298.1593613855571
0.0002332883097864157,310.72276080383716
0.00024244620170823283,323.8125293637155
0.0002519635929317015,337.4503792245286
0.0002618545958474233,351.6588639882389
0.0002721338768375308,366.46138756991127
0.0002828166780230032,381.88227306861836
0.0002939188398646886,397.94678022040284
0.0003054568246515432,414.6811476830308
0.00031744774091091926,432.1126241031481
0.00032990936877709396,450.26947814062095
0.00034286018635565856,469.18106042861183
0.00035631939712285854,488.8777868614
0.000370306958400514,509.3911779064743
0.00038484361094874304,530.7539269565201
0.0003999509097203664,552.9998916861986
0.00041565125582259895,576.1641692466605
0.00043196792973341727,600.2830885838343
0.0004489251258218605,625.3942229177
0.0004665479882234472,651.5364793279974
0.000484862648123908,678.7500515441815
0.000503896262506515,707.0765045622401
0.0005236770544204653,736.558801206197
0.0005442343548300266,767.241282707554
0.0005655986461065005,799.169769485417
0.0005878016072274912,832.3914693242144
0.0006108761607505036,866.9550418829117
0.0006348565216305217,902.910660632353
0.0006597782479539537,940.3099168318449
0.0006856782936641739,979.2059594544937
0.0007125950633568407,1019.6534015393343
0.0007405684692262436,1061.7083193909548
0.0007696399902471156,1105.4283575233696
0.0007998527336796708,1150.8725469599297
0.000831251498989063,1198.1014467421314
0.0008638828442740447,1247.1769846195725
0.000897795155303332,1298.1622893734736
0.0009330387172620361,1351.121934078552
0.0009696657893145519,1406.1216040347763
0.001007730682094461,1463.2282104304322
0.0010472898382363582,1522.5097688816747
0.0010884019160690055,1584.0349384597826
0.0011311278765939214,1647.873398861044
0.001175531073878369,1714.0952819972943
0.0012216773489967915,1782.771134589613
0.0012696351276599736,1853.9720784624747
0.0013194755216767058,1927.7691848040542
0.0013712724343984,2004.2337626937788
0.0014251026703029975,2083.4367350638913
0.0014810460488806749,2165.4482476099424
0.0015391855229902056,2250.3380095119965
0.001599607301861487,2338.1743443934874
0.0016624009789266115,2429.0244114558714
0.0017276596646690358,2522.9536761970026
0.0017954801246878305,2620.0250084309146
0.0018659629231817451,2720.299232284512
0.001939212572065829,2823.834047897412
0.0020153376859417325,2930.6839506699034
0.002094451143151469,3040.90002105678
0.002176670253153458,3154.5287103424325
0.002262116930469025,3271.6122394101244
0.002350917875457286,3392.187342531354
0.002443204762186487,3516.284735390674
0.0025391144336803463,3643.929219994275
0.002638789104828933,3775.1378969629595
0.002742376573264949,3909.9205948420663
0.0028500304385181063,4048.27872251996
0.0029619103297725525,4190.204071098548
0.0030781821425650787,4335.679386086179
0.003199018284775064,4484.67649345946
0.0033245979322709396,4637.156364268975
0.003455107294592217,4793.068111532306
0.0035907398910610534,4952.34679427196
0.0037316968377327513,5114.914615021765
0.0038781871456107214,5280.678278149658
0.0040304280305680515,5449.52874106992
0.00418864523543527,5621.341007538838
0.004353073364731888,5795.969866771134
0.00452395623253805,5973.252542073133
0.004701547224022131,6153.007030185896
0.004886109671160325,6335.031045846981
0.005077917243205399,6519.1007039178885
0.005277254352483535,6704.953967718375
0.005484416576121017,6892.300434047971
0.005699711094326071,7080.8444291886635
0.005923457145875801,7270.300242335758
0.006155986501483508,7460.357876828802
0.006397643955748424,7650.58499156982
0.0066487878384172625,7840.459453839429
0.0069097905457156435,8029.4478595665105
0.007181039092537346,8217.050879262892
0.007462935686310132,8402.756929125244
0.007755898323389004,8586.03254551604
0.00806036140886134,8766.323864465778
0.008376776400682916,8943.039297448668
0.008705612479099857,9115.480214872448
0.009047357242349292,9282.900066880782
0.00940251742967013,9444.50960603874
0.009771619672696168,9599.470533902324
0.010155211276345676,9746.919850728409
0.010553861030365234,9885.933298165404
0.010968160052731372,10015.555530119771
0.011398722666160517,10134.799888217913
0.011846187309026826,10242.621650568304
0.012311217482038896,10337.971543080292
0.012794502732078732,10419.731325800625
0.013296759674662111,10486.748156940863
0.013818733056536317,10537.87314717965
0.014361196859990781,10571.89342078031
0.014924955450518284,10587.63518816862
0.015510844769528393,10583.916698558587
0.016119733573881575,10559.560532358582
0.01675252472408214,10513.482053213158
0.017410156523040152,10444.583836740774
0.018093604107387147,10351.889944615994
0.01880388089340914,10234.541546247665
0.019542040079740527,10091.769822897862
0.02030917620904734,9923.04833990621
0.021106426791015535,9727.998347289062
0.021934973989050584,9506.496327466375
0.02279604637318978,9258.73775775
0.023690920741826323,8985.186564557082
0.02462092401494623,8686.70541216192
0.02558743520168586,8364.556378855425
0.02659188744512693,8020.40703648745
0.027635770147361564,7656.375687043155
0.028720631177978267,7275.098310940285
0.029848079169243254,6879.569804509006
0.03101978590138095,6473.292097906395
0.03223748878149028,6060.203903155601
0.0335029934197723,5644.356460037009
0.03481817630688963,5230.424102880887
0.03618498759642746,4822.943574191253
0.037605453996581675,4426.433832546459
0.03908168177536263,4045.664056130225
0.04061585988376978,3684.485251918543
0.04221026320156896,3347.078507975495
0.04386725591048496,3036.9518806750607
0.0455892949998106,2756.3525371968403
0.047378933909631396,2507.197319568145
0.049238826317067365,2290.277564256147
0.05117173007114603,2106.7045947080737
0.05318051128214196,1957.5729423395774
0.05526814857144601,1841.7841206821213
0.057437737488265785,1756.2451640834295
0.0596924950997073,1698.286416712627
0.0620357647610427,1665.4988007410536
0.06447102107323864,1655.196655424138
0.06700187503509585,1663.5633685185346
0.06963207939763882,1685.4738717941761
0.0723655342286965,1714.0774088773628
0.07520629269592405,1740.6190930826917
0.07815856707684081,1755.2319005162792
0.08122673500479707,1748.0498991439415
0.08441534596012978,1711.3587168381098
0.0877291280161335,1640.3108139251203
0.09117299484984914,1533.9177756251145
0.09475205302806537,1396.3087983098044
0.09847160957933764,1236.1692996920312
0.1023371798632519,1065.9073828674889
0.10635449574860109,900.0481143080649
0.11052951411260206,752.6174632935214
0.1148684256737553,633.8083926373589
0.1193776641714435,548.71762801115
0.1240639159058831,497.95353602634964
0.12893412965257148,478.91962038233703
0.13399552696593373,486.6438040949089
0.1392556128874462,513.3830757027603
0.14472218707411338,547.5081408337307
0.15040335536380234,573.3987665975122
0.15630754179458153,574.7435529902631
0.16244350109588662,541.6346106137089
0.16882033167003618,477.1228108479261
0.17544748908334581,396.3441772382358
0.1823348000868439,318.6689730862351
0.189492477187382,259.92034589275954
0.19693113379074215,228.0014294977086
0.20466179993919872,222.16934163430722
0.21269593866686892,234.95737139593686
0.22104546299710207,253.0486280190669
0.22972275360711503,259.2727260381273
0.23874067718606454,242.01831206807432
0.2481126055137766,204.93703330270677
0.25785243528842716,164.57193365411948
0.26797460873256895,136.97895307002534
0.27849413500806414,127.7730529536652
0.28942661247167484,132.44762072012057
0.3007882518043098,138.60572921277333
0.31259590004822796,133.13674428978265
0.324867065587837,114.60569128939552
0.3376199441111335,94.36480163760326
0.35087344559027084,83.44318882555832
0.36464722232127456,82.56300953868544
0.37896169806447155,83.5857054841228
0.3938380983288488,77.75762045034362
0.4092984818452433,66.50552469532711
0.4253657732750382,58.14232409660453
0.44206379720285277,55.77086482692933
0.45941731346364734,54.49614413505779
0.47745205385661277,49.468331012812925
0.4961947603002895,43.26111112361495
0.5156732244854959,40.018916104828214
0.5359163290848509,38.302663816672
0.556954090580013,34.95859391995835
0.5788177037701272,31.244001862286147
0.6015395880274836,29.10208179831433
0.6251534353689703,27.11321151377393
0.6496942604146115,24.51575833173819
0.6751984523072497,22.317702026712496
0.7017038286703824,20.424823075421486
0.7292496916841444,18.76121530745988
0.7578768863625915,17.27165874735252
0.7876278611187046,15.913075656981059
0.8185467307069019,14.65202953324443
0.850679341636415,13.46662100520413
0.8840733401525058,12.355509502075376
0.9187782428863317,11.320822490028592
0.9548455102782278,10.362982008634857
0.9923286228832539,9.48102060901639
1.0312831606721837,8.672861122856094
1.0717668854455022,7.934323187132955
1.1138398264826193,7.258977738798145
1.1575643695533022,6.640855405326894
1.2030053494233226,6.0746388534955145
1.2502301459914542,5.555583515106548
1.299308784200415,5.079468118501081
1.3503140378698726,4.64277230711789
1.4033215376054824,4.242455030240775
1.4584098829439835,3.875684637257286
1.5156607589006013,3.5398229714620775
1.575159057091621,3.2324155622524873
1.6369930016117014,2.951171200912482
1.7012542798525885,2.6939177843232325
1.7680381784572046,2.4586440972554713
1.8374437246107238,2.2435051429317254
1.9095738328780953,2.046808551924384
1.9845354578058014,1.8670021244990627
2.0624397525140905,1.7026661883979337
2.143402233514853,1.5525047492319812
2.227542951999554,1.4153274494451222
2.314986671851158,1.29004045447889
2.405863054644063,1.1756389824589373
2.5003068519063225,1.0712003070883802
2.598458104929248,0.9758763610170408
2.7004623524206774,0.8888884166443135
2.806470846309834,0.809522571508085
2.916640776023701,0.7371245449983707
3.031135501567576,0.6710948487599332
3.150124795755327,0.6108843296656721
3.2737850959485697,0.5559900502553741
3.4022997656780634,0.505951528887457
3.5358593665351745,0.46034726372609536
3.6746619407366854,0.41879152345586396
3.8189133047818515,0.3809313932719051
3.968827354637162,0.3464440396165644
4.1246263829013445,0.31503419962567347
4.286541408420921,0.2864319231460171
4.4548125188449825,0.2603904607855647
4.629689226627261,0.23668431798746023
4.811430839003257,0.21510746547767978
5.000306842491082,0.19547166318856618
5.196597302486189,0.17760497323900687
5.400593278542364,0.16135041517575757
5.612597255954967,0.14656469314128331
5.8329235942862,0.13311702741855982
6.06189899349756,0.12088808850640531
6.29986297838068,0.10976903747591443
6.547168402004727,0.09966059733410704
6.804181968927091,0.0904722181698534
7.071284778942991,0.0821213257410362
7.348872892180382,0.07453263309466661
7.637357916378006,0.06763748691383509
7.937167617217536,0.061373272081205854
8.248746552614573,0.055682943950687916
8.572556731909314,0.05051454810454556
8.909078300934132,0.04582077266706299
9.258810253973934,0.04155854126181323
9.622271173675122,0.03768867638200461
9.999999999999984,0.034175540082548084
