k [1/Mpc],P(k) [Mpc^3]
0.0001,992.711710715071
0.00010392556829367125,1025.7247009692312
0.00010800523745162529,1059.8343962870356
0.00011224505680853065,1095.0770156644842
0.00011665131316981963,1131.4899209241735
0.00012123054013376525,1169.1117629657665
0.00012598952777950273,1207.9825798305721
0.00013093533273536104,1248.143728659863
0.00013607528864243335,1289.6377935169655
0.00014141701702890234,1332.5086704508612
0.00014696843861124463,1376.801696487324
0.00015273778503907136,1422.563728347693
0.00015873361110102093,1469.8431538460657
0.00016496480740980205,1518.6898756998994
0.0001714406135851971,1569.1553569791836
0.00017817063195457305,1621.2927073480798
0.00018516484179121546,1675.1566853901816
0.000192433614111598,1730.803787620525
0.00019998772705352857,1788.2923431740894
0.0002078383818579757,1847.6825861163197
0.00021599721947827182,1909.0366590802876
0.0002244763378413224,1972.4184608506118
0.0002332883097864157,2037.8937853134591
0.00024244620170823283,2105.530519497609
0.0002519635929317015,2175.398759965666
0.0002618545958474233,2247.570803760064
0.0002721338768375308,2322.1209394449415
0.0002828166780230032,2399.125509802335
0.0002939188398646886,2478.663201807999
0.0003054568246515432,2560.815191488779
0.00031744774091091926,2645.6651537098724
0.00032990936877709396,2733.299038658732
0.00034286018635565856,2823.804981934216
0.00035631939712285854,2917.2736830323556
0.000370306958400514,3013.798435014034
0.00038484361094874304,3113.4752194228686
0.0003999509097203664,3216.4026339445495
0.00041565125582259895,3322.68169164778
0.00043196792973341727,3432.4161745572133
0.0004489251258218605,3545.7124675498053
0.0004665479882234472,3662.679637193157
0.000484862648123908,3783.42958802777
0.000503896262506515,3908.076737203587
0.0005236770544204653,4036.7383651409036
0.0005442343548300266,4169.53448246506
0.0005655986461065005,4306.587733883201
0.0005878016072274912,4448.0237019003325
0.0006108761607505036,4593.9704422396
0.0006348565216305217,4744.558771339429
0.0006597782479539537,4899.922139916409
0.0006856782936641739,5060.196104420023
0.0007125950633568407,5225.518986046291
0.0007405684692262436,5396.031529858892
0.0007696399902471156,5571.876962483361
0.0007998527336796708,5753.2009740855965
0.000831251498989063,5940.1506940465015
0.0008638828442740447,6132.87547649903
0.000897795155303332,6331.526346751734
0.0009330387172620361,6536.255638375954
0.0009696657893145519,6747.217494476216
0.001007730682094461,6964.566151866694
0.0010472898382363582,7188.456715972093
0.0010884019160690055,7419.045059215201
0.0011311278765939214,7656.486822261653
0.001175531073878369,7900.938158573706
0.0012216773489967915,8152.552892579104
0.0012696351276599736,8411.482812617269
0.0013194755216767058,8677.878571019477
0.0013712724343984,8951.887475508658
0.0014251026703029975,9233.654833928624
0.0014810460488806749,9523.321784553009
0.0015391855229902056,9821.024225813218
0.001599607301861487,10126.894232593751
0.0016624009789266115,10441.056707096448
0.0017276596646690358,10763.630629086778
0.0017954801246878305,11094.72728239188
0.0018659629231817451,11434.44703863951
0.001939212572065829,11782.882205464228
0.0020153376859417325,12140.112967197378
0.002094451143151469,12506.207652431845
0.002176670253153458,12881.222919739892
0.002262116930469025,13265.199245563108
0.002350917875457286,13658.163511836608
0.002443204762186487,14060.124987613066
0.0025391144336803463,14471.07359470767
0.002638789104828933,14890.98194696142
0.002742376573264949,15319.799556947248
0.0028500304385181063,15757.455011258759
0.0029619103297725525,16203.854257653822
0.0030781821425650787,16658.877153415062
0.003199018284775064,17122.379688999554
0.0033245979322709396,17594.186976253346
0.003455107294592217,18074.094198787407
0.0035907398910610534,18561.867538738563
0.0037316968377327513,19057.23909576221
0.0038781871456107214,19559.909774181604
0.0040304280305680515,20069.54250659878
0.00418864523543527,20585.760540807063
0.004353073364731888,21108.150142392344
0.00452395623253805,21636.248079694542
0.004701547224022131,22169.54907647249
0.004886109671160325,22707.507165082854
0.005077917243205399,23249.533314386284
0.005277254352483535,23794.993483576953
0.005484416576121017,24343.165011095927
0.005699711094326071,24893.25284368535
0.005923457145875801,25444.456187401065
0.006155986501483508,25996.04895295687
0.006397643955748424,26547.280141977106
0.0066487878384172625,27097.107621936022
0.0069097905457156435,27644.192927756183
0.007181039092537346,28187.18587465765
0.007462935686310132,28725.005580876623
0.007755898323389004,29256.634716326447
0.00806036140886134,29780.84300016103
0.008376776400682916,30296.07491797145
0.008705612479099857,30800.72402674142
0.009047357242349292,31293.372978958094
0.00940251742967013,31772.701195512258
0.009771619672696168,32237.27298414866
0.010155211276345676,32685.376030636704
0.010553861030365234,33115.22813178891
0.010968160052731372,33524.966612123135
0.011398722666160517,33912.66169520785
0.011846187309026826,34276.376310923646
0.012311217482038896,34614.183679432754
0.012794502732078732,34924.1722036549
0.013296759674662111,35204.37474030682
0.013818733056536317,35452.74374174501
0.014361196859990781,35667.25988051026
0.014924955450518284,35845.88047703651
0.015510844769528393,35986.59844788478
0.016119733573881575,36087.465482958105
0.01675252472408214,36146.56168317703
0.017410156523040152,36162.082820317555
0.018093604107387147,36132.324118970464
0.01880388089340914,36055.710869614006
0.019542040079740527,35930.85768294092
0.02030917620904734,35756.58453714503
0.021106426791015535,35531.94301147073
0.021934973989050584,35256.292534406464
0.02279604637318978,34929.33259155772
0.023690920741826323,34551.074964280255
0.02462092401494623,34122.04665259102
0.02558743520168586,33643.1572141568
0.02659188744512693,33115.79882855482
0.027635770147361564,32542.06960308874
0.028720631177978267,31924.3842315472
0.029848079169243254,31265.931378947225
0.03101978590138095,30570.44731502111
0.03223748878149028,29842.018545597104
0.0335029934197723,29085.78603523337
0.03481817630688963,28307.00204009335
0.03618498759642746,27511.258567423025
0.037605453996581675,26704.497076036885
0.03908168177536263,25892.55570148415
0.04061585988376978,25082.63138116744
0.04221026320156896,24281.92481809652
0.04386725591048496,23495.503895447106
0.0455892949998106,22725.215836203726
0.047378933909631396,21972.78257217103
0.049238826317067365,21244.94892807243
0.05117173007114603,20551.086138830622
0.05318051128214196,19896.239045084585
0.05526814857144601,19274.12098163699
0.057437737488265785,18676.87211709226
0.0596924950997073,18098.0345006242
0.0620357647610427,17532.2958760126
0.06447102107323864,16974.026667923634
0.06700187503509585,16416.789619571795
0.06963207939763882,15855.272690795262
0.0723655342286965,15285.712933314613
0.07520629269592405,14701.966832405065
0.07815856707684081,14094.156463957906
0.08122673500479707,13457.712922772993
0.08441534596012978,12794.085943339673
0.0877291280161335,12111.85046663156
0.09117299484984914,11424.457098308085
0.09475205302806537,10749.070156587119
0.09847160957933764,10101.35753478765
0.1023371798632519,9493.771504140961
0.10635449574860109,8935.30650676321
0.11052951411260206,8432.22963582676
0.1148684256737553,7986.861371729874
0.1193776641714435,7595.543056121841
0.1240639159058831,7246.412867995951
0.12893412965257148,6920.45301516189
0.13399552696593373,6597.244043468212
0.1392556128874462,6260.231696801082
0.14472218707411338,5901.430976519683
0.15040335536380234,5523.850600636906
0.15630754179458153,5140.436630568011
0.16244350109588662,4768.418592030561
0.16882033167003618,4423.486389949308
0.17544748908334581,4117.971029516058
0.1823348000868439,3858.1562733705578
0.189492477187382,3637.268125861563
0.19693113379074215,3436.1466401377434
0.20466179993919872,3236.4129372971074
0.21269593866686892,3028.685171469819
0.22104546299710207,2812.3274095814027
0.22972275360711503,2598.024054696554
0.23874067718606454,2401.041800120911
0.2481126055137766,2229.223294110993
0.25785243528842716,2081.0328223112397
0.26797460873256895,1946.1935803386662
0.27849413500806414,1814.0958482176222
0.28942661247167484,1680.8745300183455
0.3007882518043098,1550.8841582290856
0.31259590004822796,1432.649184379632
0.324867065587837,1327.8989660629188
0.3376199441111335,1232.9766804629533
0.35087344559027084,1142.2525519450226
0.36464722232127456,1054.2744585553994
0.37896169806447155,971.9731809351271
0.3938380983288488,897.4206510877056
0.4092984818452433,829.2467509557117
0.4253657732750382,765.0197120415137
0.44206379720285277,704.562477393698
0.45941731346364734,648.799868161282
0.47745205385661277,597.6549223088126
0.4961947603002895,550.1145562363678
0.5156732244854959,505.8357359499501
0.5359163290848509,465.0260482739115
0.556954090580013,427.39309424443576
0.5788177037701272,392.52326357333436
0.6015395880274836,360.3268218437171
0.6251534353689703,330.6616549221246
0.6496942604146115,303.27964432651913
0.6751984523072497,278.03474764925255
0.7017038286703824,254.782456629847
0.7292496916841444,233.37579537876945
0.7578768863625915,213.68324657501063
0.7876278611187046,195.57122233421293
0.8185467307069019,178.92308885861522
0.850679341636415,163.6280069915967
0.8840733401525058,149.58265466121279
0.9187782428863317,136.6909304815776
0.9548455102782278,124.86351497241805
0.9923286228832539,114.0174591618044
1.0312831606721837,104.07585467650938
1.0717668854455022,94.96739684566302
1.1138398264826193,86.62596804166549
1.1575643695533022,78.99030425601791
1.2030053494233226,72.00367951099031
1.2502301459914542,65.61359348003131
1.299308784200415,59.77143574094599
1.3503140378698726,54.432289133949745
1.4033215376054824,49.55470229685611
1.4584098829439835,45.10044436898924
1.5156607589006013,41.034274805476656
1.575159057091621,37.323726087520534
1.6369930016117014,33.93889951174277
1.7012542798525885,30.852281225412717
1.7680381784572046,28.038566198865652
1.8374437246107238,25.474492905816124
1.9095738328780953,23.13868907455156
1.9845354578058014,21.011522870029165
2.0624397525140905,19.074968376987886
2.143402233514853,17.312491018521662
2.227542951999554,15.708931841363702
2.314986671851158,14.250399220508436
2.405863054644063,12.9241682421216
2.5003068519063225,11.718583903448232
2.598458104929248,10.622977083275192
2.7004623524206774,9.627589174576666
2.806470846309834,8.723497978239541
2.916640776023701,7.9025491196756175
3.031135501567576,7.157292646984021
3.150124795755327,6.480923841915619
3.2737850959485697,5.867230327594474
3.4022997656780634,5.310543093373392
3.5358593665351745,4.805690766720245
3.6746619407366854,4.347957541877047
3.8189133047818515,3.9330442557971277
3.968827354637162,3.5570321691111753
4.1246263829013445,3.216351415488247
4.286541408420921,2.9077512713366844
4.4548125188449825,2.6282725289723925
4.629689226627261,2.3752221657016075
4.811430839003257,2.1461498900331595
5.000306842491082,1.9388266805463645
5.196597302486189,1.7512259498772518
5.400593278542364,1.5815057502607903
5.612597255954967,1.4279924019690788
5.8329235942862,1.289165525627829
6.06189899349756,1.1636443533594836
6.29986297838068,1.0501752339096424
6.547168402004727,0.9476202358181554
6.804181968927091,0.8549467273596485
7.071284778942991,0.7712178659522354
7.348872892180382,0.6955838946863183
7.637357916378006,0.6272739066755124
7.937167617217536,0.5655888812060933
8.248746552614573,0.5098954127764087
8.572556731909314,0.45961967488893607
8.909078300934132,0.4142419199492324
9.258810253973934,0.37329155034951067
9.622271173675122,0.3363429316519916
9.999999999999984,0.30301078979405055
