k [1/Mpc],P(k) [Mpc^3]
0.0001,378.5334988698473
0.00010392556829367125,395.6525437417111
0.00010800523745162529,413.5441604385435
0.00011224505680853065,432.2430014873861
0.00011665131316981963,451.78530030470455
0.00012123054013376525,472.20889361838687
0.00012598952777950273,493.5532098764797
0.00013093533273536104,515.8593781795373
0.00013607528864243335,539.1703513799571
0.00014141701702890234,563.5310035427736
0.00014696843861124463,588.9881824850814
0.00015273778503907136,615.5907234887319
0.00015873361110102093,643.3895475814548
0.00016496480740980205,672.4377830152962
0.0001714406135851971,702.7908352745161
0.00017817063195457305,734.5065015604141
0.00018516484179121546,767.6450168175186
0.000192433614111598,802.2691425396799
0.00019998772705352857,838.4443106135095
0.0002078383818579757,876.2386678382934
0.00021599721947827182,915.7232266119349
0.0002244763378413224,956.9719317011554
0.0002332883097864157,1000.0617188832218
0.00024244620170823283,1045.072712826152
0.0002519635929317015,1092.0882447511801
0.0002618545958474233,1141.1950152609397
0.0002721338768375308,1192.4831974563435
0.0002828166780230032,1246.0464161001823
0.0002939188398646886,1301.9820239717405
0.0003054568246515432,1360.3911384002158
0.00031744774091091926,1421.3787741415788
0.00032990936877709396,1485.0539876435607
0.00034286018635565856,1551.5297107843442
0.00035631939712285854,1620.923099176509
0.000370306958400514,1693.3555189027036
0.00038484361094874304,1768.952560068367
0.0003999509097203664,1847.8443845863967
0.00041565125582259895,1930.1656547592263
0.00043196792973341727,2016.0557602338872
0.0004489251258218605,2105.6587217152005
0.0004665479882234472,2199.1229108603297
0.000484862648123908,2296.601615030914
0.000503896262506515,2398.2529125871815
0.0005236770544204653,2504.2398180905097
0.0005442343548300266,2614.7303016690125
0.0005655986461065005,2729.8967141437356
0.0005878016072274912,2849.9163925813486
0.0006108761607505036,2974.9715317434934
0.0006348565216305217,3105.2491407062716
0.0006597782479539537,3240.9411437129875
0.0006856782936641739,3382.2433082011084
0.0007125950633568407,3529.355856769424
0.0007405684692262436,3682.483161518359
0.0007696399902471156,3841.8331266337163
0.0007998527336796708,4007.6177445173953
0.000831251498989063,4180.051507588626
0.0008638828442740447,4359.351724000537
0.000897795155303332,4545.738321702704
0.0009330387172620361,4739.432155899492
0.0009696657893145519,4940.656024686314
0.001007730682094461,5149.632309561552
0.0010472898382363582,5366.582496336206
0.0010884019160690055,5591.727829497884
0.0011311278765939214,5825.286664900793
0.001175531073878369,6067.4753661918785
0.0012216773489967915,6318.505817259392
0.0012696351276599736,6578.583408515615
0.0013194755216767058,6847.9088762902475
0.0013712724343984,7126.677554463635
0.0014251026703029975,7415.078461732388
0.0014810460488806749,7713.289489898773
0.0015391855229902056,8021.471355079021
0.001599607301861487,8339.772353538854
0.0016624009789266115,8668.327400827791
0.0017276596646690358,9007.256776396756
0.0017954801246878305,9356.664069297258
0.0018659629231817451,9716.632094421922
0.001939212572065829,10087.223504582644
0.0020153376859417325,10468.477026539624
0.002094451143151469,10860.40512782521
0.002176670253153458,11262.994503075135
0.002262116930469025,11676.202484717796
0.002350917875457286,12099.956445435186
0.002443204762186487,12534.149966125295
0.0025391144336803463,12978.638695116997
0.002638789104828933,13433.24184174268
0.002742376573264949,13897.737306307468
0.0028500304385181063,14371.861075517616
0.0029619103297725525,14855.305813034667
0.0030781821425650787,15347.716367449651
0.003199018284775064,15848.690880161823
0.0033245979322709396,16357.774888956124
0.003455107294592217,16874.45992731289
0.0035907398910610534,17398.1846244317
0.0037316968377327513,17928.328071984684
0.0038781871456107214,18464.213113843347
0.0040304280305680515,19005.102753990726
0.00418864523543527,19550.197436439954
0.004353073364731888,20098.629318853564
0.00452395623253805,20649.392369845224
0.004701547224022131,21201.37885834446
0.004886109671160325,21753.508516257145
0.005077917243205399,22304.849903715574
0.005277254352483535,22854.424038566864
0.005484416576121017,23400.7192532186
0.005699711094326071,23941.792563553623
0.005923457145875801,24475.70728954238
0.006155986501483508,25000.851421086623
0.006397643955748424,25515.652091968903
0.0066487878384172625,26018.507854437106
0.0069097905457156435,26507.796378858773
0.007181039092537346,26981.81269177867
0.007462935686310132,27438.492577317564
0.007755898323389004,27875.617512001256
0.00806036140886134,28290.885761976693
0.008376776400682916,28681.88586881522
0.008705612479099857,29046.174445921122
0.009047357242349292,29381.178169455412
0.00940251742967013,29684.26640827056
0.009771619672696168,29952.820229235764
0.010155211276345676,30184.212618279053
0.010553861030365234,30375.87070149697
0.010968160052731372,30524.99747907305
0.011398722666160517,30628.637915703985
0.011846187309026826,30683.944704300993
0.012311217482038896,30688.065579940387
0.012794502732078732,30638.33143566866
0.013296759674662111,30532.116463753016
0.013818733056536317,30366.803898947994
0.014361196859990781,30140.10462308678
0.014924955450518284,29849.826771061456
0.015510844769528393,29494.144971813974
0.016119733573881575,29071.647418969398
0.01675252472408214,28581.210835643917
0.017410156523040152,28022.379898549323
0.018093604107387147,27395.214000084863
0.01880388089340914,26700.442347784938
0.019542040079740527,25939.663442044144
0.02030917620904734,25115.28050532358
0.021106426791015535,24230.637939439937
0.021934973989050584,23290.1979998564
0.02279604637318978,22299.48349856236
0.023690920741826323,21264.958065768576
0.02462092401494623,20194.5194821882
0.02558743520168586,19096.73058915258
0.02659188744512693,17981.28419081146
0.027635770147361564,16859.178331919215
0.028720631177978267,15741.076620445714
0.029848079169243254,14638.934905030843
0.03101978590138095,13564.191822502553
0.03223748878149028,12527.919310267967
0.0335029934197723,11542.87939037327
0.03481817630688963,10618.96275008912
0.03618498759642746,9765.239703624025
0.037605453996581675,8989.192047283532
0.03908168177536263,8295.23593313863
0.04061585988376978,7686.975046211275
0.04221026320156896,7166.076515980711
0.04386725591048496,6732.829770409656
0.0455892949998106,6387.18161159231
0.047378933909631396,6128.08924785005
0.049238826317067365,5948.856211200777
0.05117173007114603,5842.623392494718
0.05318051128214196,5798.1814261647205
0.05526814857144601,5801.694158075348
0.057437737488265785,5838.022898710396
0.0596924950997073,5889.728613060459
0.0620357647610427,5932.821346368523
0.06447102107323864,5938.639961179314
0.06700187503509585,5880.039149602138
0.06963207939763882,5735.099977957543
0.0723655342286965,5492.47927131911
0.07520629269592405,5152.65204388551
0.07815856707684081,4728.279258832324
0.08122673500479707,4242.814939605427
0.08441534596012978,3724.369877419433
0.0877291280161335,3212.0136454263097
0.09117299484984914,2750.487795316916
0.09475205302806537,2372.1295783097767
0.09847160957933764,2092.8158742060846
0.1023371798632519,1915.3745921060518
0.10635449574860109,1832.7880041306041
0.11052951411260206,1829.9735555625646
0.1148684256737553,1882.221177628621
0.1193776641714435,1954.7410679217312
0.1240639159058831,2006.504787758492
0.12893412965257148,1996.0948194102832
0.13399552696593373,1893.2803172646804
0.1392556128874462,1700.7388897178485
0.14472218707411338,1458.764821837838
0.15040335536380234,1220.7007343819168
0.15630754179458153,1029.2985705481271
0.16244350109588662,909.73750520554
0.16882033167003618,866.1178581180826
0.17544748908334581,877.8555031521803
0.1823348000868439,908.0168912227235
0.189492477187382,915.1477945824965
0.19693113379074215,866.92296183705
0.20466179993919872,766.487772118017
0.21269593866686892,648.966299097739
0.22104546299710207,556.4542642323051
0.22972275360711503,509.6762773199072
0.23874067718606454,500.39022766743994
0.2481126055137766,502.3925003078713
0.25785243528842716,484.1088405963412
0.26797460873256895,436.6691439698
0.27849413500806414,379.30840909952224
0.28942661247167484,337.9067444125223
0.3007882518043098,319.5805677950424
0.31259590004822796,310.54553042472793
0.324867065587837,292.58563492343046
0.3376199441111335,263.01096310424396
0.35087344559027084,235.39516808878722
0.36464722232127456,218.62943528455446
0.37896169806447155,207.32099126596452
0.3938380983288488,192.22094087449292
0.4092984818452433,174.03061283120212
0.4253657732750382,159.50401084169297
0.44206379720285277,148.9464158073921
0.45941731346364734,137.77393513411286
0.47745205385661277,125.80737471813583
0.4961947603002895,115.83806097795966
0.5156732244854959,107.2724936695997
0.5359163290848509,98.54093989823927
0.556954090580013,90.49512130470256
0.5788177037701272,83.45724605496443
0.6015395880274836,76.71565236187251
0.6251534353689703,70.48728259018571
0.6496942604146115,64.77614704810937
0.6751984523072497,59.52780261377211
0.7017038286703824,54.70058771595918
0.7292496916841444,50.257229270151186
0.7578768863625915,46.16432671438314
0.7876278611187046,42.39190961370323
0.8185467307069019,38.91426460009634
0.850679341636415,35.71029368293582
0.8840733401525058,32.76043624721154
0.9187782428863317,30.04626573433026
0.9548455102782278,27.550457657776885
0.9923286228832539,25.25674031729879
1.0312831606721837,23.149525542416143
1.0717668854455022,21.21397534023633
1.1138398264826193,19.436392803138254
1.1575643695533022,17.80415597841027
1.2030053494233226,16.305634429624003
1.2502301459914542,14.930119141926395
1.299308784200415,13.667809884040441
1.3503140378698726,12.509697139008892
1.4033215376054824,11.447456904916553
1.4584098829439835,10.473401184296748
1.5156607589006013,9.580432323853127
1.575159057091621,8.761996856430297
1.6369930016117014,8.012034149618826
1.7012542798525885,7.324956012772528
1.7680381784572046,6.695616925503857
1.8374437246107238,6.11928022534053
1.9095738328780953,5.591586764094954
1.9845354578058014,5.10852697247271
2.0624397525140905,4.666415053238319
2.143402233514853,4.261861011610061
2.227542951999554,3.891747344619263
2.314986671851158,3.5532079396744467
2.405863054644063,3.2436085078729064
2.5003068519063225,2.9605276476425497
2.598458104929248,2.701740194239141
2.7004623524206774,2.4652030461808905
2.806470846309834,2.249040796172058
2.916640776023701,2.0515323684215576
3.031135501567576,1.8710986854128158
3.150124795755327,1.7062913161630548
3.2737850959485697,1.5557819477301549
3.4022997656780634,1.4183526673302427
3.5358593665351745,1.2928870336183063
3.6746619407366854,1.1783618468204025
3.8189133047818515,1.0738394997077345
3.968827354637162,0.9784607012775003
4.1246263829013445,0.8914384132965869
4.286541408420921,0.8120520747514446
4.4548125188449825,0.739642110281764
4.629689226627261,0.6736048801693341
4.811430839003257,0.613388082863695
5.000306842491082,0.5584865569986057
5.196597302486189,0.5084382108248867
5.400593278542364,0.4628204017782951
5.612597255954967,0.42124664113365706
5.8329235942862,0.38336356562749013
6.06189899349756,0.34884808168445
6.29986297838068,0.31740480154747014
6.547168402004727,0.28876384186413656
6.804181968927091,0.26267867215620067
7.071284778942991,0.23892412897078125
7.348872892180382,0.21729459435002743
7.637357916378006,0.19760230854364702
7.937167617217536,0.17967585243908085
8.248746552614573,0.1633587677076495
8.572556731909314,0.14850827192901958
8.909078300934132,0.1349940814550176
9.258810253973934,0.12269734606107072
9.622271173675122,0.1115097358985833
9.999999999999984,0.10133245679225315
