k [1/Mpc],P(k) [Mpc^3]
0.0001,48.77499139241701
0.00010392556829367125,50.83553784644323
0.00010800523745162529,52.983071610733944
0.00011224505680853065,55.22125633633802
0.00011665131316981963,57.55390947337808
0.00012123054013376525,59.985009526039256
0.00012598952777950273,62.518702327387366
0.00013093533273536104,65.15930591948063
0.00013607528864243335,67.91131585901438
0.00014141701702890234,70.77941524612702
0.00014696843861124463,73.7684830637501
0.00015273778503907136,76.8836022247736
0.00015873361110102093,80.13006745136789
0.00016496480740980205,83.51339316859567
0.0001714406135851971,87.039323185303
0.00017817063195457305,90.71383554555906
0.00018516484179121546,94.54315198411815
0.000192433614111598,98.53375239876291
0.00019998772705352857,102.69238779709325
0.0002078383818579757,107.02608947847658
0.00021599721947827182,111.54217329216279
0.0002244763378413224,116.24824821799875
0.0002332883097864157,121.15223531479488
0.00024244620170823283,126.26238061607827
0.0002519635929317015,131.58726818926158
0.0002618545958474233,137.13582684428678
0.0002721338768375308,142.91733641397977
0.0002828166780230032,148.94145164070903
0.0002939188398646886,155.2182148220432
0.0003054568246515432,161.75807188783065
0.00031744774091091926,168.57188616397505
0.00032990936877709396,175.6709464231232
0.00034286018635565856,183.0669903784052
0.00035631939712285854,190.77220525059147
0.000370306958400514,198.79924393577673
0.00038484361094874304,207.16125461771173
0.0003999509097203664,215.87188981113238
0.00041565125582259895,224.9453317485085
0.00043196792973341727,234.3962982015018
0.0004489251258218605,244.2400539474092
0.0004665479882234472,254.4924442841797
0.000484862648123908,265.1698916620083
0.000503896262506515,276.2894282793166
0.0005236770544204653,287.86870508148706
0.0005442343548300266,299.92598774111684
0.0005655986461065005,312.4802082278562
0.0005878016072274912,325.55096788364494
0.0006108761607505036,339.15856432407764
0.0006348565216305217,353.3240056553049
0.0006597782479539537,368.0689889707809
0.0006856782936641739,383.415959934571
0.0007125950633568407,399.38809420648363
0.0007405684692262436,416.009314364348
0.0007696399902471156,433.30433538482237
0.0007998527336796708,451.29863426127906
0.000831251498989063,470.018504095777
0.0008638828442740447,489.4910146280422
0.000897795155303332,509.74399216075136
0.0009330387172620361,530.8061028742119
0.0009696657893145519,552.7067951996645
0.001007730682094461,575.4763505381756
0.0010472898382363582,599.1458328268799
0.0010884019160690055,623.7469892836408
0.0011311278765939214,649.3123801237466
0.001175531073878369,675.8752162493585
0.0012216773489967915,703.469402239208
0.0012696351276599736,732.129570847277
0.0013194755216767058,761.8909286695808
0.0013712724343984,792.7893716178047
0.0014251026703029975,824.861241594926
0.0014810460488806749,858.1432831108386
0.0015391855229902056,892.6727548603751
0.001599607301861487,928.4871435482723
0.0016624009789266115,965.6243018460248
0.0017276596646690358,1004.1222462896454
0.0017954801246878305,1044.018982358978
0.0018659629231817451,1085.3526269100805
0.001939212572065829,1128.160900745622
0.0020153376859417325,1172.4812670647634
0.002094451143151469,1218.3508227160553
0.002176670253153458,1265.8059549437946
0.002262116930469025,1314.8825078483878
0.002350917875457286,1365.6152520282008
0.002443204762186487,1418.0378603415263
0.0025391144336803463,1472.1828576326388
0.002638789104828933,1528.081091460144
0.002742376573264949,1585.761902132274
0.0028500304385181063,1645.2524812843799
0.0029619103297725525,1706.5776395212336
0.0030781821425650787,1769.759908512322
0.003199018284775064,1834.8187898497367
0.0033245979322709396,1901.770913856057
0.003455107294592217,1970.6292811956412
0.0035907398910610534,2041.402658849984
0.0037316968377327513,2114.095973846026
0.0038781871456107214,2188.709313308334
0.0040304280305680515,2265.2380329657385
0.00418864523543527,2343.672149248237
0.004353073364731888,2423.9952828077144
0.00452395623253805,2506.1852314464354
0.004701547224022131,2590.2122615679127
0.004886109671160325,2676.039177142967
0.005077917243205399,2763.621539382365
0.005277254352483535,2852.9065153294055
0.005484416576121017,2943.833144409509
0.005699711094326071,3036.326996971889
0.005923457145875801,3130.2995235813924
0.006155986501483508,3225.6546083241587
0.006397643955748424,3322.2977416345566
0.0066487878384172625,3420.12842329393
0.0069097905457156435,3519.013231484946
0.007181039092537346,3618.7738525253517
0.007462935686310132,3719.2172034251525
0.007755898323389004,3820.155813991269
0.00806036140886134,3921.3982197020823
0.008376776400682916,4022.739869629158
0.008705612479099857,4123.96217510578
0.009047357242349292,4224.832311521576
0.00940251742967013,4325.082328778318
0.009771619672696168,4424.415674849492
0.010155211276345676,4522.516680599437
0.010553861030365234,4619.041831294946
0.010968160052731372,4713.630471360242
0.011398722666160517,4805.89741661606
0.011846187309026826,4895.4342605161055
0.012311217482038896,4981.816378944895
0.012794502732078732,5064.588720024202
0.013296759674662111,5143.281369767161
0.013818733056536317,5217.398849581347
0.014361196859990781,5286.415085113072
0.014924955450518284,5349.796574082639
0.015510844769528393,5406.982588136261
0.016119733573881575,5457.405585057418
0.01675252472408214,5500.492037847404
0.017410156523040152,5535.650722896607
0.018093604107387147,5562.3062412735235
0.01880388089340914,5579.88129848711
0.019542040079740527,5587.81557555669
0.02030917620904734,5585.583580472236
0.021106426791015535,5572.683007233693
0.021934973989050584,5548.669148253396
0.02279604637318978,5513.159928456137
0.023690920741826323,5465.846093170916
0.02462092401494623,5406.513459118623
0.02558743520168586,5335.063884941798
0.02659188744512693,5251.510525535361
0.027635770147361564,5156.022816144036
0.028720631177978267,5048.941523345689
0.029848079169243254,4930.7382092847865
0.03101978590138095,4802.131557045152
0.03223748878149028,4663.982710855525
0.0335029934197723,4517.348487993323
0.03481817630688963,4363.5762448376145
0.03618498759642746,4204.053177730836
0.037605453996581675,4040.425928554506
0.03908168177536263,3874.422132062014
0.04061585988376978,3707.836676178436
0.04221026320156896,3542.8853827066328
0.04386725591048496,3381.5793205107675
0.0455892949998106,3225.5856679063886
0.047378933909631396,3076.2543740714336
0.049238826317067365,2934.9448312829118
0.05117173007114603,2803.9657293796745
0.05318051128214196,2685.473502726036
0.05526814857144601,2580.267068327945
0.057437737488265785,2488.0171948953976
0.0596924950997073,2408.2189574626195
0.0620357647610427,2340.091356018969
0.06447102107323864,2282.588533993114
0.06700187503509585,2233.8958502013365
0.06963207939763882,2192.081805971945
0.0723655342286965,2154.99264059261
0.07520629269592405,2119.4163941401894
0.07815856707684081,2080.9142661968413
0.08122673500479707,2035.1251013237516
0.08441534596012978,1978.1663240625824
0.0877291280161335,1907.138036060975
0.09117299484984914,1820.9754111264706
0.09475205302806537,1720.5741065198872
0.09847160957933764,1608.6432972528467
0.1023371798632519,1489.280487023511
0.10635449574860109,1367.7545476464325
0.11052951411260206,1249.9209860114872
0.1148684256737553,1142.0597693580194
0.1193776641714435,1049.8118297481305
0.1240639159058831,976.9216453866866
0.12893412965257148,924.4954386976011
0.13399552696593373,890.5989407089805
0.1392556128874462,870.5877791592482
0.14472218707411338,857.7550196422255
0.15040335536380234,844.1805798284192
0.15630754179458153,822.1526687746737
0.16244350109588662,786.0445419888772
0.16882033167003618,734.0770081061198
0.17544748908334581,669.5727224681059
0.1823348000868439,600.9121245280614
0.189492477187382,538.6061584588451
0.19693113379074215,490.4656567428243
0.20466179993919872,459.12037672545426
0.21269593866686892,442.5705327123792
0.22104546299710207,434.2712128192132
0.22972275360711503,424.223164473126
0.23874067718606454,404.2182786107192
0.2481126055137766,372.5779397406437
0.25785243528842716,334.58609912835885
0.26797460873256895,299.53701118567994
0.27849413500806414,274.7501729135909
0.28942661247167484,261.2213415657595
0.3007882518043098,253.18828506701144
0.31259590004822796,242.4741912002098
0.324867065587837,224.71466567192422
0.3376199441111335,202.68234975534185
0.35087344559027084,183.53182353449546
0.36464722232127456,171.17211342526292
0.37896169806447155,163.34249079256523
0.3938380983288488,154.2983594019898
0.4092984818452433,141.7099927534783
0.4253657732750382,128.6515570684402
0.44206379720285277,118.97977925729302
0.45941731346364734,112.08020649275232
0.47745205385661277,104.63478879967923
0.4961947603002895,95.83991155420836
0.5156732244854959,87.99073372038033
0.5359163290848509,82.02120166039799
0.556954090580013,76.26690506906272
0.5788177037701272,70.05933150817488
0.6015395880274836,64.56319960005368
0.6251534353689703,59.922086700026654
0.6496942604146115,55.291941592935466
0.6751984523072497,50.873057341563886
0.7017038286703824,47.014508101284804
0.7292496916841444,43.384656431596085
0.7578768863625915,39.99532147771161
0.7876278611187046,36.84803565051309
0.8185467307069019,33.93081624185423
0.850679341636415,31.2314241994754
0.8840733401525058,28.737533117735506
0.9187782428863317,26.436494615804357
0.9548455102782278,24.314051400311456
0.9923286228832539,22.356337099511443
1.0312831606721837,20.550604232423357
1.0717668854455022,18.885128253789695
1.1138398264826193,17.34912437718444
1.1575643695533022,15.932860768662906
1.2030053494233226,14.627582429016675
1.2502301459914542,13.425131355331843
1.299308784200415,12.317890340031044
1.3503140378698726,11.298753329758128
1.4033215376054824,10.361089193051438
1.4584098829439835,9.498678231351356
1.5156607589006013,8.705729189518095
1.575159057091621,7.976872968482001
1.6369930016117014,7.307134073950525
1.7012542798525885,6.691903785202328
1.7680381784572046,6.126917688010167
1.8374437246107238,5.608232581523801
1.9095738328780953,5.132199120946519
1.9845354578058014,4.695441024638326
2.0624397525140905,4.294836067148106
2.143402233514853,3.927498056662036
2.227542951999554,3.59075892117752
2.314986671851158,3.28215441008293
2.405863054644063,2.9994102357341945
2.5003068519063225,2.740428264832473
2.598458104929248,2.503273625612473
2.7004623524206774,2.2861622525421352
2.806470846309834,2.087449481779362
2.916640776023701,1.9056205801601513
3.031135501567576,1.7392810658208966
3.150124795755327,1.5871475981395955
3.2737850959485697,1.4480395030555187
3.4022997656780634,1.3208708178869675
3.5358593665351745,1.2046430983349397
3.6746619407366854,1.0984387301355307
3.8189133047818515,1.0014146500951562
3.968827354637162,0.9127965281825066
4.1246263829013445,0.8318733005088614
4.286541408420921,0.7579921199151398
4.4548125188449825,0.6905539487474063
4.629689226627261,0.6290093054132669
4.811430839003257,0.5728543043661004
5.000306842491082,0.5216269925046264
5.196597302486189,0.4749039095997693
5.400593278542364,0.43229702590038027
5.612597255954967,0.3934509212576325
5.8329235942862,0.35804012727739964
6.06189899349756,0.3257666771518609
6.29986297838068,0.2963578347997573
6.547168402004727,0.26956399997676794
6.804181968927091,0.2451568366497938
7.071284778942991,0.2229275162402103
7.348872892180382,0.20268509437882856
7.637357916378006,0.18425501449868767
7.937167617217536,0.16747768528274912
8.248746552614573,0.15220725604611504
8.572556731909314,0.1383105081619294
8.909078300934132,0.12566578576823564
9.258810253973934,0.11416201346681162
9.622271173675122,0.1036978321120284
9.999999999999984,0.0941808345680681
