k [1/Mpc],P(k) [Mpc^3]
0.0001,125.71318814053166
0.00010392556829367125,130.64497416795086
0.00010800523745162529,135.76997914919735
0.00011224505680853065,141.0957337444654
0.00011665131316981963,146.63005997187457
0.00012123054013376525,152.38108729618295
0.00012598952777950273,158.35726140915108
0.00013093533273536104,164.56735073532437
0.00013607528864243335,171.020455489505
0.00014141701702890234,177.72602485127743
0.00014696843861124463,184.69386399429067
0.00015273778503907136,191.93414982904295
0.00015873361110102093,199.45744625391103
0.00016496480740980205,207.27471403017068
0.0001714406135851971,215.39733000412272
0.00017817063195457305,223.83709476793743
0.00018516484179121546,232.60624814066924
0.000192433614111598,241.7174920503118
0.00019998772705352857,251.18400608039533
0.0002078383818579757,261.01946570453555
0.00021599721947827182,271.23804066667185
0.0002244763378413224,281.8544018349868
0.0002332883097864157,292.88376174826084
0.00024244620170823283,304.34188840595704
0.0002519635929317015,316.24512809622166
0.0002618545958474233,328.6104093527245
0.0002721338768375308,341.4552360243805
0.0002828166780230032,354.79773950894196
0.0002939188398646886,368.65669606924706
0.0003054568246515432,383.05154961788367
0.00031744774091091926,398.00242154579945
0.00032990936877709396,413.5300807915366
0.00034286018635565856,429.6560082259995
0.00035631939712285854,446.40240597117787
0.000370306958400514,463.79221144412605
0.00038484361094874304,481.8491313148625
0.0003999509097203664,500.59758577280553
0.00041565125582259895,520.0627748673666
0.00043196792973341727,540.2707069281468
0.0004489251258218605,561.2481963434379
0.0004665479882234472,583.022909106634
0.000484862648123908,605.6232814423853
0.000503896262506515,629.0785684036449
0.0005236770544204653,653.4188950507828
0.0005442343548300266,678.6752136373317
0.0005655986461065005,704.8793763242502
0.0005878016072274912,732.0640705947867
0.0006108761607505036,760.2628238837166
0.0006348565216305217,789.5100592406819
0.0006597782479539537,819.8409540709273
0.0006856782936641739,851.2915531263969
0.0007125950633568407,883.8987430203415
0.0007405684692262436,917.7002014796748
0.0007696399902471156,952.7344714481384
0.0007998527336796708,989.0407364953608
0.000831251498989063,1026.6589093141
0.0008638828442740447,1065.6296132700745
0.000897795155303332,1105.9939766140224
0.0009330387172620361,1147.793813050046
0.0009696657893145519,1191.0713549837537
0.001007730682094461,1235.8692445269126
0.0010472898382363582,1282.2305425489283
0.0010884019160690055,1330.1981921266508
0.0011311278765939214,1379.8153528987982
0.001175531073878369,1431.125159357558
0.0012216773489967915,1484.1705258812715
0.0012696351276599736,1538.9942935330425
0.0013194755216767058,1595.6385067353044
0.0013712724343984,1654.144659590973
0.0014251026703029975,1714.5536027168384
0.0014810460488806749,1776.9051375366969
0.0015391855229902056,1841.238193307747
0.001599607301861487,1907.5898084536066
0.0016624009789266115,1975.995184942162
0.0017276596646690358,2046.487868641214
0.0017954801246878305,2119.0990617703537
0.0018659629231817451,2193.857872247269
0.001939212572065829,2270.7904187012946
0.0020153376859417325,2349.9194724277513
0.002094451143151469,2431.2648137332226
0.002176670253153458,2514.842400074242
0.002262116930469025,2600.664504086516
0.002350917875457286,2688.7390031320106
0.002443204762186487,2779.0685991433756
0.0025391144336803463,2871.6512706502053
0.002638789104828933,2966.479046890195
0.002742376573264949,3063.5380802189584
0.0028500304385181063,3162.808377170431
0.0029619103297725525,3264.2626428440017
0.0030781821425650787,3367.866796799471
0.003199018284775064,3473.578404947312
0.0033245979322709396,3581.346398991561
0.003455107294592217,3691.1115801603623
0.0035907398910610534,3802.8054048068293
0.0037316968377327513,3916.350356503923
0.0038781871456107214,4031.6578170389716
0.0040304280305680515,4148.626818563271
0.00418864523543527,4267.146176281905
0.004353073364731888,4387.0945495641145
0.00452395623253805,4508.340128928919
0.004701547224022131,4630.733488712475
0.004886109671160325,4754.098982415785
0.005077917243205399,4878.248295110537
0.005277254352483535,5003.010331894673
0.005484416576121017,5128.225223231161
0.005699711094326071,5253.695749757585
0.005923457145875801,5379.11146220309
0.006155986501483508,5504.122404484758
0.006397643955748424,5628.423978940977
0.0066487878384172625,5751.769850072152
0.0069097905457156435,5873.8929020246505
0.007181039092537346,5994.423489246693
0.007462935686310132,6112.9436326101995
0.007755898323389004,6229.0530473335175
0.00806036140886134,6342.3978500197945
0.008376776400682916,6452.615403734067
0.008705612479099857,6559.263379782151
0.009047357242349292,6661.848155586969
0.00940251742967013,6759.860589419791
0.009771619672696168,6852.768736358878
0.010155211276345676,6940.031756122715
0.010553861030365234,7021.080548354589
0.010968160052731372,7095.323042289371
0.011398722666160517,7162.162558597676
0.011846187309026826,7220.974426530897
0.012311217482038896,7271.135631738745
0.012794502732078732,7312.002458217145
0.013296759674662111,7342.900541412233
0.013818733056536317,7363.17427676568
0.014361196859990781,7372.146058604439
0.014924955450518284,7369.157399370072
0.015510844769528393,7353.575718393116
0.016119733573881575,7324.767584842829
0.01675252472408214,7282.165629307947
0.017410156523040152,7225.227959960636
0.018093604107387147,7153.470411885767
0.01880388089340914,7066.508112138622
0.019542040079740527,6964.0176314583905
0.02030917620904734,6845.808676020516
0.021106426791015535,6711.819177702155
0.021934973989050584,6562.123788724747
0.02279604637318978,6396.982627788888
0.023690920741826323,6216.846677195265
0.02462092401494623,6022.363494516141
0.02558743520168586,5814.418786263503
0.02659188744512693,5594.1558375602835
0.027635770147361564,5362.9061949951665
0.028720631177978267,5122.333936515322
0.029848079169243254,4874.298240311268
0.03101978590138095,4620.834903138722
0.03223748878149028,4364.341431802126
0.0335029934197723,4107.164564064147
0.03481817630688963,3851.926257322921
0.03618498759642746,3601.3332169698556
0.037605453996581675,3357.8330347438755
0.03908168177536263,3124.1636578948946
0.04061585988376978,2902.6187852485805
0.04221026320156896,2695.304560578443
0.04386725591048496,2504.2796794926585
0.0455892949998106,2330.925109729485
0.047378933909631396,2176.346943992028
0.049238826317067365,2041.2732613339863
0.05117173007114603,1926.048638621751
0.05318051128214196,1830.8282610644344
0.05526814857144601,1755.1607859775133
0.057437737488265785,1696.7166513671705
0.0596924950997073,1653.1399732229922
0.0620357647610427,1622.133053235426
0.06447102107323864,1601.29356655704
0.06700187503509585,1587.1097645459502
0.06963207939763882,1575.4210270762937
0.0723655342286965,1561.0807500059432
0.07520629269592405,1538.5721457213913
0.07815856707684081,1502.5867480111083
0.08122673500479707,1449.299572619579
0.08441534596012978,1376.7835650805296
0.0877291280161335,1285.5267703655438
0.09117299484984914,1178.8102809488796
0.09475205302806537,1061.917660767704
0.09847160957933764,941.9231230771522
0.1023371798632519,826.5354999868981
0.10635449574860109,723.4825721198248
0.11052951411260206,638.7341443068756
0.1148684256737553,575.6587587308576
0.1193776641714435,534.8366385753008
0.1240639159058831,514.1939372382525
0.12893412965257148,509.42989306213826
0.13399552696593373,514.200730063981
0.1392556128874462,520.4175629795476
0.14472218707411338,519.2238205844491
0.15040335536380234,502.838790630248
0.15630754179458153,467.4945898029837
0.16244350109588662,416.3335786049599
0.16882033167003618,358.8376681422372
0.17544748908334581,305.9933491494546
0.1823348000868439,265.86678743428337
0.189492477187382,242.34396312398906
0.19693113379074215,234.4891730038564
0.20466179993919872,236.25481418689964
0.21269593866686892,238.49430105702254
0.22104546299710207,232.3078896056771
0.22972275360711503,213.41944464377616
0.23874067718606454,185.77509693422266
0.2481126055137766,158.56391344088607
0.25785243528842716,139.86878741442922
0.26797460873256895,131.9000810585671
0.27849413500806414,130.56507528985404
0.28942661247167484,128.514827281883
0.3007882518043098,119.81844599887214
0.31259590004822796,105.51313731651251
0.324867065587837,91.90905119680572
0.3376199441111335,83.9178314606074
0.35087344559027084,80.80272936174198
0.36464722232127456,77.7412238920501
0.37896169806447155,71.26873344824507
0.3938380983288488,63.07965038859739
0.4092984818452433,57.0561664419029
0.4253657732750382,53.839311722643494
0.44206379720285277,50.73331372958105
0.45941731346364734,46.08798441762362
0.47745205385661277,41.49364445039418
0.4961947603002895,38.42289563623328
0.5156732244854959,35.8586603088431
0.5359163290848509,32.71210372861569
0.556954090580013,29.74884128187252
0.5788177037701272,27.51071433950418
0.6015395880274836,25.32895278091072
0.6251534353689703,23.086954381810724
0.6496942604146115,21.195538820056193
0.6751984523072497,19.506107259797115
0.7017038286703824,17.911177074106913
0.7292496916841444,16.411835444040946
0.7578768863625915,15.015013927427074
0.7876278611187046,13.72416518277197
0.8185467307069019,12.539892043854845
0.850679341636415,11.460205793530672
0.8840733401525058,10.477213626891027
0.9187782428863317,9.580480556245721
0.9548455102782278,8.76087085834187
0.9923286228832539,8.010435567058629
1.0312831606721837,7.322244569375854
1.0717668854455022,6.6904508340709015
1.1138398264826193,6.110725841070626
1.1575643695533022,5.579253644651826
1.2030053494233226,5.092428390891855
1.2502301459914542,4.646852659759189
1.299308784200415,4.239333007834631
1.3503140378698726,3.8668044541675743
1.4033215376054824,3.526314269187831
1.4584098829439835,3.2151466873928287
1.5156607589006013,2.930814885832556
1.575159057091621,2.6710415952884095
1.6369930016117014,2.43374292015257
1.7012542798525885,2.2170268596106792
1.7680381784572046,2.0191658788539253
1.8374437246107238,1.8385712220256853
1.9095738328780953,1.6737822506981785
1.9845354578058014,1.52345673074483
2.0624397525140905,1.386360945002192
2.143402233514853,1.2613594013263434
2.227542951999554,1.1474103989156113
2.314986671851158,1.0435593968416386
2.405863054644063,0.9489319766982122
2.5003068519063225,0.8627273496362436
2.598458104929248,0.7842124184658976
2.7004623524206774,0.7127162530623672
2.806470846309834,0.6476249099641156
2.916640776023701,0.588376743997737
3.031135501567576,0.5344580964070113
3.150124795755327,0.4853993158776415
3.2737850959485697,0.44077103613738333
3.4022997656780634,0.40018087724832807
3.5358593665351745,0.3632704025169692
3.6746619407366854,0.3297122652479827
3.8189133047818515,0.2992075864476955
3.968827354637162,0.2714835371463517
4.1246263829013445,0.24629111032974962
4.286541408420921,0.2234031241333795
4.4548125188449825,0.20261236393838045
4.629689226627261,0.18372987066571042
4.811430839003257,0.16658337101930473
5.000306842491082,0.15101582413019501
5.196597302486189,0.1368841061027678
5.400593278542364,0.12405782605033411
5.612597255954967,0.11241821943157759
5.8329235942862,0.10185713360192879
6.06189899349756,0.09227609850693552
6.29986297838068,0.08358546995467181
6.547168402004727,0.07570366129731487
6.804181968927091,0.06855643879846711
7.071284778942991,0.06207627174050539
7.348872892180382,0.05620173862319768
7.637357916378006,0.05087697907028383
7.937167617217536,0.04605119020157524
8.248746552614573,0.04167819351583598
8.572556731909314,0.03771602428590963
8.909078300934132,0.03412655317575471
9.258810253973934,0.030875141822804694
9.622271173675122,0.027930345604413195
9.999999999999984,0.025263621733252695
