k [1/Mpc],P(k) [Mpc^3]
0.0001,1636.704380979623
0.00010392556829367125,1691.1335582159634
0.00010800523745162529,1747.370755863659
0.00011224505680853065,1805.4757853350047
0.00011665131316981963,1865.510418754402
0.00012123054013376525,1927.5384483877797
0.00012598952777950273,1991.6257514683082
0.00013093533273536104,2057.840347485295
0.00013607528864243335,2126.2523959379646
0.00014141701702890234,2196.9343163348462
0.00014696843861124463,2269.960917343154
0.00015273778503907136,2345.409494709246
0.00015873361110102093,2423.359849895152
0.00016496480740980205,2503.8942062084925
0.0001714406135851971,2587.0973530003366
0.00017817063195457305,2673.0568229185365
0.00018516484179121546,2761.86299892138
0.000192433614111598,2853.6091738685536
0.00019998772705352857,2948.391540876383
0.0002078383818579757,3046.309290584281
0.00021599721947827182,3147.4647203833356
0.0002244763378413224,3251.9631421123354
0.0002332883097864157,3359.913128150899
0.00024244620170823283,3471.4266552022236
0.0002519635929317015,3586.619201307519
0.0002618545958474233,3705.609826450744
0.0002721338768375308,3828.5210548588184
0.0002828166780230032,3955.4790953782554
0.0002939188398646886,4086.6138644557527
0.0003054568246515432,4222.058874059847
0.00031744774091091926,4361.951620724192
0.00032990936877709396,4506.4336243785365
0.00034286018635565856,4655.650562497992
0.00035631939712285854,4809.752273443255
0.000370306958400514,4968.892408842824
0.00038484361094874304,5133.228953590819
0.0003999509097203664,5302.924322712478
0.00041565125582259895,5478.145443596568
0.00043196792973341727,5659.063754813306
0.0004489251258218605,5845.854187075162
0.0004665479882234472,6038.695964237775
0.000484862648123908,6237.773187167534
0.000503896262506515,6443.274990006901
0.0005236770544204653,6655.395388533049
0.0005442343548300266,6874.331983686865
0.0005655986461065005,7100.286498304378
0.0005878016072274912,7333.465389537535
0.0006108761607505036,7574.079511238097
0.0006348565216305217,7822.344550114348
0.0006597782479539537,8078.480266737369
0.0006856782936641739,8342.710507037375
0.0007125950633568407,8615.26358868909
0.0007405684692262436,8896.370947236928
0.0007696399902471156,9186.26813725235
0.0007998527336796708,9485.194338743984
0.000831251498989063,9793.391811543946
0.0008638828442740447,10111.106659711988
0.000897795155303332,10438.58695870264
0.0009330387172620361,10776.08352439042
0.0009696657893145519,11123.849441802891
0.001007730682094461,11482.138170133201
0.0010472898382363582,11851.205334615124
0.0010884019160690055,12231.306561055599
0.0011311278765939214,12622.69754628519
0.001175531073878369,13025.633969833892
0.0012216773489967915,13440.367102906981
0.0012696351276599736,13867.146840397185
0.0013194755216767058,14306.219460574346
0.0013712724343984,14757.826235943317
0.0014251026703029975,15222.205123710868
0.0014810460488806749,15699.586014503
0.0015391855229902056,16190.192609046171
0.001599607301861487,16694.240295313437
0.0016624009789266115,17211.932184825113
0.0017276596646690358,17743.462502261613
0.0017954801246878305,18289.01033111109
0.0018659629231817451,18848.740369015315
0.001939212572065829,19422.80341047381
0.0020153376859417325,20011.330726679775
0.002094451143151469,20614.43717648384
0.002176670253153458,21232.213633932897
0.002262116930469025,21864.724940685766
0.002350917875457286,22512.014255333088
0.002443204762186487,23174.0980095236
0.0025391144336803463,23850.967142210528
0.002638789104828933,24542.579295020943
0.002742376573264949,25248.85206662013
0.0028500304385181063,25969.670723735777
0.0029619103297725525,26704.88261975485
0.0030781821425650787,27454.297626453434
0.003199018284775064,28217.68374388847
0.0033245979322709396,28994.756939472296
0.003455107294592217,29785.188855132426
0.0035907398910610534,30588.598358590683
0.0037316968377327513,31404.55059417471
0.0038781871456107214,32232.558872944974
0.0040304280305680515,33072.073276250354
0.00418864523543527,33922.487167483625
0.004353073364731888,34783.12787727981
0.00452395623253805,35653.25104855455
0.004701547224022131,36532.05187162241
0.004886109671160325,37418.66630819056
0.005077917243205399,38312.16927859994
0.005277254352483535,39211.53833493216
0.005484416576121017,40115.61292446396
0.005699711094326071,41023.16602723937
0.005923457145875801,41933.0836499691
0.006155986501483508,42844.32287613025
0.006397643955748424,43755.62959697105
0.0066487878384172625,44665.12482346568
0.0069097905457156435,45570.724693402946
0.007181039092537346,46470.63620075207
0.007462935686310132,47363.419942164415
0.007755898323389004,48247.52681882573
0.00806036140886134,49120.85330166057
0.008376776400682916,49981.04632010183
0.008705612479099857,50825.90308272157
0.009047357242349292,51653.55118894201
0.00940251742967013,52462.09453964198
0.009771619672696168,53249.298522326266
0.010155211276345676,54012.71549403511
0.010553861030365234,54749.85008807029
0.010968160052731372,55458.154625275536
0.011398722666160517,56135.05654810791
0.011846187309026826,56777.94513209848
0.012311217482038896,57384.185269273345
0.012794502732078732,57951.15288178882
0.013296759674662111,58476.24369713502
0.013818733056536317,58956.89059890537
0.014361196859990781,59390.51046761584
0.014924955450518284,59774.489866404794
0.015510844769528393,60106.28685696626
0.016119733573881575,60383.42965115923
0.01675252472408214,60603.54993238616
0.017410156523040152,60764.40189648056
0.018093604107387147,60863.86530537441
0.01880388089340914,60899.98997901944
0.019542040079740527,60871.04127535271
0.02030917620904734,60775.511123295604
0.021106426791015535,60612.137603697825
0.021934973989050584,60379.97429165123
0.02279604637318978,60078.34973189473
0.023690920741826323,59706.988913361136
0.02462092401494623,59266.03857649866
0.02558743520168586,58755.977926814965
0.02659188744512693,58177.861473346
0.027635770147361564,57533.1224937542
0.028720631177978267,56823.66868871387
0.029848079169243254,56052.03645697364
0.03101978590138095,55221.04878555884
0.03223748878149028,54334.162602179254
0.0335029934197723,53395.23786604115
0.03481817630688963,52408.396621928514
0.03618498759642746,51378.301040015605
0.037605453996581675,50309.69422986774
0.03908168177536263,49207.45094224118
0.04061585988376978,48076.522584748134
0.04221026320156896,46921.745290240724
0.04386725591048496,45747.866774930175
0.0455892949998106,44559.45284165564
0.047378933909631396,43360.11562668238
0.049238826317067365,42152.235333020595
0.05117173007114603,40938.25267042226
0.05318051128214196,39721.989204600184
0.05526814857144601,38507.7268303991
0.057437737488265785,37296.182241111324
0.0596924950997073,36080.55962376671
0.0620357647610427,34854.575625845006
0.06447102107323864,33620.58002195255
0.06700187503509585,32386.758787592742
0.06963207939763882,31159.883802479642
0.0723655342286965,29943.000566600916
0.07520629269592405,28738.07945572437
0.07815856707684081,27544.09421735373
0.08122673500479707,26357.86353698122
0.08441534596012978,25182.022439490476
0.0877291280161335,24028.112573898303
0.09117299484984914,22906.994516475148
0.09475205302806537,21827.95117082373
0.09847160957933764,20794.53342109411
0.1023371798632519,19802.261590233324
0.10635449574860109,18846.267172051932
0.11052951411260206,17922.411176770252
0.1148684256737553,17028.879187774517
0.1193776641714435,16163.346309504333
0.1240639159058831,15320.878887305653
0.12893412965257148,14497.375639785663
0.13399552696593373,13692.268588653815
0.1392556128874462,12909.68892976954
0.14472218707411338,12156.261443897973
0.15040335536380234,11439.750564211914
0.15630754179458153,10764.708157294228
0.16244350109588662,10129.228717003867
0.16882033167003618,9525.889175644761
0.17544748908334581,8950.5111099569
0.1823348000868439,8402.202425166526
0.189492477187382,7878.070741168732
0.19693113379074215,7375.29951725678
0.20466179993919872,6897.247261116769
0.21269593866686892,6446.060396004636
0.22104546299710207,6021.320004467889
0.22972275360711503,5622.699994869773
0.23874067718606454,5246.656072581921
0.2481126055137766,4890.7085585709565
0.25785243528842716,4555.140706772011
0.26797460873256895,4238.836686817796
0.27849413500806414,3942.216120285204
0.28942661247167484,3664.215219064939
0.3007882518043098,3403.3277375438533
0.31259590004822796,3158.8660393855885
0.324867065587837,2929.7964021135867
0.3376199441111335,2715.4895126459687
0.35087344559027084,2515.4615254752
0.36464722232127456,2328.4697017152835
0.37896169806447155,2154.1641538664794
0.3938380983288488,1991.509291167726
0.4092984818452433,1840.1610843179174
0.4253657732750382,1699.1874355798006
0.44206379720285277,1568.2023589921243
0.45941731346364734,1446.4359716181757
0.47745205385661277,1333.434571886778
0.4961947603002895,1228.6290828826977
0.5156732244854959,1131.433756000178
0.5359163290848509,1041.4363651213773
0.556954090580013,958.1119225345167
0.5788177037701272,880.9838535494813
0.6015395880274836,809.6598516970828
0.6251534353689703,743.7457960154782
0.6496942604146115,682.8556909667412
0.6751984523072497,626.6423597195192
0.7017038286703824,574.7809145404236
0.7292496916841444,526.9978703715072
0.7578768863625915,482.9848258626999
0.7876278611187046,442.4604439658377
0.8185467307069019,405.17092693302925
0.850679341636415,370.86646196852496
0.8840733401525058,339.319074860603
0.9187782428863317,310.32333155325193
0.9548455102782278,283.69408881301075
0.9923286228832539,259.25564631260573
1.0312831606721837,236.83569086896745
1.0717668854455022,216.2746732181288
1.1138398264826193,197.42708161459603
1.1575643695533022,180.1579239246626
1.2030053494233226,164.34202226497504
1.2502301459914542,149.8633838033844
1.299308784200415,136.61456486191256
1.3503140378698726,124.49599897128527
1.4033215376054824,113.41563137478464
1.4584098829439835,103.28845260026552
1.5156607589006013,94.0360049523597
1.575159057091621,85.58591923334964
1.6369930016117014,77.87150010666066
1.7012542798525885,70.83132656854559
1.7680381784572046,64.40882693758185
1.8374437246107238,58.551921100408414
1.9095738328780953,53.21269074235708
1.9845354578058014,48.34706942399324
2.0624397525140905,43.914529529185316
2.143402233514853,39.87782866319755
2.227542951999554,36.202786150812116
2.314986671851158,32.85804685195851
2.405863054644063,29.814860825685777
2.5003068519063225,27.046875027234087
2.598458104929248,24.529926255756976
2.7004623524206774,22.241887739870492
2.806470846309834,20.162515424166738
2.916640776023701,18.273294769996124
3.031135501567576,16.55729930016365
3.150124795755327,14.999065081416466
3.2737850959485697,13.584475839092475
3.4022997656780634,12.300637226072899
3.5358593665351745,11.135773425160453
3.6746619407366854,10.079134368153426
3.8189133047818515,9.12090990787165
3.968827354637162,8.252142374134104
4.1246263829013445,7.464656425067084
4.286541408420921,6.751004740412386
4.4548125188449825,6.104405781190433
4.629689226627261,5.518685984152083
4.811430839003257,4.988227245603894
5.000306842491082,4.5079217577981305
5.196597302486189,4.0731241903638455
5.400593278542364,3.67960864508387
5.612597255954967,3.3235319506675935
5.8329235942862,3.0014000680682065
6.06189899349756,2.710036709977165
6.29986297838068,2.4465538481919555
6.547168402004727,2.2083284667098426
6.804181968927091,1.9929794328592223
7.071284778942991,1.7983457158272862
7.348872892180382,1.622466508030404
7.637357916378006,1.4635628571825652
7.937167617217536,1.3200210976733155
8.248746552614573,1.1903782419997735
8.572556731909314,1.073308236162912
8.909078300934132,0.9676093980883604
9.258810253973934,0.872193045581108
9.622271173675122,0.7860738965765839
9.999999999999984,0.7083599907791179
