k [1/Mpc],P(k) [Mpc^3]
0.0001,1538.2651410823094
0.00010392556829367125,1594.0020585663196
0.00010800523745162529,1651.7553064668966
0.00011224505680853065,1711.5974627479857
0.00011665131316981963,1773.6036859057283
0.00012123054013376525,1837.8517708914667
0.00012598952777950273,1904.42226715887
0.00013093533273536104,1973.3985201681471
0.00013607528864243335,2044.866738633115
0.00014141701702890234,2118.91617721936
0.00014696843861124463,2195.639303931607
0.00015273778503907136,2275.13188104501
0.00015873361110102093,2357.492928614682
0.00016496480740980205,2442.8246861172715
0.0001714406135851971,2531.232926271408
0.00017817063195457305,2622.8271261117925
0.00018516484179121546,2717.7205863879753
0.000192433614111598,2816.0304840786207
0.00019998772705352857,2917.8778528291587
0.0002078383818579757,3023.387842493199
0.00021599721947827182,3132.6897104377185
0.0002244763378413224,3245.916923362991
0.0002332883097864157,3363.2074506223603
0.00024244620170823283,3484.7038667515767
0.0002519635929317015,3610.553524728977
0.0002618545958474233,3740.9084040818902
0.0002721338768375308,3875.925013911586
0.0002828166780230032,4015.7649272779004
0.0002939188398646886,4160.594756625366
0.0003054568246515432,4310.586384987033
0.00031744774091091926,4465.917070058084
0.00032990936877709396,4626.7693251031405
0.00034286018635565856,4793.331331155534
0.00035631939712285854,4965.796532473931
0.000370306958400514,5144.363808158346
0.00038484361094874304,5329.237925987728
0.0003999509097203664,5520.629208384598
0.00041565125582259895,5718.754038265534
0.00043196792973341727,5923.834525903297
0.0004489251258218605,6136.098381181626
0.0004665479882234472,6355.7795386515645
0.000484862648123908,6583.117430470403
0.000503896262506515,6818.35755158456
0.0005236770544204653,7061.751445022742
0.0005442343548300266,7313.556245321947
0.0005655986461065005,7574.035372835976
0.0005878016072274912,7843.457385316723
0.0006108761607505036,8122.096329521876
0.0006348565216305217,8410.232053006614
0.0006597782479539537,8708.149038367485
0.0006856782936641739,9016.137446199686
0.0007125950633568407,9334.491980214816
0.0007405684692262436,9663.51163257877
0.0007696399902471156,10003.500391433536
0.0007998527336796708,10354.76534150722
0.000831251498989063,10717.617717811037
0.0008638828442740447,11092.37124455837
0.000897795155303332,11479.340454067313
0.0009330387172620361,11878.842674028534
0.0009696657893145519,12291.19491522124
0.001007730682094461,12716.714737758806
0.0010472898382363582,13155.719054473255
0.0010884019160690055,13608.520057175321
0.0011311278765939214,14075.428441616687
0.001175531073878369,14556.748491701035
0.0012216773489967915,15052.777816380067
0.0012696351276599736,15563.808757063778
0.0013194755216767058,16090.123187675914
0.0013712724343984,16631.995082601443
0.0014251026703029975,17189.685470476474
0.0014810460488806749,17763.439475842028
0.0015391855229902056,18353.489436704753
0.001599607301861487,18960.047462442035
0.0016624009789266115,19583.307688211316
0.0017276596646690358,20223.442445176996
0.0017954801246878305,20880.595600648478
0.0018659629231817451,21554.887643213675
0.001939212572065829,22246.407777499215
0.0020153376859417325,22955.214116380866
0.002094451143151469,23681.332873212064
0.002176670253153458,24424.749822910224
0.002262116930469025,25185.4144905347
0.002350917875457286,25963.231547898715
0.002443204762186487,26758.05803649456
0.0025391144336803463,27569.705527189046
0.002638789104828933,28397.927992111894
0.002742376573264949,29242.426699622756
0.0028500304385181063,30102.8432434963
0.0029619103297725525,30978.752466123
0.0030781821425650787,31869.66866962856
0.003199018284775064,32775.03376976755
0.0033245979322709396,33694.219976328095
0.003455107294592217,34626.52470502661
0.0035907398910610534,35571.157133842986
0.0037316968377327513,36527.249497078126
0.0038781871456107214,37493.84077652204
0.0040304280305680515,38469.87788934529
0.00418864523543527,39454.21717978063
0.004353073364731888,40445.597617522035
0.00452395623253805,41442.662909610626
0.004701547224022131,42443.95318498627
0.004886109671160325,43447.90116921515
0.005077917243205399,44452.826758451585
0.005277254352483535,45456.828560922615
0.005484416576121017,46457.85677175186
0.005699711094326071,47453.872852599765
0.005923457145875801,48442.95138537901
0.006155986501483508,49423.050601175404
0.006397643955748424,50391.37049998412
0.0066487878384172625,51344.588546579354
0.0069097905457156435,52279.3868992474
0.007181039092537346,53192.74693849438
0.007462935686310132,54081.643593413726
0.007755898323389004,54942.98496348379
0.00806036140886134,55773.62469472945
0.008376776400682916,56570.255028152715
0.008705612479099857,57328.97659377552
0.009047357242349292,58045.686277465604
0.00940251742967013,58716.11691037642
0.009771619672696168,59335.8041499759
0.010155211276345676,59900.24329124071
0.010553861030365234,60404.668622546196
0.010968160052731372,60844.24581562776
0.011398722666160517,61214.074227598685
0.011846187309026826,61509.02987841548
0.012311217482038896,61724.09312376534
0.012794502732078732,61853.96510598378
0.013296759674662111,61893.28041765583
0.013818733056536317,61836.83716482768
0.014361196859990781,61679.19782601868
0.014924955450518284,61415.295823579385
0.015510844769528393,61040.15549374978
0.016119733573881575,60548.961827572086
0.01675252472408214,59937.561965280205
0.017410156523040152,59201.84954240598
0.018093604107387147,58338.52165902639
0.01880388089340914,57345.032805482304
0.019542040079740527,56219.423442716456
0.02030917620904734,54961.14817031444
0.021106426791015535,53570.51441452264
0.021934973989050584,52049.24714631763
0.02279604637318978,50400.79531699744
0.023690920741826323,48630.00833679547
0.02462092401494623,46743.7959543909
0.02558743520168586,44751.07118884085
0.02659188744512693,42662.722934130805
0.027635770147361564,40491.795576767036
0.028720631177978267,38253.775555840635
0.029848079169243254,35965.68691598918
0.03101978590138095,33646.811949888026
0.03223748878149028,31318.257612739188
0.0335029934197723,29001.230644958952
0.03481817630688963,26719.636001334897
0.03618498759642746,24496.128563532355
0.037605453996581675,22352.74620816919
0.03908168177536263,20312.265583219232
0.04061585988376978,18392.341013279038
0.04221026320156896,16611.83948718667
0.04386725591048496,14985.849835075254
0.0455892949998106,13522.900965827055
0.047378933909631396,12229.684635923393
0.049238826317067365,11107.248819068947
0.05117173007114603,10158.127588019332
0.05318051128214196,9384.683125944146
0.05526814857144601,8778.736686311337
0.057437737488265785,8322.811885177509
0.0596924950997073,8001.796680824629
0.0620357647610427,7802.118446410666
0.06447102107323864,7709.202503659284
0.06700187503509585,7703.548854899598
0.06963207939763882,7760.061367845641
0.0723655342286965,7846.305274427219
0.07520629269592405,7921.914519765955
0.07815856707684081,7942.41454946825
0.08122673500479707,7864.362291111411
0.08441534596012978,7654.950320304883
0.0877291280161335,7294.896123343696
0.09117299484984914,6782.451284393288
0.09475205302806537,6138.435773892275
0.09847160957933764,5403.13519113638
0.1023371798632519,4632.111337229941
0.10635449574860109,3888.811428427614
0.11052951411260206,3233.0847422256074
0.1148684256737553,2707.025964025333
0.1193776641714435,2330.1022911118275
0.1240639159058831,2102.3573323506603
0.12893412965257148,2010.3514226469479
0.13399552696593373,2031.0105958784522
0.1392556128874462,2130.2676737736624
0.14472218707411338,2258.784762750087
0.15040335536380234,2351.974785858487
0.15630754179458153,2343.9138993088113
0.16244350109588662,2196.168170247554
0.16882033167003618,1923.4504542557731
0.17544748908334581,1588.6014135386672
0.1823348000868439,1269.9127454769243
0.189492477187382,1029.8311313925606
0.19693113379074215,898.1625624062983
0.20466179993919872,870.1480386683942
0.21269593866686892,914.9339250222608
0.22104546299710207,979.7071602653276
0.22972275360711503,998.0235008148587
0.23874067718606454,926.2405719724817
0.2481126055137766,779.8079466124904
0.25785243528842716,622.607893303976
0.26797460873256895,515.2337835526793
0.27849413500806414,477.8387874437556
0.28942661247167484,492.46790019666537
0.3007882518043098,512.3970108453411
0.31259590004822796,489.3447990979371
0.324867065587837,418.8079029089931
0.3376199441111335,342.85489411252644
0.35087344559027084,301.42748726098273
0.36464722232127456,296.53032577786144
0.37896169806447155,298.4745118945064
0.3938380983288488,276.0640397337123
0.4092984818452433,234.75575085284547
0.4253657732750382,204.05279238894533
0.44206379720285277,194.60283934218924
0.45941731346364734,189.05980569042873
0.47745205385661277,170.62879715394527
0.4961947603002895,148.35916473572382
0.5156732244854959,136.45004097971122
0.5359163290848509,129.84611681885647
0.556954090580013,117.82720685770354
0.5788177037701272,104.70078071501185
0.6015395880274836,96.96141861510257
0.6251534353689703,89.81471677364553
0.6496942604146115,80.74274556276974
0.6751984523072497,73.08012727825883
0.7017038286703824,66.49664931497333
0.7292496916841444,60.72871131715614
0.7578768863625915,55.58515042077901
0.7876278611187046,50.91790225089211
0.8185467307069019,46.612865265912816
0.850679341636415,42.59496746235824
0.8840733401525058,38.85545069597028
0.9187782428863317,35.39654809883162
0.9548455102782278,32.215087372536296
0.9923286228832539,29.3036216798774
1.0312831606721837,26.65141298892399
1.0717668854455022,24.24149346840289
1.1138398264826193,22.050405942206115
1.1575643695533022,20.05657572634575
1.2030053494233226,18.240841335810888
1.2502301459914542,16.586155073642264
1.299308784200415,15.077381316794764
1.3503140378698726,13.70177097086108
1.4033215376054824,12.448247223691274
1.4584098829439835,11.306573951464864
1.5156607589006013,10.26728880238599
1.575159057091621,9.321655801135266
1.6369930016117014,8.46158880389209
1.7012542798525885,7.679509618645168
1.7680381784572046,6.968454309408322
1.8374437246107238,6.322072884883223
1.9095738328780953,5.7345757067359955
1.9845354578058014,5.200684626916892
2.0624397525140905,4.715598894283923
2.143402233514853,4.274958681254396
2.227542951999554,3.874784488832275
2.314986671851158,3.511442743087622
2.405863054644063,3.181616854927119
2.5003068519063225,2.8822803955240976
2.598458104929248,2.610669985375484
2.7004623524206774,2.364264513438912
2.806470846309834,2.140767082207187
2.916640776023701,1.938085655496318
3.031135501567576,1.754315249439626
3.150124795755327,1.5877216136430057
3.2737850959485697,1.4367262628320054
3.4022997656780634,1.299892871899599
3.5358593665351745,1.1759147949235913
3.6746619407366854,1.063603627892601
3.8189133047818515,0.9618787519492096
3.968827354637162,0.8697577330674
4.1246263829013445,0.7863475650641035
4.286541408420921,0.7108367971011411
4.4548125188449825,0.6424882526304001
4.629689226627261,0.5806323699027037
4.811430839003257,0.5246611200049708
5.000306842491082,0.474022379287475
5.196597302486189,0.42821492390380594
5.400593278542364,0.38678391274047025
5.612597255954967,0.3493166745497409
5.8329235942862,0.3154388667443544
6.06189899349756,0.28481098916370473
6.29986297838068,0.2571252496971953
6.547168402004727,0.23210259445976847
6.804181968927091,0.20949004320679654
7.071284778942991,0.18905829574522684
7.348872892180382,0.1705995533783649
7.637357916378006,0.15392548380130425
7.937167617217536,0.1388653781811267
8.248746552614573,0.12526465028521744
8.572556731909314,0.11298335140057322
8.909078300934132,0.10189480156978847
9.258810253973934,0.09188435126766788
9.622271173675122,0.08284833456129952
9.999999999999984,0.07469300335562315
