k [1/Mpc],P(k) [Mpc^3]
0.0001,2878.079336228271
0.00010392556829367125,2973.378622222255
0.00010800523745162529,3071.7964181824386
0.00011224505680853065,3173.4307114503895
0.00011665131316981963,3278.3819951631726
0.00012123054013376525,3386.75312041965
0.00012598952777950273,3498.6497275812117
0.00013093533273536104,3614.180048399522
0.00013607528864243335,3733.4550910922494
0.00014141701702890234,3856.588517592191
0.00014696843861124463,3983.696213112989
0.00015273778503907136,4114.8968684414385
0.00015873361110102093,4250.311631489493
0.00016496480740980205,4390.064200736725
0.0001714406135851971,4534.280848113467
0.00017817063195457305,4683.089408588684
0.00018516484179121546,4836.620143639912
0.000192433614111598,4995.005289154447
0.00019998772705352857,5158.378813970665
0.0002078383818579757,5326.876922495512
0.00021599721947827182,5500.636835943856
0.0002244763378413224,5679.797452300658
0.0002332883097864157,5864.49872981181
0.00024244620170823283,6054.880600591407
0.0002519635929317015,6251.084208991783
0.0002618545958474233,6453.250263995052
0.0002721338768375308,6661.519414773145
0.0002828166780230032,6876.032270872784
0.0002939188398646886,7096.927589096411
0.0003054568246515432,7324.343623155265
0.00031744774091091926,7558.416240576382
0.00032990936877709396,7799.278547285806
0.00034286018635565856,8047.061672724828
0.00035631939712285854,8301.8921793947
0.000370306958400514,8563.893367303262
0.00038484361094874304,8833.183800326053
0.0003999509097203664,9109.875853512705
0.00041565125582259895,9394.077094146582
0.00043196792973341727,9685.887505879302
0.0004489251258218605,9985.40012292571
0.0004665479882234472,10292.700052158976
0.000484862648123908,10607.861729031689
0.000503896262506515,10930.950755341695
0.0005236770544204653,11262.02040076203
0.0005442343548300266,11601.11145112688
0.0005655986461065005,11948.252177191975
0.0005878016072274912,12303.453443658274
0.0006108761607505036,12666.711440184743
0.0006348565216305217,13038.002777896843
0.0006597782479539537,13417.282352647975
0.0006856782936641739,13804.48598093096
0.0007125950633568407,14199.52204093974
0.0007405684692262436,14602.275256372634
0.0007696399902471156,15012.6024981844
0.0007998527336796708,15430.326518848753
0.000831251498989063,15855.242610073996
0.0008638828442740447,16287.109717324965
0.000897795155303332,16725.65255758511
0.0009330387172620361,17170.56195902049
0.0009696657893145519,17621.487287851753
0.001007730682094461,18078.04246981499
0.0010472898382363582,18539.80041346257
0.0010884019160690055,19006.292360112864
0.0011311278765939214,19477.008795277263
0.001175531073878369,19951.386724813958
0.0012216773489967915,20428.81914072215
0.0012696351276599736,20908.66407689794
0.0013194755216767058,21390.246993491073
0.0013712724343984,21872.85750928144
0.0014251026703029975,22355.76829063343
0.0014810460488806749,22838.22511661123
0.0015391855229902056,23319.41036668886
0.001599607301861487,23798.410094297826
0.0016624009789266115,24274.265810291123
0.0017276596646690358,24746.01866652476
0.0017954801246878305,25212.702305994524
0.0018659629231817451,25673.31739502885
0.001939212572065829,26126.82550850923
0.0020153376859417325,26572.15956969596
0.002094451143151469,27008.23118115298
0.002176670253153458,27433.934029806147
0.002262116930469025,27848.14742564359
0.002350917875457286,28249.7512579133
0.002443204762186487,28637.62155346915
0.0025391144336803463,29010.63303379655
0.002638789104828933,29367.6654012118
0.002742376573264949,29707.605399196065
0.0028500304385181063,30029.36537964738
0.0029619103297725525,30331.881352587854
0.0030781821425650787,30614.112939239854
0.003199018284775064,30875.053434840265
0.0033245979322709396,31113.714531688103
0.003455107294592217,31328.919528596634
0.0035907398910610534,31519.341441879642
0.0037316968377327513,31683.905566208854
0.0038781871456107214,31822.49042030352
0.0040304280305680515,31935.241682843065
0.00418864523543527,32021.14111934266
0.004353073364731888,32077.668826904657
0.00452395623253805,32102.489159651625
0.004701547224022131,32094.85374559211
0.004886109671160325,32054.731190637718
0.005077917243205399,31982.12846134185
0.005277254352483535,31877.030526012008
0.005484416576121017,31739.467016560306
0.005699711094326071,31569.07291045542
0.005923457145875801,31365.280279269708
0.006155986501483508,31127.598448371537
0.006397643955748424,30855.525827794067
0.0066487878384172625,30548.687800797667
0.0069097905457156435,30206.876849425546
0.007181039092537346,29830.06079227802
0.007462935686310132,29418.348928232463
0.007755898323389004,28971.838174369652
0.00806036140886134,28490.768294981975
0.008376776400682916,27975.449901939824
0.008705612479099857,27426.207000913215
0.009047357242349292,26843.538951921746
0.00940251742967013,26227.67860956689
0.009771619672696168,25578.92088972627
0.010155211276345676,24897.974894322408
0.010553861030365234,24186.038863020593
0.010968160052731372,23444.62628308789
0.011398722666160517,22674.884616830204
0.011846187309026826,21877.857577794817
0.012311217482038896,21055.053344485827
0.012794502732078732,20208.385813706493
0.013296759674662111,19340.233373755593
0.013818733056536317,18453.041982596136
0.014361196859990781,17549.312405691253
0.014924955450518284,16632.067616420354
0.015510844769528393,15704.672497969324
0.016119733573881575,14770.945630601662
0.01675252472408214,13835.050099359305
0.017410156523040152,12901.34500672869
0.018093604107387147,11974.555074235428
0.01880388089340914,11059.766859500358
0.019542040079740527,10162.231601785423
0.02030917620904734,9287.359944102109
0.021106426791015535,8440.848188250013
0.021934973989050584,7627.9510612688155
0.02279604637318978,6853.844006003397
0.023690920741826323,6123.2019349736875
0.02462092401494623,5439.992613626807
0.02558743520168586,4808.988768444892
0.02659188744512693,4233.196622756485
0.027635770147361564,3714.350865901966
0.028720631177978267,3253.1781528450697
0.029848079169243254,2848.4423135714883
0.03101978590138095,2499.0055782241916
0.03223748878149028,2202.559174496389
0.0335029934197723,1956.181331167423
0.03481817630688963,1757.6766115170788
0.03618498759642746,1604.2205703733075
0.037605453996581675,1491.4678679371639
0.03908168177536263,1415.2475888356
0.04061585988376978,1372.0696713676152
0.04221026320156896,1356.1930557961937
0.04386725591048496,1362.7247061843614
0.0455892949998106,1386.6892013541428
0.047378933909631396,1422.4239179497317
0.049238826317067365,1462.5155908821866
0.05117173007114603,1496.1730855682315
0.05318051128214196,1512.203098763354
0.05526814857144601,1501.0775243783596
0.057437737488265785,1456.5603589954187
0.0596924950997073,1377.7848214521268
0.0620357647610427,1265.9139430577675
0.06447102107323864,1124.9203117401873
0.06700187503509585,964.4206606205619
0.06963207939763882,798.8548001155499
0.0723655342286965,644.5242140031636
0.07520629269592405,513.4169278292892
0.07815856707684081,411.1160344896481
0.08122673500479707,338.7817197393262
0.08441534596012978,296.33437761629807
0.0877291280161335,279.70317216261463
0.09117299484984914,283.94251585946444
0.09475205302806537,302.413466050381
0.09847160957933764,327.96108748904174
0.1023371798632519,350.04158132706425
0.10635449574860109,355.58363026106355
0.11052951411260206,336.2488639545792
0.1148684256737553,295.1903649868084
0.1193776641714435,242.87095886162436
0.1240639159058831,190.36581771857124
0.12893412965257148,148.74656194220327
0.13399552696593373,123.88569430921196
0.1392556128874462,114.18449091173456
0.14472218707411338,115.60029036881078
0.15040335536380234,122.28922687903555
0.15630754179458153,126.11357976075267
0.16244350109588662,120.86606771488412
0.16882033167003618,105.7688299575931
0.17544748908334581,86.79997959075803
0.1823348000868439,71.29875432265004
0.189492477187382,62.31111145493763
0.19693113379074215,59.582610301371595
0.20466179993919872,59.349204200028396
0.21269593866686892,57.42699343725592
0.22104546299710207,51.8413663283797
0.22972275360711503,44.5064823776046
0.23874067718606454,38.58860649819654
0.2481126055137766,35.24632487380714
0.25785243528842716,33.46319306047926
0.26797460873256895,31.273977457259818
0.27849413500806414,28.081168319692594
0.28942661247167484,24.823849036669397
0.3007882518043098,22.43842324164892
0.31259590004822796,20.752237278474727
0.324867065587837,19.020446270344774
0.3376199441111335,17.121319541262302
0.35087344559027084,15.425371652414121
0.36464722232127456,14.069089986969148
0.37896169806447155,12.820883953616244
0.3938380983288488,11.593894354134743
0.4092984818452433,10.496177535451858
0.4253657732750382,9.531254736800822
0.44206379720285277,8.650915938777985
0.45941731346364734,7.827319053772652
0.47745205385661277,7.098052489371791
0.4961947603002895,6.431273679206141
0.5156732244854959,5.823247575587339
0.5359163290848509,5.274427496884253
0.556954090580013,4.775258584588536
0.5788177037701272,4.32215475788287
0.6015395880274836,3.9117707541987303
0.6251534353689703,3.539489896302386
0.6496942604146115,3.201905989289665
0.6751984523072497,2.8959096893853666
0.7017038286703824,2.618652733744847
0.7292496916841444,2.367528289823423
0.7578768863625915,2.1401407556410006
0.7876278611187046,1.9342772932484873
0.8185467307069019,1.747924724986426
0.850679341636415,1.5792565036099335
0.8840733401525058,1.4266155030147547
0.9187782428863317,1.2884988884503707
0.9548455102782278,1.1635490496956076
0.9923286228832539,1.0505363668109686
1.0312831606721837,0.9483430690944981
1.0717668854455022,0.855953330840612
1.1138398264826193,0.7724442880293259
1.1575643695533022,0.6969771175198377
1.2030053494233226,0.6287887377327908
1.2502301459914542,0.5671870022424949
1.299308784200415,0.511544555851533
1.3503140378698726,0.461292874581878
1.4033215376054824,0.4159168667683319
1.4584098829439835,0.3749502098775394
1.5156607589006013,0.3379706493240491
1.575159057091621,0.30459567275416594
1.6369930016117014,0.27447884126627153
1.7012542798525885,0.24730645638747004
1.7680381784572046,0.2227945040615451
1.8374437246107238,0.20068586623977253
1.9095738328780953,0.1807478877476722
1.9845354578058014,0.16277010274978357
2.0624397525140905,0.14656215503259
2.143402233514853,0.13195190544754307
2.227542951999554,0.11878366848758207
2.314986671851158,0.10691669211970864
2.405863054644063,0.09622379244393062
2.5003068519063225,0.0865900649584753
2.598458104929248,0.07791171514853767
2.7004623524206774,0.0700950075685591
2.806470846309834,0.06305531862684066
2.916640776023701,0.05671623663514282
3.031135501567576,0.05100877087498193
3.150124795755327,0.04587064124083651
3.2737850959485697,0.04124563434511699
3.4022997656780634,0.037083014985382835
3.5358593665351745,0.03333700243514216
3.6746619407366854,0.02996629862725739
3.8189133047818515,0.026933654899300916
3.968827354637162,0.024205479845123785
4.1246263829013445,0.02175148338478502
4.286541408420921,0.019544353932143294
4.4548125188449825,0.017559472792515747
4.629689226627261,0.015774652477868602
4.811430839003257,0.014169899228792655
5.000306842491082,0.012727198441628024
5.196597302486189,0.011430320702367531
5.400593278542364,0.010264646798835528
5.612597255954967,0.009217009759830606
5.8329235942862,0.008275552070576791
6.06189899349756,0.007429596761545437
6.29986297838068,0.00666953083096194
6.547168402004727,0.005986699816444327
6.804181968927091,0.005373313852019624
7.071284778942991,0.004822362272933336
7.348872892180382,0.0043275363853132786
7.637357916378006,0.0038831597950940225
7.937167617217536,0.003484125274140753
8.248746552614573,0.0031258383164589555
8.572556731909314,0.002804166457256145
8.909078300934132,0.0025153932032061233
9.258810253973934,0.0022561765015085703
9.622271173675122,0.002023511608056383
9.999999999999984,0.0018146979937084921
