k [1/Mpc],P(k) [Mpc^3]
0.0001,381.88504407210223
0.00010392556829367125,396.8568969090516
0.00010800523745162529,412.4140966593018
0.00011224505680853065,428.579326326791
0.00011665131316981963,445.37617650230277
0.00012123054013376525,462.82913247973335
0.00012598952777950273,480.9635281234815
0.00013093533273536104,499.80561755691394
0.00013607528864243335,519.3826574939766
0.00014141701702890234,539.7229616044284
0.00014696843861124463,560.8559096137446
0.00015273778503907136,582.8119186869421
0.00015873361110102093,605.6224947540717
0.00016496480740980205,629.3203031303469
0.0001714406135851971,653.9391881315255
0.00017817063195457305,679.5142324468857
0.00018516484179121546,706.0817507658876
0.000192433614111598,733.6793219865874
0.00019998772705352857,762.3458695901218
0.0002078383818579757,792.1216486648
0.00021599721947827182,823.0483279703067
0.0002244763378413224,855.1689933482536
0.0002332883097864157,888.5281429171521
0.00024244620170823283,923.1718045470318
0.0002519635929317015,959.147490107741
0.0002618545958474233,996.5042771065486
0.0002721338768375308,1035.2928347286913
0.0002828166780230032,1075.565341000908
0.0002939188398646886,1117.3756568673386
0.0003054568246515432,1160.7792886499867
0.00031744774091091926,1205.833432478086
0.00032990936877709396,1252.5970257374308
0.00034286018635565856,1301.1305352513361
0.00035631939712285854,1351.4961807033228
0.000370306958400514,1403.7578495917203
0.00038484361094874304,1457.9810360927197
0.0003999509097203664,1514.2330548269606
0.00041565125582259895,1572.5829046229603
0.00043196792973341727,1633.1013774953524
0.0004489251258218605,1695.8609023946115
0.0004665479882234472,1760.9352459728827
0.000484862648123908,1828.3998951868784
0.000503896262506515,1898.3318799609076
0.0005236770544204653,1970.8098132157254
0.0005442343548300266,2045.9138299555464
0.0005655986461065005,2123.7250650471346
0.0005878016072274912,2204.3260609680106
0.0006108761607505036,2287.8005960796772
0.0006348565216305217,2374.233582898354
0.0006597782479539537,2463.7110785469094
0.0006856782936641739,2556.3194074836497
0.0007125950633568407,2652.145579002468
0.0007405684692262436,2751.277004210303
0.0007696399902471156,2853.8009904803166
0.0007998527336796708,2959.8051195034745
0.000831251498989063,3069.376037374968
0.0008638828442740447,3182.599675937588
0.000897795155303332,3299.5610951595336
0.0009330387172620361,3420.343250855535
0.0009696657893145519,3545.0277482074916
0.001007730682094461,3673.6931621270037
0.0010472898382363582,3806.4147496760256
0.0010884019160690055,3943.2649728605134
0.0011311278765939214,4084.3116897217797
0.001175531073878369,4229.618879293978
0.0012216773489967915,4379.244998077608
0.0012696351276599736,4533.241721416181
0.0013194755216767058,4691.655370644546
0.0013712724343984,4854.526531275611
0.0014251026703029975,5021.889575451119
0.0014810460488806749,5193.769578103664
0.0015391855229902056,5370.178514340674
0.001599607301861487,5551.118784415223
0.0016624009789266115,5736.582839998243
0.0017276596646690358,5926.552634216703
0.0017954801246878305,6120.9985729129585
0.0018659629231817451,6319.877187315512
0.001939212572065829,6523.131929531205
0.0020153376859417325,6730.691133909782
0.002094451143151469,6942.466970073304
0.002176670253153458,7158.356231757448
0.002262116930469025,7378.238531216349
0.002350917875457286,7601.976443549575
0.002443204762186487,7829.413634487994
0.0025391144336803463,8060.3728699852545
0.002638789104828933,8294.657583505817
0.002742376573264949,8532.049493358154
0.0028500304385181063,8772.308916139462
0.0029619103297725525,9015.174592386204
0.0030781821425650787,9260.361669728261
0.003199018284775064,9507.563126682535
0.0033245979322709396,9756.446982274998
0.003455107294592217,10006.656280143796
0.0035907398910610534,10257.810561132319
0.0037316968377327513,10509.502765441033
0.0038781871456107214,10761.302038144173
0.0040304280305680515,11012.752464662657
0.00418864523543527,11263.372365685105
0.004353073364731888,11512.651908515083
0.00452395623253805,11760.014266516135
0.004701547224022131,12004.838378797007
0.004886109671160325,12246.533130847387
0.005077917243205399,12484.604631714805
0.005277254352483535,12718.544333205837
0.005484416576121017,12947.5611917804
0.005699711094326071,13170.645741450562
0.005923457145875801,13386.816005715258
0.006155986501483508,13595.29017398164
0.006397643955748424,13795.326800503131
0.0066487878384172625,13986.187507622664
0.0069097905457156435,14167.141271862878
0.007181039092537346,14337.431653256155
0.007462935686310132,14496.131655187555
0.007755898323389004,14642.256550649872
0.00806036140886134,14774.803001589178
0.008376776400682916,14892.736175342927
0.008705612479099857,14995.031169614505
0.009047357242349292,15080.622789183366
0.00940251742967013,15148.444137605587
0.009771619672696168,15197.462060543485
0.010155211276345676,15226.66658160154
0.010553861030365234,15235.101818121178
0.010968160052731372,15221.726032602191
0.011398722666160517,15185.447226572114
0.011846187309026826,15125.255977593304
0.012311217482038896,15040.168237918744
0.012794502732078732,14929.316646611574
0.013296759674662111,14791.8797843638
0.013818733056536317,14627.064685293944
0.014361196859990781,14434.25892110365
0.014924955450518284,14212.916015230983
0.015510844769528393,13962.681259909748
0.016119733573881575,13683.408584798937
0.01675252472408214,13375.096209832676
0.017410156523040152,13038.059130915623
0.018093604107387147,12672.849168726483
0.01880388089340914,12280.319436512333
0.019542040079740527,11861.70675503004
0.02030917620904734,11418.59101926162
0.021106426791015535,10952.946645998021
0.021934973989050584,10467.210143289296
0.02279604637318978,9964.240596056745
0.023690920741826323,9447.253539721407
0.02462092401494623,8920.02769620692
0.02558743520168586,8386.549971108105
0.02659188744512693,7851.211226525438
0.027635770147361564,7318.869440214046
0.028720631177978267,6794.127099536849
0.029848079169243254,6282.035012895513
0.03101978590138095,5787.305848808668
0.03223748878149028,5314.386033801133
0.0335029934197723,4868.329304610298
0.03481817630688963,4452.864968768009
0.03618498759642746,4071.289406592675
0.037605453996581675,3726.1588439418615
0.03908168177536263,3418.700750456491
0.04061585988376978,3149.7744412754555
0.04221026320156896,2919.4232555573753
0.04386725591048496,2727.1240607980303
0.0455892949998106,2572.220319806587
0.047378933909631396,2453.6669895772593
0.049238826317067365,2368.185126261271
0.05117173007114603,2312.4998291458483
0.05318051128214196,2281.6932379421874
0.05526814857144601,2269.927177065748
0.057437737488265785,2270.986364526367
0.0596924950997073,2277.9052479546085
0.0620357647610427,2281.3571540655603
0.06447102107323864,2270.443219237559
0.06700187503509585,2235.0925210985984
0.06963207939763882,2167.44417085701
0.0723655342286965,2063.797071531037
0.07520629269592405,1924.95694344464
0.07815856707684081,1756.2444368781064
0.08122673500479707,1566.850538118901
0.08441534596012978,1367.4703731273698
0.0877291280161335,1172.5574783881816
0.09117299484984914,998.293217037044
0.09475205302806537,856.0092263771436
0.09847160957933764,750.8664443861423
0.1023371798632519,683.2459036166774
0.10635449574860109,650.0206998510631
0.11052951411260206,645.2847565522568
0.1148684256737553,659.8859571896837
0.1193776641714435,681.3638794605312
0.1240639159058831,695.37922042668
0.12893412965257148,687.787557242049
0.13399552696593373,648.6041244182596
0.1392556128874462,579.2873800896982
0.14472218707411338,494.0072758680944
0.15040335536380234,411.00670635637425
0.15630754179458153,344.56622975536607
0.16244350109588662,302.78829292907085
0.16882033167003618,286.61018010772455
0.17544748908334581,288.8213499996876
0.1823348000868439,297.0241925149352
0.189492477187382,297.63278808820047
0.19693113379074215,280.32490270165476
0.20466179993919872,246.4211861278509
0.21269593866686892,207.4371781917936
0.22104546299710207,176.84205998567776
0.22972275360711503,161.04311010944042
0.23874067718606454,157.1984239552413
0.2481126055137766,156.91850231692806
0.25785243528842716,150.33692371029215
0.26797460873256895,134.8238700373573
0.27849413500806414,116.43898045702807
0.28942661247167484,103.13223322751448
0.3007882518043098,96.97718305134022
0.31259590004822796,93.69277940474122
0.324867065587837,87.76583278928464
0.3376199441111335,78.44006930935159
0.35087344559027084,69.79965882918283
0.36464722232127456,64.4549131787556
0.37896169806447155,60.76903084509611
0.3938380983288488,56.01848650987415
0.4092984818452433,50.425238457294995
0.4253657732750382,45.95000448295165
0.44206379720285277,42.66145327020846
0.45941731346364734,39.23415382858649
0.47745205385661277,35.620086200869025
0.4961947603002895,32.6085722854816
0.5156732244854959,30.02344479233382
0.5359163290848509,27.42082284791693
0.556954090580013,25.03690191944655
0.5788177037701272,22.956787275059213
0.6015395880274836,20.980830806940624
0.6251534353689703,19.166424642430687
0.6496942604146115,17.512054043791384
0.6751984523072497,16.000496787097674
0.7017038286703824,14.61831267159289
0.7292496916841444,13.353509966776329
0.7578768863625915,12.195371593266737
0.7876278611187046,11.134305961230403
0.8185467307069019,10.162033845638645
0.850679341636415,9.271646610611711
0.8840733401525058,8.456774754688357
0.9187782428863317,7.711471000626168
0.9548455102782278,7.030191937136396
0.9923286228832539,6.407775718457085
1.0312831606721837,5.839339644256032
1.0717668854455022,5.320290430041251
1.1138398264826193,4.846414855868257
1.1575643695533022,4.4138538514993595
1.2030053494233226,4.019073038426724
1.2502301459914542,3.6588373990260417
1.299308784200415,3.330200672974173
1.3503140378698726,3.0304694432900408
1.4033215376054824,2.7571714312469155
1.4584098829439835,2.5080381073692157
1.5156607589006013,2.280988719775595
1.575159057091621,2.074114664201091
1.6369930016117014,1.8856630866467328
1.7012542798525885,1.7140282187662865
1.7680381784572046,1.5577407601827795
1.8374437246107238,1.415456626198808
1.9095738328780953,1.2859465900196705
1.9845354578058014,1.16808700523954
2.0624397525140905,1.06085128055333
2.143402233514853,0.9633011121515934
2.227542951999554,0.8745790218698416
2.314986671851158,0.7939016065966517
2.405863054644063,0.7205533250844962
2.5003068519063225,0.6538806049397108
2.598458104929248,0.5932866242919262
2.7004623524206774,0.5382267863429693
2.806470846309834,0.4882042819953631
2.916640776023701,0.4427659992043037
3.031135501567576,0.4014987727864818
3.150124795755327,0.36402595327826925
3.2737850959485697,0.33000425075415557
3.4022997656780634,0.29912084199534056
3.5358593665351745,0.2710907278642832
3.6746619407366854,0.24565431377702254
3.8189133047818515,0.22257518146914243
3.968827354637162,0.2016380029626504
4.1246263829013445,0.18264676453339088
4.286541408420921,0.16542310106651165
4.4548125188449825,0.14980473666021524
4.629689226627261,0.13564405996375203
4.811430839003257,0.12280683199209265
5.000306842491082,0.11117101140881094
5.196597302486189,0.10062563950302766
5.400593278542364,0.09106984669003124
5.612597255954967,0.08241195187226288
5.8329235942862,0.07456864023497646
6.06189899349756,0.0674641986292544
6.29986297838068,0.06102982967450645
6.547168402004727,0.05520305537456988
6.804181968927091,0.049927147658263615
7.071284778942991,0.045150607013927826
7.348872892180382,0.04082668737991811
7.637357916378006,0.036912960135075924
7.937167617217536,0.03337092249966266
8.248746552614573,0.030165642920839578
8.572556731909314,0.027265434350903384
8.909078300934132,0.02464155684551628
9.258810253973934,0.022267949239765793
9.622271173675122,0.02012099622686008
9.999999999999984,0.01817928940236723
