k [1/Mpc],P(k) [Mpc^3]
0.0001,219.55995010153103
0.00010392556829367125,228.1755664950222
0.00010800523745162529,237.1289850292031
0.00011224505680853065,246.43342001082442
0.00011665131316981963,256.10260057294494
0.00012123054013376525,266.15078347297066
0.00012598952777950273,276.5927641679625
0.00013093533273536104,287.4439103486973
0.00013607528864243335,298.7201970107368
0.00014141701702890234,310.4382281102783
0.00014696843861124463,322.6152475562086
0.00015273778503907136,335.26914761718825
0.00015873361110102093,348.4185072068097
0.00016496480740980205,362.0826192866649
0.0001714406135851971,376.28151683927524
0.00017817063195457305,391.03600007351673
0.00018516484179121546,406.3676390634648
0.000192433614111598,422.298816870788
0.00019998772705352857,438.8527901512294
0.0002078383818579757,456.05374515508817
0.00021599721947827182,473.92679683648146
0.0002244763378413224,492.49794603923834
0.0002332883097864157,511.7941244770731
0.00024244620170823283,531.8432849343849
0.0002519635929317015,552.6744573690503
0.0002618545958474233,574.3177719719409
0.0002721338768375308,596.8044546924237
0.0002828166780230032,620.1668528503184
0.0002939188398646886,644.4385134331624
0.0003054568246515432,669.6542067973293
0.00031744774091091926,695.8499813961243
0.00032990936877709396,723.0631838182002
0.00034286018635565856,751.3324626671191
0.00035631939712285854,780.6978653412164
0.000370306958400514,811.2008582373119
0.00038484361094874304,842.8843809008667
0.0003999509097203664,875.7928821068645
0.00041565125582259895,909.9722669109223
0.00043196792973341727,945.4700311027757
0.0004489251258218605,982.3352909535529
0.0004665479882234472,1020.6188176908287
0.000484862648123908,1060.3731192084138
0.000503896262506515,1101.6523846034315
0.0005236770544204653,1144.5125936133381
0.0005442343548300266,1189.0115217879656
0.0005655986461065005,1235.208681538143
0.0005878016072274912,1283.165508044581
0.0006108761607505036,1332.945339879763
0.0006348565216305217,1384.613484566889
0.0006597782479539537,1438.237242826766
0.0006856782936641739,1493.8857273564577
0.0007125950633568407,1551.6300969446017
0.0007405684692262436,1611.543513710724
0.0007696399902471156,1673.7011360172103
0.0007998527336796708,1738.180258628862
0.000831251498989063,1805.0601100905183
0.0008638828442740447,1874.4220152221794
0.000897795155303332,1946.3492604018293
0.0009330387172620361,2020.9268117862478
0.0009696657893145519,2098.2417062596137
0.001007730682094461,2178.382827215227
0.0010472898382363582,2261.4409625308913
0.0010884019160690055,2347.5087113175327
0.0011311278765939214,2436.6797375758624
0.001175531073878369,2529.049360831665
0.0012216773489967915,2624.7142953495827
0.0012696351276599736,2723.7724762866083
0.0013194755216767058,2826.3231835194792
0.0013712724343984,2932.4657524631375
0.0014251026703029975,3042.3001522557524
0.0014810460488806749,3155.9270478351073
0.0015391855229902056,3273.447319300654
0.001599607301861487,3394.9622780770414
0.0016624009789266115,3520.5721159881828
0.0017276596646690358,3650.37600970755
0.0017954801246878305,3784.4724052496495
0.0018659629231817451,3922.957718548577
0.001939212572065829,4065.926983158564
0.0020153376859417325,4213.472641794249
0.002094451143151469,4365.68389634428
0.002176670253153458,4522.647257228156
0.002262116930469025,4684.444752481646
0.002350917875457286,4851.154365657856
0.002443204762186487,5022.849087311061
0.0025391144336803463,5199.59526950656
0.002638789104828933,5381.453667472528
0.002742376573264949,5568.477648110686
0.0028500304385181063,5760.712985034282
0.0029619103297725525,5958.197263976326
0.0030781821425650787,6160.956887719426
0.003199018284775064,6369.008538933782
0.0033245979322709396,6582.3569736156405
0.003455107294592217,6800.993795710979
0.0035907398910610534,7024.898306278432
0.0037316968377327513,7254.0341498700955
0.0038781871456107214,7488.350161556565
0.0040304280305680515,7727.778421178168
0.00418864523543527,7972.231178073067
0.004353073364731888,8221.602952491172
0.00452395623253805,8475.765014044802
0.004701547224022131,8734.565890129086
0.004886109671160325,8997.83254653523
0.005077917243205399,9265.366689606057
0.005277254352483535,9536.946230969821
0.005484416576121017,9812.308936394596
0.005699711094326071,10091.148221232983
0.005923457145875801,10373.135406615425
0.006155986501483508,10657.956550750601
0.006397643955748424,10945.288852694706
0.0066487878384172625,11234.712013023567
0.0069097905457156435,11525.636800816123
0.007181039092537346,11817.424773188019
0.007462935686310132,12109.508979176093
0.007755898323389004,12401.363550453605
0.00806036140886134,12692.389175258897
0.008376776400682916,12981.799890462124
0.008705612479099857,13268.738585688981
0.009047357242349292,13552.373238824463
0.00940251742967013,13831.909566556298
0.009771619672696168,14106.505660848716
0.010155211276345676,14375.153404991768
0.010553861030365234,14636.760504244196
0.010968160052731372,14890.166674991682
0.011398722666160517,15134.118262963539
0.011846187309026826,15367.324045594303
0.012311217482038896,15588.439106703745
0.012794502732078732,15796.083201276273
0.013296759674662111,15988.828686530087
0.013818733056536317,16165.124545638271
0.014361196859990781,16323.39947305439
0.014924955450518284,16462.017090754693
0.015510844769528393,16579.285006887338
0.016119733573881575,16673.52883124071
0.01675252472408214,16742.999671056
0.017410156523040152,16785.98312070246
0.018093604107387147,16800.790565679003
0.01880388089340914,16785.724195755127
0.019542040079740527,16739.218225742286
0.02030917620904734,16659.754264564664
0.021106426791015535,16545.95084214153
0.021934973989050584,16396.636326966705
0.02279604637318978,16210.794554827535
0.023690920741826323,15987.70828398624
0.02462092401494623,15726.965797414996
0.02558743520168586,15428.491476821171
0.02659188744512693,15092.634845769335
0.027635770147361564,14720.244193816228
0.028720631177978267,14312.626025475935
0.029848079169243254,13871.667044998223
0.03101978590138095,13399.901854219082
0.03223748878149028,12900.292636759174
0.0335029934197723,12376.683667252926
0.03481817630688963,11833.404630700777
0.03618498759642746,11275.156677728115
0.037605453996581675,10707.48121512253
0.03908168177536263,10135.800118966548
0.04061585988376978,9566.461780745676
0.04221026320156896,9006.29326890722
0.04386725591048496,8461.182614302257
0.0455892949998106,7936.591192679212
0.047378933909631396,7436.99091034671
0.049238826317067365,6967.630351406908
0.05117173007114603,6535.311814828669
0.05318051128214196,6144.9216756560045
0.05526814857144601,5798.616806509912
0.057437737488265785,5497.172016083903
0.0596924950997073,5239.983494819633
0.0620357647610427,5025.646572158611
0.06447102107323864,4851.390323072062
0.06700187503509585,4713.343907623141
0.06963207939763882,4607.004276763551
0.0723655342286965,4527.026911302788
0.07520629269592405,4464.716548583779
0.07815856707684081,4409.306255162039
0.08122673500479707,4348.115037567462
0.08441534596012978,4268.242756326648
0.0877291280161335,4157.855690218813
0.09117299484984914,4008.3808188034354
0.09475205302806537,3815.8085751533436
0.09847160957933764,3581.2032619571683
0.1023371798632519,3310.786044580078
0.10635449574860109,3015.6080058305233
0.11052951411260206,2711.1148215621215
0.1148684256737553,2415.508940544164
0.1193776641714435,2147.785673515252
0.1240639159058831,1923.6807866827291
0.12893412965257148,1752.581543664651
0.13399552696593373,1636.6549624086963
0.1392556128874462,1571.283558327674
0.14472218707411338,1545.9476809366447
0.15040335536380234,1544.7094856510162
0.15630754179458153,1547.048044309066
0.16244350109588662,1530.5635085213073
0.16882033167003618,1476.1392041138852
0.17544748908334581,1374.9752530189535
0.1823348000868439,1234.8120724819767
0.189492477187382,1078.9954919429106
0.19693113379074215,935.6020551213394
0.20466179993919872,825.6841932753103
0.21269593866686892,759.3026384133218
0.22104546299710207,734.1820790939124
0.22972275360711503,734.1526746882203
0.23874067718606454,733.7654502528577
0.2481126055137766,709.5726479657748
0.25785243528842716,651.5509769951594
0.26797460873256895,570.9718159987386
0.27849413500806414,493.51407978302336
0.28942661247167484,440.85648798190766
0.3007882518043098,418.2339050580218
0.31259590004822796,413.2702032707465
0.324867065587837,404.20760721587635
0.3376199441111335,375.1056859935739
0.35087344559027084,330.76203628606805
0.36464722232127456,290.3717836461375
0.37896169806447155,267.6730591051744
0.3938380983288488,258.81940787662575
0.4092984818452433,248.41416785434959
0.4253657732750382,226.71270915236101
0.44206379720285277,200.83910890223495
0.45941731346364734,183.0190085463354
0.47745205385661277,173.85821493804545
0.4961947603002895,163.71325090896957
0.5156732244854959,148.16972863128692
0.5359163290848509,133.73311462743376
0.556954090580013,124.71701669904581
0.5788177037701272,116.5804319695686
0.6015395880274836,106.0580150854151
0.6251534353689703,96.68886490194464
0.6496942604146115,89.87784484539375
0.6751984523072497,82.72819168328421
0.7017038286703824,75.41196276733221
0.7292496916841444,69.47421183228319
0.7578768863625915,63.94354824237627
0.7876278611187046,58.71373383898718
0.8185467307069019,53.82412073458733
0.850679341636415,49.29840582158286
0.8840733401525058,45.14724745680309
0.9187782428863317,41.35986098852782
0.9548455102782278,37.89920221942086
0.9923286228832539,34.73001638113127
1.0312831606721837,31.8217858028103
1.0717668854455022,29.148047303588434
1.1138398264826193,26.686128605501736
1.1575643695533022,24.41969406093933
1.2030053494233226,22.335794876091363
1.2502301459914542,20.421982276114036
1.299308784200415,18.666307002173706
1.3503140378698726,17.057354395091966
1.4033215376054824,15.583991371566041
1.4584098829439835,14.23501046036384
1.5156607589006013,12.999992863628057
1.575159057091621,11.869401902328976
1.6369930016117014,10.834506184981999
1.7012542798525885,9.887315843918184
1.7680381784572046,9.020612593192398
1.8374437246107238,8.227835952772386
1.9095738328780953,7.502931131292313
1.9845354578058014,6.840310481024792
2.0624397525140905,6.23482062061428
2.143402233514853,5.681704956392576
2.227542951999554,5.176559474415562
2.314986671851158,4.715332207653115
2.405863054644063,4.294302960622097
2.5003068519063225,3.9100571411392018
2.598458104929248,3.5594616735606186
2.7004623524206774,3.239645523873347
2.806470846309834,2.9479781027723213
2.916640776023701,2.6820462387876915
3.031135501567576,2.4396367955389766
3.150124795755327,2.218720799352819
3.2737850959485697,2.017438395046071
3.4022997656780634,1.8340839438174423
3.5358593665351745,1.6670953497888517
3.6746619407366854,1.5150430708766829
3.8189133047818515,1.37661922800117
3.968827354637162,1.2506275745932183
4.1246263829013445,1.1359743214791833
4.286541408420921,1.0316596372988147
4.4548125188449825,0.9367697196508231
4.629689226627261,0.8504696039845744
4.811430839003257,0.7719965598676054
5.000306842491082,0.7006540004508376
5.196597302486189,0.6358057905869989
5.400593278542364,0.5768712544231291
5.612597255954967,0.5233205381152808
5.8329235942862,0.47467027459204786
6.06189899349756,0.4304796064138557
6.29986297838068,0.39034653604127134
6.547168402004727,0.35390458112964607
6.804181968927091,0.32081971639852247
7.071284778942991,0.2907875664201636
7.348872892180382,0.2635308337485333
7.637357916378006,0.23879693436006247
7.937167617217536,0.21635575803518897
8.248746552614573,0.19599777373103766
8.572556731909314,0.177532290644166
8.909078300934132,0.16078579629794473
9.258810253973934,0.14560043726503427
9.622271173675122,0.13183268871610945
9.999999999999984,0.11935215125363673
