k [1/Mpc],P(k) [Mpc^3]
0.0001,217.6330056163243
0.00010392556829367125,227.48310699333965
0.00010800523745162529,237.77876648640472
0.00011224505680853065,248.5400868350162
0.00011665131316981963,259.78806437601554
0.00012123054013376525,271.54465392380183
0.00012598952777950273,283.8328255627967
0.00013093533273536104,296.6765845195269
0.00013607528864243335,310.1009851292917
0.00014141701702890234,324.13218738956965
0.00014696843861124463,338.7975267630101
0.00015273778503907136,354.12557474208404
0.00015873361110102093,370.14618497970696
0.00016496480740980205,386.8905338130517
0.0001714406135851971,404.3911776411336
0.00017817063195457305,422.68212303201136
0.00018516484179121546,441.7988775983139
0.000192433614111598,461.77852545388674
0.00019998772705352857,482.6598073036284
0.0002078383818579757,504.4831977333508
0.00021599721947827182,527.2909665248782
0.0002244763378413224,551.1271981333086
0.0002332883097864157,576.0378922930337
0.00024244620170823283,602.0710859533756
0.0002519635929317015,629.2769573577666
0.0002618545958474233,657.7078977337508
0.0002721338768375308,687.4185257091675
0.0002828166780230032,718.4657809021115
0.0002939188398646886,750.909089733686
0.0003054568246515432,784.8104950372099
0.00031744774091091926,820.2347492622965
0.00032990936877709396,857.2493372419591
0.00034286018635565856,895.9245390523021
0.00035631939712285854,936.333643731079
0.000370306958400514,978.5530607185161
0.00038484361094874304,1022.6624562192958
0.0003999509097203664,1068.7448390655288
0.00041565125582259895,1116.8866047741844
0.00043196792973341727,1167.177766458907
0.0004489251258218605,1219.7120183530392
0.0004665479882234472,1274.586883898319
0.000484862648123908,1331.903896282952
0.000503896262506515,1391.7686146949059
0.0005236770544204653,1454.2908796434285
0.0005442343548300266,1519.5849042423458
0.0005655986461065005,1587.7693795180844
0.0005878016072274912,1658.967730150758
0.0006108761607505036,1733.3080920265204
0.0006348565216305217,1810.9235687376322
0.0006597782479539537,1891.9523397568994
0.0006856782936641739,1976.5376123072133
0.0007125950633568407,2064.8280322567525
0.0007405684692262436,2156.9777173159277
0.0007696399902471156,2253.1464463639404
0.0007998527336796708,2353.4998237093473
0.000831251498989063,2458.2090308246466
0.0008638828442740447,2567.451310719145
0.000897795155303332,2681.409911876556
0.0009330387172620361,2800.274102037945
0.0009696657893145519,2924.2395498128813
0.001007730682094461,3053.5077532901564
0.0010472898382363582,3188.286525344134
0.0010884019160690055,3328.7901126280344
0.0011311278765939214,3475.2389079380964
0.001175531073878369,3627.8599351911175
0.0012216773489967915,3786.88569524954
0.0012696351276599736,3952.5543964050607
0.0013194755216767058,4125.110484113047
0.0013712724343984,4304.803706972951
0.0014251026703029975,4491.889839461051
0.0014810460488806749,4686.629720831089
0.0015391855229902056,4889.288768301051
0.001599607301861487,5100.137704623045
0.0016624009789266115,5319.450905616962
0.0017276596646690358,5547.506998720047
0.0017954801246878305,5784.587925901262
0.0018659629231817451,6030.977178288133
0.001939212572065829,6286.961143500957
0.0020153376859417325,6552.826822047359
0.002094451143151469,6828.861748000048
0.002176670253153458,7115.35386441959
0.002262116930469025,7412.588770546451
0.002350917875457286,7720.8507963170105
0.002443204762186487,8040.420385398894
0.0025391144336803463,8371.572626116387
0.002638789104828933,8714.577902580864
0.002742376573264949,9069.69797113163
0.0028500304385181063,9437.186551108025
0.0029619103297725525,9817.287624299719
0.0030781821425650787,10210.232571795135
0.003199018284775064,10616.240654817562
0.0033245979322709396,11035.513766600787
0.003455107294592217,11468.235899300755
0.0035907398910610534,11914.572597580755
0.0037316968377327513,12374.666512492835
0.0038781871456107214,12848.637919580637
0.0040304280305680515,13336.578899879327
0.00418864523543527,13838.55056560117
0.004353073364731888,14354.58315294835
0.00452395623253805,14884.665714770628
0.004701547224022131,15428.749052271347
0.004886109671160325,15986.744637958842
0.005077917243205399,16558.520884215064
0.005277254352483535,17143.899533486412
0.005484416576121017,17742.621510401274
0.005699711094326071,18354.354602126296
0.005923457145875801,18978.739438260385
0.006155986501483508,19615.44922152145
0.006397643955748424,20264.116220889326
0.0066487878384172625,20924.1244048448
0.0069097905457156435,21594.5915929829
0.007181039092537346,22274.57987182013
0.007462935686310132,22963.318325831835
0.007755898323389004,23660.047720392296
0.00806036140886134,24363.79610618341
0.008376776400682916,25073.27464074038
0.008705612479099857,25787.09021334281
0.009047357242349292,26503.944467691013
0.00940251742967013,27222.56211264432
0.009771619672696168,27941.51037590421
0.010155211276345676,28659.049951554232
0.010553861030365234,29373.302467546928
0.010968160052731372,30082.23520371954
0.011398722666160517,30783.666716752887
0.011846187309026826,31475.315753266987
0.012311217482038896,32154.814588498364
0.012794502732078732,32819.71150405513
0.013296759674662111,33467.401654510766
0.013818733056536317,34095.09732817446
0.014361196859990781,34699.926234511346
0.014924955450518284,35278.8792736806
0.015510844769528393,35828.86479044815
0.016119733573881575,36346.73077527805
0.01675252472408214,36829.23414211001
0.017410156523040152,37273.129133459166
0.018093604107387147,37675.15408605942
0.01880388089340914,38032.066585120585
0.019542040079740527,38340.71157203667
0.02030917620904734,38598.04742913838
0.021106426791015535,38801.18473964455
0.021934973989050584,38947.482684648974
0.02279604637318978,39034.60255354126
0.023690920741826323,39060.496608885245
0.02462092401494623,39023.65931750717
0.02558743520168586,38923.00719879277
0.02659188744512693,38758.02152800328
0.027635770147361564,38529.04601755755
0.028720631177978267,38236.870302130796
0.029848079169243254,37883.30857706675
0.03101978590138095,37470.97960774486
0.03223748878149028,37003.10532713576
0.0335029934197723,36484.42476992437
0.03481817630688963,35920.08014454105
0.03618498759642746,35315.92630282958
0.037605453996581675,34678.57704845708
0.03908168177536263,34014.84585485634
0.04061585988376978,33333.69107008998
0.04221026320156896,32644.509157112872
0.04386725591048496,31954.241915275124
0.0455892949998106,31265.724325861607
0.047378933909631396,30581.744689756713
0.049238826317067365,29912.286639108457
0.05117173007114603,29271.53007968831
0.05318051128214196,28668.063478324595
0.05526814857144601,28094.32941515872
0.057437737488265785,27540.06476367083
0.0596924950997073,26996.59219864258
0.0620357647610427,26456.54011089299
0.06447102107323864,25911.697172635057
0.06700187503509585,25352.216473323853
0.06963207939763882,24769.55132612117
0.0723655342286965,24157.213955790638
0.07520629269592405,23504.623965306615
0.07815856707684081,22794.68944730236
0.08122673500479707,22018.238595597944
0.08441534596012978,21175.67680521452
0.0877291280161335,20279.407351174366
0.09117299484984914,19350.71658069125
0.09475205302806537,18418.281266824793
0.09847160957933764,17509.537266673397
0.1023371798632519,16647.55364862536
0.10635449574860109,15850.312361695958
0.11052951411260206,15131.69288631843
0.1148684256737553,14498.997062357439
0.1193776641714435,13948.816715282153
0.1240639159058831,13462.271185932948
0.12893412965257148,13006.082578357635
0.13399552696593373,12542.706351946685
0.1392556128874462,12040.259149965394
0.14472218707411338,11482.051272078994
0.15040335536380234,10872.284201386627
0.15630754179458153,10235.182819831862
0.16244350109588662,9604.763812192012
0.16882033167003618,9013.50564168625
0.17544748908334581,8488.46278359236
0.1823348000868439,8045.301035047266
0.189492477187382,7672.811405340137
0.19693113379074215,7332.7624938458
0.20466179993919872,6986.772144850915
0.21269593866686892,6614.294154724171
0.22104546299710207,6213.151965064661
0.22972275360711503,5806.387108155971
0.23874067718606454,5428.4927483517795
0.2481126055137766,5098.587021420594
0.25785243528842716,4814.951489923433
0.26797460873256895,4555.286997336822
0.27849413500806414,4295.430140569065
0.28942661247167484,4026.228787137616
0.3007882518043098,3758.0212840895174
0.31259590004822796,3511.854019738346
0.324867065587837,3292.8985677570226
0.3376199441111335,3093.0355073442806
0.35087344559027084,2898.7375893900007
0.36464722232127456,2706.5569695162535
0.37896169806447155,2524.262362909284
0.3938380983288488,2357.7241481147707
0.4092984818452433,2203.9281574700613
0.4253657732750382,2056.8518087588754
0.44206379720285277,1916.313725076465
0.45941731346364734,1785.1494279351482
0.47745205385661277,1663.531562569858
0.4961947603002895,1548.9963829252854
0.5156732244854959,1440.8656805813102
0.5359163290848509,1340.0098544473578
0.556954090580013,1245.876329694312
0.5788177037701272,1157.5228092163777
0.6015395880274836,1074.9232836163337
0.6251534353689703,997.8871643214783
0.6496942604146115,925.8861461680891
0.6751984523072497,858.6775764682793
0.7017038286703824,796.0077377548076
0.7292496916841444,737.5989709025808
0.7578768863625915,683.2060238731518
0.7876278611187046,632.5616898412752
0.8185467307069019,585.438184425565
0.850679341636415,541.6129269327428
0.8840733401525058,500.87498160619043
0.9187782428863317,463.0250905200985
0.9548455102782278,427.87518927197044
0.9923286228832539,395.2479526145036
1.0312831606721837,364.97656436093564
1.0717668854455022,336.90406322074773
1.1138398264826193,310.8826880323732
1.1575643695533022,286.7734536132029
1.2030053494233226,264.44573830876254
1.2502301459914542,243.7768316664202
1.299308784200415,224.65134086008456
1.3503140378698726,206.96106396515418
1.4033215376054824,190.60471665973054
1.4584098829439835,175.48755182971306
1.5156607589006013,161.52099428503806
1.575159057091621,148.62228453260386
1.6369930016117014,136.71413454563688
1.7012542798525885,125.72442712548595
1.7680381784572046,115.58591301725828
1.8374437246107238,106.23591836197619
1.9095738328780953,97.61606605396985
1.9845354578058014,89.67198921150316
2.0624397525140905,82.35307550268796
2.143402233514853,75.61227053658313
2.227542951999554,69.40585302216762
2.314986671851158,63.69321842721343
2.405863054644063,58.43667386729097
2.5003068519063225,53.60122830571672
2.598458104929248,49.15441989590175
2.7004623524206774,45.06616503875237
2.806470846309834,41.30859653864687
2.916640776023701,37.85591097805789
3.031135501567576,34.68422501844374
3.150124795755327,31.771437179590446
3.2737850959485697,29.09710641790818
3.4022997656780634,26.642337446861784
3.5358593665351745,24.389670405641365
3.6746619407366854,22.32297776501466
3.8189133047818515,20.427366824602196
3.968827354637162,18.689086316886367
4.1246263829013445,17.095448249257984
4.286541408420921,15.634751253384396
4.4548125188449825,14.296207399106256
4.629689226627261,13.069874098802686
4.811430839003257,11.946589455496401
5.000306842491082,10.917912236633976
5.196597302486189,9.976070689814803
5.400593278542364,9.113912013732019
5.612597255954967,8.324854951751863
5.8329235942862,7.602845835783916
6.06189899349756,6.942317788747372
6.29986297838068,6.338152991403671
6.547168402004727,5.785647826206958
6.804181968927091,5.280480520999384
7.071284778942991,4.818681202672642
7.348872892180382,4.396604027887547
7.637357916378006,4.010899499357761
7.937167617217536,3.6584922845979424
8.248746552614573,3.3365612955029262
8.572556731909314,3.0425192615938474
8.909078300934132,2.773993847626395
9.258810253973934,2.5288107527823462
9.622271173675122,2.3049801922121462
9.999999999999984,2.1006790689178803
