k [1/Mpc],P(k) [Mpc^3]
0.0001,928.9017763428612
0.00010392556829367125,965.3429738780197
0.00010800523745162529,1003.2118168009924
0.00011224505680853065,1042.5640034133667
0.00011665131316981963,1083.4573879882753
0.00012123054013376525,1125.9520391908586
0.00012598952777950273,1170.110328842458
0.00013093533273536104,1215.997026031267
0.00013607528864243335,1263.6793602366045
0.00014141701702890234,1313.2271381746143
0.00014696843861124463,1364.712815035095
0.00015273778503907136,1418.2115831157953
0.00015873361110102093,1473.8015043884611
0.00016496480740980205,1531.5635893516746
0.0001714406135851971,1591.5819237270243
0.00017817063195457305,1653.9437386514787
0.00018516484179121546,1718.7394617719492
0.000192433614111598,1786.062920709829
0.00019998772705352857,1856.0114382271574
0.0002078383818579757,1928.685968036833
0.00021599721947827182,2004.191212558525
0.0002244763378413224,2082.6356513463243
0.0002332883097864157,2164.131767224568
0.00024244620170823283,2248.7960814385237
0.0002519635929317015,2336.7492585289815
0.0002618545958474233,2428.1163525990382
0.0002721338768375308,2523.0267970939826
0.0002828166780230032,2621.6146506870987
0.0002939188398646886,2724.0186823030213
0.0003054568246515432,2830.3823829069233
0.00031744774091091926,2940.8542979000717
0.00032990936877709396,3055.5878851513266
0.00034286018635565856,3174.7417501454383
0.00035631939712285854,3298.4799250471547
0.000370306958400514,3426.971825544455
0.00038484361094874304,3560.3925889729353
0.0003999509097203664,3698.92280877526
0.00041565125582259895,3842.748580468224
0.00043196792973341727,3992.0620325655173
0.0004489251258218605,4147.061104923654
0.0004665479882234472,4307.949938138536
0.000484862648123908,4474.938748271324
0.000503896262506515,4648.243554060494
0.0005236770544204653,4828.086858439825
0.0005442343548300266,5014.697158381775
0.0005655986461065005,5208.30925009324
0.0005878016072274912,5409.16444330823
0.0006108761607505036,5617.5099600705225
0.0006348565216305217,5833.599656873389
0.0006597782479539537,6057.693407341173
0.0006856782936641739,6290.057006593568
0.0007125950633568407,6530.962716967435
0.0007405684692262436,6780.687987965145
0.0007696399902471156,7039.516281719445
0.0007998527336796708,7307.736658598751
0.000831251498989063,7585.642954809422
0.0008638828442740447,7873.534695793914
0.000897795155303332,8171.714989784641
0.0009330387172620361,8480.491015779005
0.0009696657893145519,8800.17394943228
0.001007730682094461,9131.07642220848
0.0010472898382363582,9473.514384368158
0.0010884019160690055,9827.804820644833
0.0011311278765939214,10194.265038527294
0.001175531073878369,10573.213390682593
0.0012216773489967915,10964.964456396905
0.0012696351276599736,11369.831274566257
0.0013194755216767058,11788.12391000365
0.0013712724343984,12220.146897770619
0.0014251026703029975,12666.201060462547
0.0014810460488806749,13126.579308722025
0.0015391855229902056,13601.566902326651
0.001599607301861487,14091.439548873883
0.0016624009789266115,14596.456723409012
0.0017276596646690358,15116.86584750952
0.0017954801246878305,15652.898035146862
0.0018659629231817451,16204.766347962293
0.001939212572065829,16772.666411524104
0.0020153376859417325,17356.769408764594
0.002094451143151469,17957.224111619027
0.002176670253153458,18574.15261972802
0.002262116930469025,19207.645431125882
0.002350917875457286,19857.764384292026
0.002443204762186487,20524.536228576315
0.0025391144336803463,21207.952389366816
0.002638789104828933,21907.96553352654
0.002742376573264949,22624.480420911743
0.0028500304385181063,23357.35883910861
0.0029619103297725525,24106.414355333633
0.0030781821425650787,24871.40992429323
0.003199018284775064,25652.056735789363
0.0033245979322709396,26448.002637659894
0.003455107294592217,27258.836607368314
0.0035907398910610534,28084.08566578182
0.0037316968377327513,28923.210322481977
0.0038781871456107214,29775.605827901396
0.0040304280305680515,30640.589681446752
0.00418864523543527,31517.404408601953
0.004353073364731888,32405.22555123316
0.00452395623253805,33303.167033388294
0.004701547224022131,34210.26824480261
0.004886109671160325,35125.42688363342
0.005077917243205399,36047.400949756084
0.005277254352483535,36974.92008834134
0.005484416576121017,37906.904304327094
0.005699711094326071,38842.285124042945
0.005923457145875801,39779.527429715694
0.006155986501483508,40716.41806592775
0.006397643955748424,41650.64713316429
0.0066487878384172625,42580.46897400079
0.0069097905457156435,43504.405118051865
0.007181039092537346,44420.677700043874
0.007462935686310132,45326.82447754143
0.007755898323389004,46220.22235509968
0.00806036140886134,47098.649901657875
0.008376776400682916,47960.23627079093
0.008705612479099857,48802.97923104157
0.009047357242349292,49624.33969332202
0.00940251742967013,50421.596231652016
0.009771619672696168,51191.958838860395
0.010155211276345676,51932.57133888432
0.010553861030365234,52640.561004936295
0.010968160052731372,53313.124360329675
0.011398722666160517,53947.501368892095
0.011846187309026826,54540.91035468164
0.012311217482038896,55090.50521830805
0.012794502732078732,55593.46947595678
0.013296759674662111,56046.96906946239
0.013818733056536317,56448.18796630091
0.014361196859990781,56794.40016030955
0.014924955450518284,57082.96859367708
0.015510844769528393,57311.388503622366
0.016119733573881575,57477.3080235563
0.01675252472408214,57578.54719835448
0.017410156523040152,57613.129766081765
0.018093604107387147,57579.31130542823
0.01880388089340914,57475.59471692478
0.019542040079740527,57300.80225630491
0.02030917620904734,57054.15459376762
0.021106426791015535,56735.19352735052
0.021934973989050584,56343.962977471085
0.02279604637318978,55880.955380699845
0.023690920741826323,55347.08023655878
0.02462092401494623,54743.94365055754
0.02558743520168586,54073.53285354305
0.02659188744512693,53338.481465828714
0.027635770147361564,52542.101694906865
0.028720631177978267,51688.013112222645
0.029848079169243254,50780.63304073515
0.03101978590138095,49824.712417083
0.03223748878149028,48825.31027317091
0.0335029934197723,47788.011319731486
0.03481817630688963,46718.3812977178
0.03618498759642746,45622.25789660125
0.037605453996581675,44505.53615835547
0.03908168177536263,43373.64598383558
0.04061585988376978,42231.11028869373
0.04221026320156896,41082.09364032846
0.04386725591048496,39930.928134426686
0.0455892949998106,38782.10174071589
0.047378933909631396,37639.25536426535
0.049238826317067365,36502.60957186999
0.05117173007114603,35371.295004467815
0.05318051128214196,34242.83862605895
0.05526814857144601,33111.85556318775
0.057437737488265785,31973.9483732328
0.0596924950997073,30830.51606095495
0.0620357647610427,29686.21987827213
0.06447102107323864,28544.585439687246
0.06700187503509585,27406.159598128947
0.06963207939763882,26271.31257423945
0.0723655342286965,25142.3570965612
0.07520629269592405,24022.918071388565
0.07815856707684081,22920.723305911637
0.08122673500479707,21848.839359011065
0.08441534596012978,20816.172409577262
0.0877291280161335,19825.395770764597
0.09117299484984914,18877.12474325756
0.09475205302806537,17970.35160903097
0.09847160957933764,17104.83327636244
0.1023371798632519,16279.941411396914
0.10635449574860109,15489.10610543669
0.11052951411260206,14722.372034713648
0.1148684256737553,13968.449748943214
0.1193776641714435,13223.212086911351
0.1240639159058831,12488.486608301675
0.12893412965257148,11770.757257209118
0.13399552696593373,11080.324064422304
0.1392556128874462,10428.451473596808
0.14472218707411338,9818.582773982756
0.15040335536380234,9243.935420737145
0.15630754179458153,8700.460200595318
0.16244350109588662,8187.7787034405865
0.16882033167003618,7700.579734847469
0.17544748908334581,7227.876657651878
0.1823348000868439,6772.348353882723
0.189492477187382,6340.764129802576
0.19693113379074215,5931.676828191066
0.20466179993919872,5547.3378677351075
0.21269593866686892,5188.756629457651
0.22104546299710207,4849.90503821688
0.22972275360711503,4528.656335929692
0.23874067718606454,4224.831803417524
0.2481126055137766,3938.3262601242604
0.25785243528842716,3669.3004376358626
0.26797460873256895,3416.8866146280193
0.27849413500806414,3180.3692252990004
0.28942661247167484,2957.8962411895423
0.3007882518043098,2749.2904516119725
0.31259590004822796,2553.8235326473673
0.324867065587837,2371.0935863923846
0.3376199441111335,2200.0297832966103
0.35087344559027084,2040.2685674519064
0.36464722232127456,1890.8952383845815
0.37896169806447155,1751.6043156723058
0.3938380983288488,1621.6867927096641
0.4092984818452433,1500.5796676020768
0.4253657732750382,1387.8363381899565
0.44206379720285277,1282.9454987287547
0.45941731346364734,1185.4088674756065
0.47745205385661277,1094.7777364018323
0.4961947603002895,1010.6329592140589
0.5156732244854959,932.5544976105881
0.5359163290848509,860.1312915485253
0.556954090580013,792.9811749719587
0.5788177037701272,730.746139171222
0.6015395880274836,673.0924404372092
0.6251534353689703,619.7176016707972
0.6496942604146115,570.3189377036834
0.6751984523072497,524.6493857801019
0.7017038286703824,482.4521959648218
0.7292496916841444,443.4842705032733
0.7578768863625915,407.52095238474215
0.7876278611187046,374.3471014202679
0.8185467307069019,343.7425320123609
0.850679341636415,315.5228421921929
0.8840733401525058,289.5077622225362
0.9187782428863317,265.54253521292145
0.9548455102782278,243.48324770083227
0.9923286228832539,223.18500088919072
1.0312831606721837,204.51411203686385
1.0717668854455022,187.34641738398028
1.1138398264826193,171.5666285298813
1.1575643695533022,157.0677533907693
1.2030053494233226,143.7505694296995
1.2502301459914542,131.52323709690876
1.299308784200415,120.3006813590937
1.3503140378698726,110.00405067492181
1.4033215376054824,100.56030244606399
1.4584098829439835,91.90181273164548
1.5156607589006013,83.966000716297
1.575159057091621,76.6949539207901
1.6369930016117014,70.03514270900061
1.7012542798525885,63.937127680024616
1.7680381784572046,58.355269050621146
1.8374437246107238,53.24745454051876
1.9095738328780953,48.57484536188808
1.9845354578058014,44.30163931852713
2.0624397525140905,40.39484645989966
2.143402233514853,36.82408127768746
2.227542951999554,33.56136937379595
2.314986671851158,30.580967189784566
2.405863054644063,27.859177562669824
2.5003068519063225,25.374180299269437
2.598458104929248,23.105929501429667
2.7004623524206774,21.03602099333658
2.806470846309834,19.14756326569408
2.916640776023701,17.425058239900114
3.031135501567576,15.85430178801392
3.150124795755327,14.422282589852434
3.2737850959485697,13.117067780964316
3.4022997656780634,11.927716012863398
3.5358593665351745,10.844198738330473
3.6746619407366854,9.85732690742618
3.8189133047818515,8.958672873473388
3.968827354637162,8.140512309775326
4.1246263829013445,7.3957805820497375
4.286541408420921,6.718018611039739
4.4548125188449825,6.101322386716966
4.629689226627261,5.540296925513098
4.811430839003257,5.03001796754104
5.000306842491082,4.565989476606976
5.196597302486189,4.144103604257821
5.400593278542364,3.7606081681534054
5.612597255954967,3.412076833462377
5.8329235942862,3.095381342053409
6.06189899349756,2.8076640377527826
6.29986297838068,2.546317177110745
6.547168402004727,2.308963146024045
6.804181968927091,2.0934346233036214
7.071284778942991,1.8977563964348987
7.348872892180382,1.7201286796740693
7.637357916378006,1.5589117640775492
7.937167617217536,1.412612209512266
8.248746552614573,1.279870119251068
8.572556731909314,1.1594474406279947
8.909078300934132,1.050217266229417
9.258810253973934,0.9511543673521339
9.622271173675122,0.8613268385360208
9.999999999999984,0.7798867572223113
