k [1/Mpc],P(k) [Mpc^3]
0.0001,2865.4198265010327
0.00010392556829367125,2968.8609997472527
0.00010800523745162529,3075.999288151362
0.00011224505680853065,3186.962654856752
0.00011665131316981963,3301.882959408403
0.00012123054013376525,3420.8956389989403
0.00012598952777950273,3544.140294773894
0.00013093533273536104,3671.7607224904013
0.00013607528864243335,3803.905034749218
0.00014141701702890234,3940.7256762450293
0.00014696843861124463,4082.378804138248
0.00015273778503907136,4229.024944432354
0.00015873361110102093,4380.8287690478255
0.00016496480740980205,4537.958952424946
0.0001714406135851971,4700.588717848823
0.00017817063195457305,4868.8952621058515
0.00018516484179121546,5043.06016892809
0.000192433614111598,5223.268872145705
0.00019998772705352857,5409.70959690743
0.0002078383818579757,5602.57474049018
0.00021599721947827182,5802.060317068869
0.0002244763378413224,6008.366101620809
0.0002332883097864157,6221.695392263725
0.00024244620170823283,6442.25309562815
0.0002519635929317015,6670.247267570857
0.0002618545958474233,6905.888076436981
0.0002721338768375308,7149.387330998165
0.0002828166780230032,7400.959206174443
0.0002939188398646886,7660.817679359923
0.0003054568246515432,7929.177777860266
0.00031744774091091926,8206.255086064282
0.00032990936877709396,8492.264393387108
0.00034286018635565856,8787.420651227289
0.00035631939712285854,9091.935276525084
0.000370306958400514,9406.016805237196
0.00038484361094874304,9729.871757111054
0.0003999509097203664,10063.702788460394
0.00041565125582259895,10407.70935647324
0.00043196792973341727,10762.08396249783
0.0004489251258218605,11127.011224124157
0.0004665479882234472,11502.66936629971
0.000484862648123908,11889.226641822504
0.000503896262506515,12286.84252277873
0.0005236770544204653,12695.664918882485
0.0005442343548300266,13115.8273874698
0.0005655986461065005,13547.450912880595
0.0005878016072274912,13990.63708034462
0.0006108761607505036,14445.469483951505
0.0006348565216305217,14912.011918716535
0.0006597782479539537,15390.30138944227
0.0006856782936641739,15880.352804421249
0.0007125950633568407,16382.149863246892
0.0007405684692262436,16895.644243076506
0.0007696399902471156,17420.757489294243
0.0007998527336796708,17957.36935946467
0.000831251498989063,18505.324222403862
0.0008638828442740447,19064.424076354826
0.000897795155303332,19634.42342633382
0.0009330387172620361,20215.0357460499
0.0009696657893145519,20805.926937267366
0.001007730682094461,21406.716558270167
0.0010472898382363582,22016.9724973145
0.0010884019160690055,22636.202176226387
0.0011311278765939214,23263.859869007414
0.001175531073878369,23899.333856545563
0.0012216773489967915,24541.947987592503
0.0012696351276599736,25190.974927248404
0.0013194755216767058,25845.650263412852
0.0013712724343984,26505.157844408277
0.0014251026703029975,27168.619260517073
0.0014810460488806749,27835.092412011403
0.0015391855229902056,28503.56935450224
0.001599607301861487,29172.93618583952
0.0016624009789266115,29842.0005145685
0.0017276596646690358,30509.529068589083
0.0017954801246878305,31174.266670871068
0.0018659629231817451,31834.90739479937
0.001939212572065829,32490.085852477303
0.0020153376859417325,33138.38254125516
0.002094451143151469,33778.33147440714
0.002176670253153458,34408.424026397195
0.002262116930469025,35027.11277970567
0.002350917875457286,35632.82145068173
0.002443204762186487,36223.94968217887
0.0025391144336803463,36798.87100485735
0.002638789104828933,37355.92952298991
0.002742376573264949,37893.45281527679
0.0028500304385181063,38409.758186359795
0.0029619103297725525,38903.15776202661
0.0030781821425650787,39371.96962888978
0.003199018284775064,39814.52283931992
0.0033245979322709396,40229.16630458773
0.003455107294592217,40614.11324077735
0.0035907398910610534,40967.214350517825
0.0037316968377327513,41286.350561106294
0.0038781871456107214,41570.33844284811
0.0040304280305680515,41818.77997103513
0.00418864523543527,42030.742373546826
0.004353073364731888,42202.78186401786
0.00452395623253805,42330.90513430651
0.004701547224022131,42412.428339630445
0.004886109671160325,42446.3248021467
0.005077917243205399,42431.784608451235
0.005277254352483535,42367.923286950914
0.005484416576121017,42253.929009886255
0.005699711094326071,42088.7040370911
0.005923457145875801,41870.41651336582
0.006155986501483508,41597.336654126804
0.006397643955748424,41267.62093225111
0.0066487878384172625,40879.48302829628
0.0069097905457156435,40431.37586720989
0.007181039092537346,39921.77429716394
0.007462935686310132,39349.510602155504
0.007755898323389004,38713.482723031455
0.00806036140886134,38012.69635988479
0.008376776400682916,37246.48777323832
0.008705612479099857,36413.37706363225
0.009047357242349292,35512.234386018616
0.00940251742967013,34542.50000826631
0.009771619672696168,33504.018431246775
0.010155211276345676,32397.553357551857
0.010553861030365234,31223.02011602319
0.010968160052731372,29980.796940674456
0.011398722666160517,28672.524929882653
0.011846187309026826,27300.268322229877
0.012311217482038896,25867.9203016513
0.012794502732078732,24377.4079813001
0.013296759674662111,22830.30466760489
0.013818733056536317,21233.11154869025
0.014361196859990781,19599.52758134848
0.014924955450518284,17946.161409344222
0.015510844769528393,16272.926316595234
0.016119733573881575,14564.327697934374
0.01675252472408214,12828.993031284072
0.017410156523040152,11139.78009248111
0.018093604107387147,9571.654555794035
0.01880388089340914,8091.43836070667
0.019542040079740527,6542.478291683879
0.02030917620904734,4921.919366739038
0.021106426791015535,3552.430313768755
0.021934973989050584,2655.0883700624368
0.02279604637318978,2037.786523231896
0.023690920741826323,1135.3293501221162
0.02462092401494623,304.7395366712821
0.02558743520168586,53.330214674804324
0.02659188744512693,19.951492791358056
0.027635770147361564,43.28652717386427
0.028720631177978267,283.8593430542248
0.029848079169243254,1490.1190545764962
0.03101978590138095,2975.4478393113686
0.03223748878149028,3454.900254805279
0.0335029934197723,3966.1679753138474
0.03481817630688963,5166.058095784316
0.03618498759642746,6734.311141994652
0.037605453996581675,7985.680985707982
0.03908168177536263,8784.543969776776
0.04061585988376978,9342.595821549045
0.04221026320156896,9714.59232605037
0.04386725591048496,9752.954590024747
0.0455892949998106,9381.625221728607
0.047378933909631396,8655.387246266633
0.049238826317067365,7633.245059219193
0.05117173007114603,6351.086620521317
0.05318051128214196,4953.157174110623
0.05526814857144601,3630.8355934319534
0.057437737488265785,2366.567529740264
0.0596924950997073,1272.715657850672
0.0620357647610427,643.3973001822712
0.06447102107323864,190.1878367358949
0.06700187503509585,12.320486868358207
0.06963207939763882,9.593730209032616
0.0723655342286965,139.85677593103736
0.07520629269592405,236.0371262856976
0.07815856707684081,210.33966456526386
0.08122673500479707,166.7679209740948
0.08441534596012978,58.04498139558662
0.0877291280161335,8.499560666351794
0.09117299484984914,23.60951515682775
0.09475205302806537,284.5676046992077
0.09847160957933764,491.1987784443702
0.1023371798632519,738.5221450244934
0.10635449574860109,853.3949178102956
0.11052951411260206,754.5345526869662
0.1148684256737553,557.9533406356977
0.1193776641714435,226.7500563108064
0.1240639159058831,111.11367415271468
0.12893412965257148,0.14902547752545342
0.13399552696593373,20.198410520623913
0.1392556128874462,35.70062307172836
0.14472218707411338,28.146475546728556
0.15040335536380234,0.9059447113824214
0.15630754179458153,30.90558984145701
0.16244350109588662,106.7627479486696
0.16882033167003618,183.1577933173935
0.17544748908334581,164.15336245019353
0.1823348000868439,83.42971817944611
0.189492477187382,18.80874653993267
0.19693113379074215,0.11442786995552733
0.20466179993919872,4.12542824248391
0.21269593866686892,0.00030189729521347164
0.22104546299710207,29.862281287292888
0.22972275360711503,43.06169401941818
0.23874067718606454,50.67804753570827
0.2481126055137766,25.821644018720328
0.25785243528842716,3.455733341291669
0.26797460873256895,0.02322623723689462
0.27849413500806414,0.04692708811663654
0.28942661247167484,6.288976075410088
0.3007882518043098,16.260889837995176
0.31259590004822796,11.67608733014324
0.324867065587837,2.4082622507269242
0.3376199441111335,0.2885761526490896
0.35087344559027084,1.5631676592019246
0.36464722232127456,5.622044706693585
0.37896169806447155,5.134648073928202
0.3938380983288488,1.5087032940638274
0.4092984818452433,0.6960870798896063
0.4253657732750382,1.9505290193199312
0.44206379720285277,2.751644491303178
0.45941731346364734,1.2969111694878068
0.47745205385661277,0.7863517550572525
0.4961947603002895,1.259767186406712
0.5156732244854959,1.3170629838306336
0.5359163290848509,0.7861663078245615
0.556954090580013,0.5185805138774985
0.5788177037701272,0.417959849450169
0.6015395880274836,0.3906083926087507
0.6251534353689703,0.4005426406827954
0.6496942604146115,0.42644955692949593
0.6751984523072497,0.44607701706878655
0.7017038286703824,0.43906125488281034
0.7292496916841444,0.408385083232608
0.7578768863625915,0.3647262076358494
0.7876278611187046,0.3177892995294245
0.8185467307069019,0.2744793149946289
0.850679341636415,0.23874174103280052
0.8840733401525058,0.21078796432717445
0.9187782428863317,0.18833316925757113
0.9548455102782278,0.16961974025842635
0.9923286228832539,0.15339089059513938
1.0312831606721837,0.13873989524357913
1.0717668854455022,0.1250628791170141
1.1138398264826193,0.11228704360822346
1.1575643695533022,0.10052061409823486
1.2030053494233226,0.08981766307449862
1.2502301459914542,0.08018744456149772
1.299308784200415,0.07160540126870349
1.3503140378698726,0.06400455875982052
1.4033215376054824,0.05726064120965203
1.4584098829439835,0.05125851818432822
1.5156607589006013,0.04590127992502953
1.575159057091621,0.04110709814136737
1.6369930016117014,0.03680686781487963
1.7012542798525885,0.032946819291308646
1.7680381784572046,0.02948465362005802
1.8374437246107238,0.02638186806348347
1.9095738328780953,0.023603212126786965
1.9845354578058014,0.021116493357520125
2.0624397525140905,0.01889223888496537
2.143402233514853,0.01690283707145104
2.227542951999554,0.015123234598291473
2.314986671851158,0.01353109702131895
2.405863054644063,0.012106507901013298
2.5003068519063225,0.010831701134615446
2.598458104929248,0.00969085720559479
2.7004623524206774,0.008669914138152046
2.806470846309834,0.007756294507882665
2.916640776023701,0.006938738067980864
3.031135501567576,0.006207163998910516
3.150124795755327,0.005552548040278734
3.2737850959485697,0.004966819281892904
3.4022997656780634,0.004442756150961563
3.5358593665351745,0.003973890130721338
3.6746619407366854,0.003554427585334098
3.8189133047818515,0.0031791798549911116
3.968827354637162,0.00284349846854723
4.1246263829013445,0.0025432123647938665
4.286541408420921,0.0022745878795878663
4.4548125188449825,0.002034286049159453
4.629689226627261,0.0018193207225162336
4.811430839003257,0.0016270211661419817
5.000306842491082,0.0014550004905879382
5.196597302486189,0.0013011261038193662
5.400593278542364,0.0011634892356580787
5.612597255954967,0.001040381198040693
5.8329235942862,0.0009302724983041352
6.06189899349756,0.0008317940726296012
6.29986297838068,0.0007437200279756895
6.547168402004727,0.0006649530642136672
6.804181968927091,0.0005945114229278429
7.071284778942991,0.0005315167446154359
7.348872892180382,0.0004751831933115572
7.637357916378006,0.0004248076093560518
7.937167617217536,0.0003797605652462989
8.248746552614573,0.00033947903730202714
8.572556731909314,0.0003034594979245148
8.909078300934132,0.00027125162041624265
9.258810253973934,0.0002424526557222506
9.622271173675122,0.00021670256673043527
9.999999999999984,0.0001936794999246816
