k [1/Mpc],P(k) [Mpc^3]
0.0001,866.4665732349455
0.00010392556829367125,895.2880021186384
0.00010800523745162529,925.0676190075674
0.00011224505680853065,955.837172506014
0.00011665131316981963,987.6294862322445
0.00012123054013376525,1020.4785048892148
0.00012598952777950273,1054.4192932394556
0.00013093533273536104,1089.4880334904487
0.00013607528864243335,1125.722082956913
0.00014141701702890234,1163.1600461300593
0.00014696843861124463,1201.8418349699969
0.00015273778503907136,1241.8086778809572
0.00015873361110102093,1283.103088283405
0.00016496480740980205,1325.768923998703
0.0001714406135851971,1369.8514864413085
0.00017817063195457305,1415.3975918330202
0.00018516484179121546,1462.4555970253473
0.000192433614111598,1511.0754362168661
0.00019998772705352857,1561.308670824902
0.0002078383818579757,1613.208534656456
0.00021599721947827182,1666.8299226863712
0.0002244763378413224,1722.2294877953652
0.0002332883097864157,1779.4657126908057
0.00024244620170823283,1838.5989614270118
0.0002519635929317015,1899.6915436779566
0.0002618545958474233,1962.8077173190366
0.0002721338768375308,2028.0137722181194
0.0002828166780230032,2095.378102898353
0.0002939188398646886,2164.9712307210057
0.0003054568246515432,2236.8659167776846
0.00031744774091091926,2311.1372228153577
0.00032990936877709396,2387.8625820626457
0.00034286018635565856,2467.121830092725
0.00035631939712285854,2548.9970752233476
0.000370306958400514,2633.57292288939
0.00038484361094874304,2720.9365790068673
0.0003999509097203664,2811.177908355771
0.00041565125582259895,2904.3895378828665
0.00043196792973341727,3000.6668379441635
0.0004489251258218605,3100.1080500966523
0.0004665479882234472,3202.8142612446254
0.000484862648123908,3308.8892753855916
0.000503896262506515,3418.439939990549
0.0005236770544204653,3531.5760858101207
0.0005442343548300266,3648.4106353612874
0.0005655986461065005,3769.0597670273505
0.0005878016072274912,3893.6428800159288
0.0006108761607505036,4022.2827664242486
0.0006348565216305217,4155.10529535431
0.0006597782479539537,4292.23936398925
0.0006856782936641739,4433.817359115278
0.0007125950633568407,4579.975023401781
0.0007405684692262436,4730.8516634300695
0.0007696399902471156,4886.590032218087
0.0007998527336796708,5047.336121874864
0.000831251498989063,5213.239586431538
0.0008638828442740447,5384.453320023878
0.000897795155303332,5561.133666000624
0.0009330387172620361,5743.4405119163375
0.0009696657893145519,5931.536762636847
0.001007730682094461,6125.588913286766
0.0010472898382363582,6325.766474922111
0.0010884019160690055,6532.241922942935
0.0011311278765939214,6745.1911157552295
0.001175531073878369,6964.792350835367
0.0012216773489967915,7191.227010836488
0.0012696351276599736,7424.678815284436
0.0013194755216767058,7665.333076741796
0.0013712724343984,7913.377783184167
0.0014251026703029975,8169.002194972021
0.0014810460488806749,8432.39734906681
0.0015391855229902056,8703.755516172954
0.001599607301861487,8983.268210126547
0.0016624009789266115,9271.128055176654
0.0017276596646690358,9567.527570599537
0.0017954801246878305,9872.65905949688
0.0018659629231817451,10186.71426731816
0.001939212572065829,10509.880406555101
0.0020153376859417325,10842.342790447829
0.002094451143151469,11184.284045328513
0.002176670253153458,11535.883105568204
0.002262116930469025,11897.315687719878
0.002350917875457286,12268.74934733846
0.002443204762186487,12650.345387208206
0.0025391144336803463,13042.258363999652
0.002638789104828933,13444.633258270622
0.002742376573264949,13857.607468488268
0.0028500304385181063,14281.305857773365
0.0029619103297725525,14715.841053278487
0.0030781821425650787,15161.31416478761
0.003199018284775064,15617.810311256328
0.0033245979322709396,16085.400980594035
0.003455107294592217,16564.139049661982
0.0035907398910610534,17054.056860045017
0.0037316968377327513,17555.16859092085
0.0038781871456107214,18067.463282998677
0.0040304280305680515,18590.907636433425
0.00418864523543527,19125.441779159857
0.004353073364731888,19670.97373365021
0.00452395623253805,20227.384607636886
0.004701547224022131,20794.519786578374
0.004886109671160325,21372.1906686184
0.005077917243205399,21960.171955253238
0.005277254352483535,22558.189274899105
0.005484416576121017,23165.929616514357
0.005699711094326071,23783.03691977898
0.005923457145875801,24409.11083068744
0.006155986501483508,25043.699713763825
0.006397643955748424,25686.26176897713
0.0066487878384172625,26336.1938669991
0.0069097905457156435,26992.881881777987
0.007181039092537346,27655.719994029085
0.007462935686310132,28324.032612705298
0.007755898323389004,28996.860925890007
0.00806036140886134,29673.06679875756
0.008376776400682916,30351.51961965906
0.008705612479099857,31031.213207894005
0.009047357242349292,31711.099373148674
0.00940251742967013,32389.87266659208
0.009771619672696168,33066.00633453174
0.010155211276345676,33737.927667367054
0.010553861030365234,34404.12584035896
0.010968160052731372,35063.05565020678
0.011398722666160517,35712.9706369473
0.011846187309026826,36351.89178766296
0.012311217482038896,36977.748299622945
0.012794502732078732,37588.325332114866
0.013296759674662111,38181.314479689936
0.013818733056536317,38754.29870851436
0.014361196859990781,39304.71482207646
0.014924955450518284,39829.93605521759
0.015510844769528393,40327.19627045054
0.016119733573881575,40793.64071324168
0.01675252472408214,41226.34346332207
0.017410156523040152,41622.2012610609
0.018093604107387147,41978.092902273434
0.01880388089340914,42290.82752376459
0.019542040079740527,42557.1707207989
0.02030917620904734,42773.94242978243
0.021106426791015535,42937.919178736076
0.021934973989050584,43045.97722552676
0.02279604637318978,43095.114491163426
0.023690920741826323,43082.45350486307
0.02462092401494623,43005.36636957136
0.02558743520168586,42861.49475928817
0.02659188744512693,42648.8040159052
0.027635770147361564,42365.68934075814
0.028720631177978267,42011.08490977917
0.029848079169243254,41584.40145663194
0.03101978590138095,41085.83926000458
0.03223748878149028,40516.323289228916
0.0335029934197723,39877.4327387925
0.03481817630688963,39171.941163643285
0.03618498759642746,38403.211715734455
0.037605453996581675,37575.81872047264
0.03908168177536263,36695.640054791395
0.04061585988376978,35768.88773290896
0.04221026320156896,34803.05884615575
0.04386725591048496,33805.97083996998
0.0455892949998106,32786.67711262757
0.047378933909631396,31756.707802110814
0.049238826317067365,30726.784183448694
0.05117173007114603,29705.145342082396
0.05318051128214196,28698.224718321635
0.05526814857144601,27713.549552697776
0.057437737488265785,26763.625551654928
0.0596924950997073,25860.13659713343
0.0620357647610427,25009.102783493137
0.06447102107323864,24212.51963744776
0.06700187503509585,23470.059890824057
0.06963207939763882,22778.500994869948
0.0723655342286965,22132.678508975867
0.07520629269592405,21524.172867448367
0.07815856707684081,20943.12269488162
0.08122673500479707,20377.64423985855
0.08441534596012978,19814.06034531603
0.0877291280161335,19237.250081839036
0.09117299484984914,18630.93769019237
0.09475205302806537,17980.326346363167
0.09847160957933764,17274.03245456755
0.1023371798632519,16506.39390579971
0.10635449574860109,15683.277285619813
0.11052951411260206,14821.19381463817
0.1148684256737553,13937.333696472822
0.1193776641714435,13055.655129753113
0.1240639159058831,12202.959080266273
0.12893412965257148,11406.343733979336
0.13399552696593373,10690.498358084373
0.1392556128874462,10072.821695681578
0.14472218707411338,9558.998782356626
0.15040335536380234,9139.247701957594
0.15630754179458153,8788.37171164053
0.16244350109588662,8470.785694646507
0.16882033167003618,8147.878723576206
0.17544748908334581,7786.438221466713
0.1823348000868439,7367.278714692274
0.189492477187382,6891.452042526757
0.19693113379074215,6380.449871078744
0.20466179993919872,5870.438127114448
0.21269593866686892,5403.208455095545
0.22104546299710207,5012.957497326801
0.22972275360711503,4710.971918412815
0.23874067718606454,4480.077394261715
0.2481126055137766,4283.266299428003
0.25785243528842716,4077.1138839933624
0.26797460873256895,3829.421818328804
0.27849413500806414,3540.246969056773
0.28942661247167484,3240.864757150037
0.3007882518043098,2970.940825254485
0.31259590004822796,2756.986118193454
0.324867065587837,2596.3872035626314
0.3376199441111335,2458.8329852196453
0.35087344559027084,2308.2020982741988
0.36464722232127456,2132.0342419433987
0.37896169806447155,1950.6294879273944
0.3938380983288488,1793.0153697394296
0.4092984818452433,1670.5925725575066
0.4253657732750382,1567.1996564279789
0.44206379720285277,1458.6695629900405
0.45941731346364734,1340.331636546474
0.47745205385661277,1229.4261119893915
0.4961947603002895,1138.1584475001948
0.5156732244854959,1059.4759980652204
0.5359163290848509,979.438833751756
0.556954090580013,898.8207267495782
0.5788177037701272,827.5490922560674
0.6015395880274836,765.9584203056684
0.6251534353689703,706.4595214361909
0.6496942604146115,648.5607212647449
0.6751984523072497,596.9247364236039
0.7017038286703824,550.2503084738938
0.7292496916841444,505.4401325508391
0.7578768863625915,464.16105334160676
0.7876278611187046,426.8124228475133
0.8185467307069019,391.7413297064594
0.850679341636415,359.40908369362785
0.8840733401525058,329.70199060267294
0.9187782428863317,302.3317781511492
0.9548455102782278,277.11928685284397
0.9923286228832539,253.899278188388
1.0312831606721837,232.5202389826171
1.0717668854455022,212.84722019415153
1.1138398264826193,194.75576274819417
1.1575643695533022,178.12913329867007
1.2030053494233226,162.8579959382806
1.2502301459914542,148.8400814496565
1.299308784200415,135.9794250088419
1.3503140378698726,124.18559937405004
1.4033215376054824,113.37458021608633
1.4584098829439835,103.46852173961273
1.5156607589006013,94.39534448279771
1.575159057091621,86.08834993474687
1.6369930016117014,78.4859506231578
1.7012542798525885,71.53130103770708
1.7680381784572046,65.17183660445536
1.8374437246107238,59.35897625773304
1.9095738328780953,54.047850045368676
1.9845354578058014,49.19703558874221
2.0624397525140905,44.76826252743949
2.143402233514853,40.72623668491797
2.227542951999554,37.038466516503284
2.314986671851158,33.67505613782029
2.405863054644063,30.608511646700663
2.5003068519063225,27.81356199093941
2.598458104929248,25.26699438280902
2.7004623524206774,22.947491395564047
2.806470846309834,20.8354839290876
2.916640776023701,18.91301633697678
3.031135501567576,17.163621042418765
3.150124795755327,15.57219770272865
3.2737850959485697,14.124903545336656
3.4022997656780634,12.809062772092377
3.5358593665351745,11.613073882017863
3.6746619407366854,10.526322869468961
3.8189133047818515,9.539102917948421
3.968827354637162,8.642538927470582
4.1246263829013445,7.82851990637344
4.286541408420921,7.089637391268884
4.4548125188449825,6.419127091832719
4.629689226627261,5.810815077861505
4.811430839003257,5.259068051529063
5.000306842491082,4.758746816765845
5.196597302486189,4.305165497248922
5.400593278542364,3.894053515029001
5.612597255954967,3.5215200289413726
5.8329235942862,3.1840212860509967
6.06189899349756,2.878330494278651
6.29986297838068,2.601510102658106
6.547168402004727,2.350887169612381
6.804181968927091,2.124030336058204
7.071284778942991,1.9187286240927501
7.348872892180382,1.7329720172797989
7.637357916378006,1.564933166603629
7.937167617217536,1.4129511939379724
8.248746552614573,1.2755177369279949
8.572556731909314,1.151263335216953
8.909078300934132,1.0389449346767616
9.258810253973934,0.9374345723735981
9.622271173675122,0.8457098759021672
9.999999999999984,0.7628438067509773
