k [1/Mpc],P(k) [Mpc^3]
0.0001,343.23335696427245
0.00010392556829367125,355.6699503003754
0.00010800523745162529,368.55646827523384
0.00011224505680853065,381.90908358894535
0.00011665131316981963,395.7445450832634
0.00012123054013376525,410.08021127451786
0.00012598952777950273,424.93406361510114
0.00013093533273536104,440.3247133549342
0.00013607528864243335,456.27141500541467
0.00014141701702890234,472.79410107601075
0.00014696843861124463,489.9133892091535
0.00015273778503907136,507.6506121438228
0.00015873361110102093,526.0278457681823
0.00016496480740980205,545.0679224499092
0.0001714406135851971,564.7944685414119
0.00017817063195457305,585.2319109030376
0.00018516484179121546,606.4055035899586
0.000192433614111598,628.3413732043321
0.00019998772705352857,651.0665443337027
0.0002078383818579757,674.6089713746082
0.00021599721947827182,698.9975185144312
0.0002244763378413224,724.2619617040892
0.0002332883097864157,750.4330767963409
0.00024244620170823283,777.5426576728628
0.0002519635929317015,805.6235569415609
0.0002618545958474233,834.7096778520465
0.0002721338768375308,864.835938627879
0.0002828166780230032,896.0383866859278
0.0002939188398646886,928.3542228064584
0.0003054568246515432,961.8218384572477
0.00031744774091091926,996.4808198715015
0.00032990936877709396,1032.371852628996
0.00034286018635565856,1069.5368624979137
0.00035631939712285854,1108.0190170025867
0.000370306958400514,1147.8627384834122
0.00038484361094874304,1189.1137658983196
0.0003999509097203664,1231.8189946728362
0.00041565125582259895,1276.0266186554372
0.00043196792973341727,1321.7861766758913
0.0004489251258218605,1369.1485233625683
0.0004665479882234472,1418.1659164646203
0.000484862648123908,1468.8917946386698
0.000503896262506515,1521.3808732043642
0.0005236770544204653,1575.6892442956134
0.0005442343548300266,1631.8742490853301
0.0005655986461065005,1689.994629008364
0.0005878016072274912,1750.1103459482918
0.0006108761607505036,1812.282570321569
0.0006348565216305217,1876.5737904875673
0.0006597782479539537,1943.0474533715778
0.0006856782936641739,2011.7682119531974
0.0007125950633568407,2082.8018420175817
0.0007405684692262436,2156.2151008081223
0.0007696399902471156,2232.0758804530565
0.0007998527336796708,2310.4526608155047
0.000831251498989063,2391.414700916143
0.0008638828442740447,2475.0319785393026
0.000897795155303332,2561.3746968952632
0.0009330387172620361,2650.5136918762023
0.0009696657893145519,2742.5198022172285
0.001007730682094461,2837.4638422293133
0.0010472898382363582,2935.4166162814327
0.0010884019160690055,3036.4476875515156
0.0011311278765939214,3140.6261503287815
0.001175531073878369,3248.0200816638976
0.0012216773489967915,3358.6961083043016
0.0012696351276599736,3472.7197524030835
0.0013194755216767058,3590.1538136300333
0.0013712724343984,3711.0589547715767
0.0014251026703029975,3835.4935180617376
0.0014810460488806749,3963.5126477806125
0.0015391855229902056,4095.1687243699585
0.001599607301861487,4230.509139686002
0.0016624009789266115,4369.576483915366
0.0017276596646690358,4512.409007625309
0.0017954801246878305,4659.039168223469
0.0018659629231817451,4809.494255994674
0.001939212572065829,4963.794508572091
0.0020153376859417325,5121.952428988617
0.002094451143151469,5283.973669006887
0.002176670253153458,5449.85532318239
0.002262116930469025,5619.58634905313
0.002350917875457286,5793.146152983428
0.002443204762186487,5970.503051739832
0.0025391144336803463,6151.615401442041
0.002638789104828933,6336.429124325921
0.002742376573264949,6524.878044734346
0.0028500304385181063,6716.883495934712
0.0029619103297725525,6912.352057664627
0.0030781821425650787,7111.176863760794
0.003199018284775064,7313.234501396092
0.0033245979322709396,7518.384668666917
0.003455107294592217,7726.471481937576
0.0035907398910610534,7937.321176598896
0.0037316968377327513,8150.743151441393
0.0038781871456107214,8366.525806958442
0.0040304280305680515,8584.434281142338
0.00418864523543527,8804.215202083567
0.004353073364731888,9025.597099466697
0.00452395623253805,9248.290043895646
0.004701547224022131,9471.971315524324
0.004886109671160325,9696.26835079092
0.005077917243205399,9920.787048762977
0.005277254352483535,10145.172720557119
0.005484416576121017,10369.09743262172
0.005699711094326071,10592.161716169985
0.005923457145875801,10813.743082472412
0.006155986501483508,11033.147051447482
0.006397643955748424,11249.777865421098
0.0066487878384172625,11463.162840627194
0.0069097905457156435,11672.79356676343
0.007181039092537346,11877.96447548579
0.007462935686310132,12077.882806168762
0.007755898323389004,12271.800003582719
0.00806036140886134,12459.067539821566
0.008376776400682916,12639.027501072824
0.008705612479099857,12810.8742290549
0.009047357242349292,12973.711811351599
0.00940251742967013,13126.624920525699
0.009771619672696168,13268.665066719537
0.010155211276345676,13398.878005390125
0.010553861030365234,13516.266622506459
0.010968160052731372,13619.801788326007
0.011398722666160517,13708.458049485187
0.011846187309026826,13781.169038616048
0.012311217482038896,13836.884572259241
0.012794502732078732,13874.528085307826
0.013296759674662111,13892.978282697775
0.013818733056536317,13891.163090725797
0.014361196859990781,13867.982367865394
0.014924955450518284,13822.385530855043
0.015510844769528393,13753.38363351544
0.016119733573881575,13659.998671154524
0.01675252472408214,13541.387934357053
0.017410156523040152,13396.766896048348
0.018093604107387147,13225.468071694686
0.01880388089340914,13027.016027692307
0.019542040079740527,12801.055102448596
0.02030917620904734,12547.479127115179
0.021106426791015535,12266.418891474314
0.021934973989050584,11958.25422276341
0.02279604637318978,11623.698965394706
0.023690920741826323,11263.805918643695
0.02462092401494623,10879.972215353282
0.02558743520168586,10474.009166258895
0.02659188744512693,10048.17107758599
0.027635770147361564,9605.024571201147
0.028720631177978267,9147.701543344554
0.029848079169243254,8679.646082603866
0.03101978590138095,8204.57689708149
0.03223748878149028,7726.810765581613
0.0335029934197723,7250.5254436608375
0.03481817630688963,6780.335131041984
0.03618498759642746,6320.949522182543
0.037605453996581675,5876.570250498261
0.03908168177536263,5451.856678178295
0.04061585988376978,5050.6407125048145
0.04221026320156896,4676.383711464868
0.04386725591048496,4332.423889323142
0.0455892949998106,4020.8905542521647
0.047378933909631396,3743.4141798841874
0.049238826317067365,3500.9565220746563
0.05117173007114603,3293.810731376733
0.05318051128214196,3121.9419039754107
0.05526814857144601,2984.282526428727
0.057437737488265785,2876.5913497333427
0.0596924950997073,2794.6298587963984
0.0620357647610427,2734.305025725577
0.06447102107323864,2691.3939087718113
0.06700187503509585,2659.861904388392
0.06963207939763882,2632.658835609045
0.0723655342286965,2601.172374297973
0.07520629269592405,2556.2742757696137
0.07815856707684081,2489.286922990352
0.08122673500479707,2394.084014779882
0.08441534596012978,2267.737152745308
0.0877291280161335,2111.3196347575818
0.09117299484984914,1930.467950180372
0.09475205302806537,1734.0249577172372
0.09847160957933764,1533.6483021932327
0.1023371798632519,1341.8922681683769
0.10635449574860109,1171.1972189052672
0.11052951411260206,1031.021947934079
0.1148684256737553,926.528353821691
0.1193776641714435,858.3424024057095
0.1240639159058831,822.8339224641403
0.12893412965257148,812.8594912060513
0.13399552696593373,818.1059737188691
0.1392556128874462,825.6094189792217
0.14472218707411338,821.3402805571293
0.15040335536380234,793.127678880173
0.15630754179458153,735.2528926116786
0.16244350109588662,652.9011167186769
0.16882033167003618,561.1123365035484
0.17544748908334581,477.1001990845979
0.1823348000868439,413.3400788328699
0.189492477187382,375.68292385940987
0.19693113379074215,362.45814533329093
0.20466179993919872,364.134271125428
0.21269593866686892,366.5259377118346
0.22104546299710207,355.98892461872026
0.22972275360711503,326.10115120026006
0.23874067718606454,283.0425071347526
0.2481126055137766,240.8875425788084
0.25785243528842716,211.87348712348995
0.26797460873256895,199.2263078642022
0.27849413500806414,196.64117789181356
0.28942661247167484,192.99519644769825
0.3007882518043098,179.4166588818545
0.31259590004822796,157.54021657608553
0.324867065587837,136.83241872568354
0.3376199441111335,124.5749705300307
0.35087344559027084,119.60473978400574
0.36464722232127456,114.74124365252749
0.37896169806447155,104.88491714703204
0.3938380983288488,92.56548813919437
0.4092984818452433,83.4849566259503
0.4253657732750382,78.55086215807489
0.44206379720285277,73.80580240201789
0.45941731346364734,66.85452554528422
0.47745205385661277,60.016476695594626
0.4961947603002895,55.41467948253895
0.5156732244854959,51.567326255246165
0.5359163290848509,46.90669649784097
0.556954090580013,42.534589643263935
0.5788177037701272,39.22110990098277
0.6015395880274836,36.006513086306256
0.6251534353689703,32.7247468502505
0.6496942604146115,29.957111209885856
0.6751984523072497,27.489820093014227
0.7017038286703824,25.16930575000241
0.7292496916841444,22.99588257001946
0.7578768863625915,20.978019617528453
0.7876278611187046,19.119234669981555
0.8185467307069019,17.419038710241995
0.850679341636415,15.873351100291517
0.8840733401525058,14.46997645810434
0.9187782428863317,13.193351666267125
0.9548455102782278,12.029870238009039
0.9923286228832539,10.967701323812054
1.0312831606721837,9.9965359836718
1.0717668854455022,9.10765363460751
1.1138398264826193,8.294491019329568
1.1575643695533022,7.551250317777125
1.2030053494233226,6.872480422125193
1.2502301459914542,6.253070171026988
1.299308784200415,5.688237904245991
1.3503140378698726,5.173426090653137
1.4033215376054824,4.704276853867075
1.4584098829439835,4.276795352752082
1.5156607589006013,3.8873342581278996
1.575159057091621,3.532563421087118
1.6369930016117014,3.209444256040416
1.7012542798525885,2.9152238602432767
1.7680381784572046,2.6473951763927066
1.8374437246107238,2.4036600873442118
1.9095738328780953,2.181912707004937
1.9845354578058014,1.9802241681874793
2.0624397525140905,1.7968274249739584
2.143402233514853,1.6301017740498858
2.227542951999554,1.4785651735939371
2.314986671851158,1.3408638537096345
2.405863054644063,1.2157615700694722
2.5003068519063225,1.1021297236382877
2.598458104929248,0.9989383443713961
2.7004623524206774,0.9052477430182284
2.806470846309834,0.8202007315047232
2.916640776023701,0.7430155884833114
3.031135501567576,0.6729796108302145
3.150124795755327,0.6094431856709455
3.2737850959485697,0.5518142779438857
3.4022997656780634,0.49955353470816544
3.5358593665351745,0.45216978545225583
3.6746619407366854,0.40921584958363205
3.8189133047818515,0.37028469651251156
3.968827354637162,0.33500591941337965
4.1246263829013445,0.3030424984993002
4.286541408420921,0.2740878996513205
4.4548125188449825,0.2478633891806758
4.629689226627261,0.22411556974070995
4.811430839003257,0.20261412820025265
5.000306842491082,0.18314976062325905
5.196597302486189,0.1655322971534745
5.400593278542364,0.1495890153798656
5.612597255954967,0.13516307353651075
5.8329235942862,0.12211207927676566
6.06189899349756,0.11030678308946545
6.29986297838068,0.09962987910372985
6.547168402004727,0.08997493014540059
6.804181968927091,0.08124538543628733
7.071284778942991,0.07335367867326016
7.348872892180382,0.06622040661946522
7.637357916378006,0.0597735745329371
7.937167617217536,0.05394790576407403
8.248746552614573,0.04868424477523814
8.572556731909314,0.04392899590586379
8.909078300934132,0.03963360853682977
9.258810253973934,0.03575410982942784
9.622271173675122,0.0322506994274543
9.999999999999984,0.029087356759088977
