k [1/Mpc],P(k) [Mpc^3]
0.0001,15.592552592763182
0.00010392556829367125,16.298396529468707
0.00010800523745162529,17.03618304958115
0.00011224505680853065,17.807356621400682
0.00011665131316981963,18.61342645222876
0.00012123054013376525,19.45596937810343
0.00012598952777950273,20.33663355200898
0.00013093533273536104,21.257142637731874
0.00013607528864243335,22.219298477690966
0.00014141701702890234,23.22498286846582
0.00014696843861124463,24.2761603708583
0.00015273778503907136,25.37488402028016
0.00015873361110102093,26.52330171404957
0.00016496480740980205,27.723659386344533
0.0001714406135851971,28.978302629126137
0.00017817063195457305,30.289678878088502
0.00018516484179121546,31.660345004383657
0.000192433614111598,33.09297508614167
0.00019998772705352857,34.590365214310424
0.0002078383818579757,36.155436393248316
0.00021599721947827182,37.791237645614395
0.0002244763378413224,39.50095385480669
0.0002332883097864157,41.28791182725288
0.00024244620170823283,43.15558645298577
0.0002519635929317015,45.10760792257089
0.0002618545958474233,47.14776920380765
0.0002721338768375308,49.28003284635574
0.0002828166780230032,51.50853621935005
0.0002939188398646886,53.837597585984085
0.0003054568246515432,56.271726544768335
0.00031744774091091926,58.815631151728695
0.00032990936877709396,61.47422712932709
0.00034286018635565856,64.25264703767847
0.00035631939712285854,67.1562485624715
0.000370306958400514,70.19062531364533
0.00038484361094874304,73.36161428517082
0.0003999509097203664,76.67530644092146
0.00041565125582259895,80.13805769232717
0.00043196792973341727,83.75649328691922
0.0004489251258218605,87.53752463406893
0.0004665479882234472,91.48836274106628
0.000484862648123908,95.61653054281227
0.000503896262506515,99.92987514606864
0.0005236770544204653,104.43657269726525
0.0005442343548300266,109.14514652198868
0.0005655986461065005,114.0644803223838
0.0005878016072274912,119.20382775802035
0.0006108761607505036,124.57283334731693
0.0006348565216305217,130.18153778598767
0.0006597782479539537,136.0403964533616
0.0006856782936641739,142.16030000216517
0.0007125950633568407,148.55258587182587
0.0007405684692262436,155.2290599400101
0.0007696399902471156,162.20199454859818
0.0007998527336796708,169.48414353727347
0.000831251498989063,177.08877712181732
0.0008638828442740447,185.02969667141105
0.000897795155303332,193.3212569806644
0.0009330387172620361,201.9783615406943
0.0009696657893145519,211.01646484487594
0.001007730682094461,220.4516213521618
0.0010472898382363582,230.30049573933132
0.0010884019160690055,240.58038845435033
0.0011311278765939214,251.3092351090704
0.001175531073878369,262.50558621186934
0.0012216773489967915,274.18866931436537
0.0012696351276599736,286.37837296439864
0.0013194755216767058,299.09527010387654
0.0013712724343984,312.3606474037604
0.0014251026703029975,326.1964699500507
0.0014810460488806749,340.6254399759169
0.0015391855229902056,355.67095442393287
0.001599607301861487,371.35709656580775
0.0016624009789266115,387.708702970618
0.0017276596646690358,404.75129407546933
0.0017954801246878305,422.5111314916362
0.0018659629231817451,441.0151826007249
0.001939212572065829,460.2910554622682
0.0020153376859417325,480.3670920403359
0.002094451143151469,501.2722636204915
0.002176670253153458,523.036202277881
0.002262116930469025,545.6891738827683
0.002350917875457286,569.2619052171978
0.002443204762186487,593.7857228205044
0.0025391144336803463,619.2924484420721
0.002638789104828933,645.8143698255863
0.002742376573264949,673.3842355474567
0.0028500304385181063,702.0349709579986
0.0029619103297725525,731.7998116719865
0.0030781821425650787,762.7121521606751
0.003199018284775064,794.805397222597
0.0033245979322709396,828.1130589423559
0.003455107294592217,862.6684713719532
0.0035907398910610534,898.5048181404384
0.0037316968377327513,935.6549331242287
0.0038781871456107214,974.1509376721867
0.0040304280305680515,1014.0244435571927
0.00418864523543527,1055.306255033114
0.004353073364731888,1098.026285411657
0.00452395623253805,1142.2133658914004
0.004701547224022131,1187.8946053409811
0.004886109671160325,1235.0956531114905
0.005077917243205399,1283.840298017657
0.005277254352483535,1334.1502174110196
0.005484416576121017,1386.0449054898484
0.005699711094326071,1439.5406130578747
0.005923457145875801,1494.6506691426268
0.006155986501483508,1551.3851798183578
0.006397643955748424,1609.750509259264
0.0066487878384172625,1669.7492318223353
0.0069097905457156435,1731.3777666313415
0.007181039092537346,1794.6268997004115
0.007462935686310132,1859.4837104956266
0.007755898323389004,1925.9331559260593
0.00806036140886134,1993.955135370028
0.008376776400682916,2063.514274848801
0.008705612479099857,2134.5601940106526
0.009047357242349292,2207.035550029554
0.00940251742967013,2280.880522890414
0.009771619672696168,2356.02881570658
0.010155211276345676,2432.40666876229
0.010553861030365234,2509.932826584179
0.010968160052731372,2588.5161183879018
0.011398722666160517,2668.04624184467
0.011846187309026826,2748.398600475508
0.012311217482038896,2829.435871888417
0.012794502732078732,2911.0059698694704
0.013296759674662111,2992.9445013282475
0.013818733056536317,3075.071489762964
0.014361196859990781,3157.192578757981
0.014924955450518284,3239.0997602241455
0.015510844769528393,3320.568311902112
0.016119733573881575,3401.3604207718563
0.01675252472408214,3481.220272332778
0.017410156523040152,3559.874514640308
0.018093604107387147,3637.037430887921
0.01880388089340914,3712.4079871850267
0.019542040079740527,3785.674238834245
0.02030917620904734,3856.5134345248434
0.021106426791015535,3924.5922182840495
0.021934973989050584,3989.571816636626
0.02279604637318978,4051.1101900169756
0.023690920741826323,4108.8643130335595
0.02462092401494623,4162.495727145201
0.02558743520168586,4211.676964815076
0.02659188744512693,4256.089718368657
0.027635770147361564,4295.442335723548
0.028720631177978267,4329.468276519324
0.029848079169243254,4357.927971206112
0.03101978590138095,4380.638211293206
0.03223748878149028,4397.446700834839
0.0335029934197723,4408.266250776666
0.03481817630688963,4413.079939001922
0.03618498759642746,4411.91292004575
0.037605453996581675,4404.898925693967
0.03908168177536263,4392.224425687413
0.04061585988376978,4374.148675461573
0.04221026320156896,4351.03435488085
0.04386725591048496,4323.272561387151
0.0455892949998106,4291.341127012057
0.047378933909631396,4255.762113461861
0.049238826317067365,4217.022348290094
0.05117173007114603,4175.521154761175
0.05318051128214196,4131.654206616384
0.05526814857144601,4086.071826928126
0.057437737488265785,4039.6203509504858
0.0596924950997073,3992.936105203647
0.0620357647610427,3945.879038682886
0.06447102107323864,3898.1134821747114
0.06700187503509585,3849.092225882832
0.06963207939763882,3798.0784443382404
0.0723655342286965,3744.3302463299456
0.07520629269592405,3687.079843555121
0.07815856707684081,3625.6117910563826
0.08122673500479707,3559.276524720031
0.08441534596012978,3487.450013939001
0.0877291280161335,3409.502428835171
0.09117299484984914,3325.0179118773963
0.09475205302806537,3233.89605023312
0.09847160957933764,3136.7421627457784
0.1023371798632519,3034.975011662173
0.10635449574860109,2931.0625302179424
0.11052951411260206,2827.8092255465826
0.1148684256737553,2727.449126781115
0.1193776641714435,2631.21842157868
0.1240639159058831,2540.2149173323496
0.12893412965257148,2455.036488556338
0.13399552696593373,2375.6096528432367
0.1392556128874462,2300.907631644217
0.14472218707411338,2228.574174479511
0.15040335536380234,2155.4818923139587
0.15630754179458153,2078.6786189613476
0.16244350109588662,1996.5688754000605
0.16882033167003618,1909.516504105665
0.17544748908334581,1819.7500811419904
0.1823348000868439,1730.766153576781
0.189492477187382,1646.152762894311
0.19693113379074215,1568.3138815680709
0.20466179993919872,1497.9240636282002
0.21269593866686892,1433.8848601832733
0.22104546299710207,1373.2000290896062
0.22972275360711503,1312.0871298747086
0.23874067718606454,1248.6032237409079
0.2481126055137766,1183.3908582591637
0.25785243528842716,1118.4251478132871
0.26797460873256895,1056.700247615527
0.27849413500806414,1000.6158157865748
0.28942661247167484,949.6191975772629
0.3007882518043098,901.2881630777132
0.31259590004822796,853.3175204316274
0.324867065587837,805.1233721402355
0.3376199441111335,758.0986031955111
0.35087344559027084,713.9211957086646
0.36464722232127456,673.241474701594
0.37896169806447155,635.0060372527608
0.3938380983288488,597.9399375774383
0.4092984818452433,561.7416310908452
0.4253657732750382,527.3982205758302
0.44206379720285277,495.3228423818088
0.45941731346364734,465.1182242551215
0.47745205385661277,436.24190788004125
0.4961947603002895,408.65075355159496
0.5156732244854959,382.7044045080787
0.5359163290848509,358.3066680128676
0.556954090580013,335.19406421290506
0.5788177037701272,313.3294104930941
0.6015395880274836,292.7597578417181
0.6251534353689703,273.40285027291196
0.6496942604146115,255.15417161751608
0.6751984523072497,237.9879358916348
0.7017038286703824,221.87429453441425
0.7292496916841444,206.7209679650709
0.7578768863625915,192.51099562900177
0.7876278611187046,179.1870951070681
0.8185467307069019,166.69540623737487
0.850679341636415,155.00374843233823
0.8840733401525058,144.0667629769312
0.9187782428863317,133.8350861199906
0.9548455102782278,124.2694474137175
0.9923286228832539,115.33306786373372
1.0312831606721837,106.99052224375627
1.0717668854455022,99.20776117908632
1.1138398264826193,91.95203143389605
1.1575643695533022,85.1914370935691
1.2030053494233226,78.89544669918367
1.2502301459914542,73.03512081879663
1.299308784200415,67.5830551978371
1.3503140378698726,62.513323331696064
1.4033215376054824,57.80145722985221
1.4584098829439835,53.42440554999889
1.5156607589006013,49.36039837850216
1.575159057091621,45.58888771008733
1.6369930016117014,42.090497083969595
1.7012542798525885,38.84696720253637
1.7680381784572046,35.841071178158366
1.8374437246107238,33.056596927406126
1.9095738328780953,30.478325370675517
1.9845354578058014,28.09198029536041
2.0624397525140905,25.88417947397675
2.143402233514853,23.842387347273437
2.227542951999554,21.954869379037927
2.314986671851158,20.210648475371762
2.405863054644063,18.599462889133818
2.5003068519063225,17.11172579305328
2.598458104929248,15.738486031811236
2.7004623524206774,14.471383534006103
2.806470846309834,13.302618496315448
2.916640776023701,12.224925339234709
3.031135501567576,11.231539962189814
3.150124795755327,10.316168450834766
3.2737850959485697,9.472956932072726
3.4022997656780634,8.696462355622597
3.5358593665351745,7.981627937228045
3.6746619407366854,7.323758505396531
3.8189133047818515,6.7184967003095375
3.968827354637162,6.161800500458697
4.1246263829013445,5.649920786234555
4.286541408420921,5.179381817637697
4.4548125188449825,4.746964402290382
4.629689226627261,4.3496882874430725
4.811430839003257,3.98479554736592
5.000306842491082,3.6497348308084447
5.196597302486189,3.3421460069412503
5.400593278542364,3.059847560196526
5.612597255954967,2.8008242330250495
5.8329235942862,2.5632150243146103
6.06189899349756,2.345301989653138
6.29986297838068,2.1454997173602144
6.547168402004727,1.9623455785714568
6.804181968927091,1.7944908153613308
7.071284778942991,1.6406921008293462
7.348872892180382,1.4998036718189183
7.637357916378006,1.3707699077898527
7.937167617217536,1.2526177890362478
8.248746552614573,1.1444513264068343
8.572556731909314,1.0454462052699491
8.909078300934132,0.9548442552752178
9.258810253973934,0.8719483253636471
9.622271173675122,0.7961180545075865
9.999999999999984,0.7267659399351699
