k [1/Mpc],P(k) [Mpc^3]
0.0001,423.19412674963536
0.00010392556829367125,438.53426625265104
0.00010800523745162529,454.43013750754966
0.00011224505680853065,470.90180912173497
0.00011665131316981963,487.9700687994269
0.00012123054013376525,505.6564672399808
0.00012598952777950273,523.9833388298977
0.00013093533273536104,542.9738176958581
0.00013607528864243335,562.6518596487273
0.00014141701702890234,583.0422789128288
0.00014696843861124463,604.1707751386674
0.00015273778503907136,626.0639653273731
0.00015873361110102093,648.7494135677704
0.00016496480740980205,672.2556436865273
0.0001714406135851971,696.6121905945723
0.00017817063195457305,721.8496495650126
0.00018516484179121546,747.9997165308647
0.000192433614111598,775.0952127079096
0.00019998772705352857,803.1700881135865
0.0002078383818579757,832.2594802326153
0.00021599721947827182,862.3997661057591
0.0002244763378413224,893.6286000285696
0.0002332883097864157,925.9849632385514
0.00024244620170823283,959.5091881262041
0.0002519635929317015,994.2430099677199
0.0002618545958474233,1030.2296055441625
0.0002721338768375308,1067.5135837648472
0.0002828166780230032,1106.1410899811792
0.0002939188398646886,1146.1598906773954
0.0003054568246515432,1187.6194311780155
0.00031744774091091926,1230.5708415633633
0.00032990936877709396,1275.0668355127118
0.00034286018635565856,1321.1618639961148
0.00035631939712285854,1368.9122480849337
0.000370306958400514,1418.3762543026764
0.00038484361094874304,1469.614115057718
0.0003999509097203664,1522.6879452610196
0.00041565125582259895,1577.6618529695522
0.00043196792973341727,1634.602027257267
0.0004489251258218605,1693.5767051612565
0.0004665479882234472,1754.6563316960035
0.000484862648123908,1817.9135365584564
0.000503896262506515,1883.4231970621124
0.0005236770544204653,1951.262566637191
0.0005442343548300266,2021.5112530786132
0.0005655986461065005,2094.251347512285
0.0005878016072274912,2169.567267832059
0.0006108761607505036,2247.545685427005
0.0006348565216305217,2328.275869957789
0.0006597782479539537,2411.8497159182516
0.0006856782936641739,2498.361833330991
0.0007125950633568407,2587.9094390188934
0.0007405684692262436,2680.592140038124
0.0007696399902471156,2776.512304512877
0.0007998527336796708,2875.7749027150608
0.000831251498989063,2978.4875943551515
0.0008638828442740447,3084.7608322458964
0.000897795155303332,3194.7075485870596
0.0009330387172620361,3308.44348668952
0.0009696657893145519,3426.0869107665276
0.001007730682094461,3547.7585024454906
0.0010472898382363582,3673.581678780934
0.0010884019160690055,3803.681961034039
0.0011311278765939214,3938.1873555779516
0.001175531073878369,4077.228060677942
0.0012216773489967915,4220.935897824454
0.0012696351276599736,4369.444980153296
0.0013194755216767058,4522.890724404897
0.0013712724343984,4681.410077508226
0.0014251026703029975,4845.141581180623
0.0014810460488806749,5014.224264955077
0.0015391855229902056,5188.798469501674
0.001599607301861487,5369.00467631372
0.0016624009789266115,5554.983210906449
0.0017276596646690358,5746.874715906222
0.0017954801246878305,5944.818091055911
0.0018659629231817451,6148.951539759246
0.001939212572065829,6359.411895909161
0.0020153376859417325,6576.333617890203
0.002094451143151469,6799.849437714773
0.002176670253153458,7030.087250670264
0.002262116930469025,7267.17088764058
0.002350917875457286,7511.220404380914
0.002443204762186487,7762.3504392023315
0.0025391144336803463,8020.670895197008
0.002638789104828933,8286.283597033615
0.002742376573264949,8559.281918442368
0.0028500304385181063,8839.751604866655
0.0029619103297725525,9127.767398631842
0.0030781821425650787,9423.394521034425
0.003199018284775064,9726.686165485
0.0033245979322709396,10037.681654022494
0.003455107294592217,10356.407737357005
0.0035907398910610534,10682.873452881166
0.0037316968377327513,11017.07160801124
0.0038781871456107214,11358.977208701011
0.0040304280305680515,11708.543459571656
0.00418864523543527,12065.704484951482
0.004353073364731888,12430.369418404078
0.00452395623253805,12802.422608177343
0.004701547224022131,13181.723230067542
0.004886109671160325,13568.097128760179
0.005077917243205399,13961.342247444374
0.005277254352483535,14361.224118801265
0.005484416576121017,14767.473844887058
0.005699711094326071,15179.786455064308
0.005923457145875801,15597.793362001097
0.006155986501483508,16021.079177500718
0.006397643955748424,16449.217946570014
0.0066487878384172625,16881.794342516834
0.0069097905457156435,17318.34806580015
0.007181039092537346,17758.21230794026
0.007462935686310132,18200.571162284952
0.007755898323389004,18644.60408903434
0.00806036140886134,19089.591538308458
0.008376776400682916,19534.791655687863
0.008705612479099857,19979.27431737334
0.009047357242349292,20421.92432675531
0.00940251742967013,20861.584107936083
0.009771619672696168,21297.14516760488
0.010155211276345676,21727.480334119864
0.010553861030365234,22151.31446032973
0.010968160052731372,22567.1767827496
0.011398722666160517,22973.52266416459
0.011846187309026826,23368.685005841624
0.012311217482038896,23750.91443406824
0.012794502732078732,24118.37860770337
0.013296759674662111,24469.11937857667
0.013818733056536317,24801.127781378076
0.014361196859990781,25112.267579436004
0.014924955450518284,25400.311211019132
0.015510844769528393,25662.978168286336
0.016119733573881575,25897.81647592174
0.01675252472408214,26102.356075827836
0.017410156523040152,26274.05149878353
0.018093604107387147,26410.284359265854
0.01880388089340914,26508.4905891822
0.019542040079740527,26566.015447431146
0.02030917620904734,26580.28126650524
0.021106426791015535,26548.795130514547
0.021934973989050584,26469.096538273527
0.02279604637318978,26338.970040748136
0.023690920741826323,26156.339494591248
0.02462092401494623,25919.394402529422
0.02558743520168586,25626.70679631791
0.02659188744512693,25277.188019351335
0.027635770147361564,24870.25415781554
0.028720631177978267,24405.890200775026
0.029848079169243254,23884.682395402942
0.03101978590138095,23307.89745016758
0.03223748878149028,22677.696004440528
0.0335029934197723,21996.927973525904
0.03481817630688963,21269.402530687472
0.03618498759642746,20499.97918346731
0.037605453996581675,19694.053194741253
0.03908168177536263,18858.385521592074
0.04061585988376978,18000.259726842938
0.04221026320156896,17127.54546432148
0.04386725591048496,16249.480873842696
0.0455892949998106,15374.761090180018
0.047378933909631396,14512.82371431682
0.049238826317067365,13672.988468926687
0.05117173007114603,12863.49314296407
0.05318051128214196,12093.189539942257
0.05526814857144601,11369.403752868759
0.057437737488265785,10699.457162357434
0.0596924950997073,10090.306649064561
0.0620357647610427,9545.871549216768
0.06447102107323864,9066.958811892777
0.06700187503509585,8652.77428509464
0.06963207939763882,8300.522586629582
0.0723655342286965,8006.114521862649
0.07520629269592405,7763.356233487651
0.07815856707684081,7564.256145557428
0.08122673500479707,7398.6290816743285
0.08441534596012978,7252.852885848313
0.0877291280161335,7111.855813527245
0.09117299484984914,6960.03060262794
0.09475205302806537,6779.335384422145
0.09847160957933764,6553.372952581405
0.1023371798632519,6271.644830576153
0.10635449574860109,5930.667130511007
0.11052951411260206,5535.359375975028
0.1148684256737553,5098.10686613286
0.1193776641714435,4638.147423481508
0.1240639159058831,4179.704766959894
0.12893412965257148,3748.5478502025458
0.13399552696593373,3368.207022999047
0.1392556128874462,3056.239683891413
0.14472218707411338,2821.522363117716
0.15040335536380234,2663.6335109171523
0.15630754179458153,2573.17894146299
0.16244350109588662,2531.8046564093515
0.16882033167003618,2512.6739661935712
0.17544748908334581,2483.6203615315594
0.1823348000868439,2414.0873583058215
0.189492477187382,2284.269996940372
0.19693113379074215,2093.543092250886
0.20466179993919872,1863.7715361963121
0.21269593866686892,1631.8607864976166
0.22104546299710207,1434.1476001337903
0.22972275360711503,1294.3063991146048
0.23874067718606454,1218.578974496093
0.2481126055137766,1193.2622099441621
0.25785243528842716,1186.5996668685182
0.26797460873256895,1161.447413423907
0.27849413500806414,1092.0471416758683
0.28942661247167484,979.2627727173833
0.3007882518043098,852.5712583141217
0.31259590004822796,749.3606008760698
0.324867065587837,690.4052714078504
0.3376199441111335,669.159524247811
0.35087344559027084,657.831235145841
0.36464722232127456,625.4421820119649
0.37896169806447155,563.035834141101
0.3938380983288488,492.76845670420937
0.4092984818452433,442.55023140708914
0.4253657732750382,419.68940368858324
0.44206379720285277,406.13173418720487
0.45941731346364734,379.1402093828444
0.47745205385661277,337.90605156844094
0.4961947603002895,301.863152216807
0.5156732244854959,282.24371475446776
0.5359163290848509,268.51434044169906
0.556954090580013,246.68591889002994
0.5788177037701272,220.78230664574818
0.6015395880274836,202.6811809265768
0.6251534353689703,190.49289591561347
0.6496942604146115,174.9632839747179
0.6751984523072497,158.02137090271773
0.7017038286703824,145.85479272735233
0.7292496916841444,135.23882073496017
0.7578768863625915,122.98210515085961
0.7876278611187046,112.64862414106264
0.8185467307069019,103.59500040774968
0.850679341636415,95.0757086626476
0.8840733401525058,87.12845044630788
0.9187782428863317,79.77303117785773
0.9548455102782278,73.00394465661581
0.9923286228832539,66.78394544521467
1.0312831606721837,61.07332745456056
1.0717668854455022,55.8345612411263
1.1138398264826193,51.03227159239442
1.1575643695533022,46.63304367032094
1.2030053494233226,42.60397571054691
1.2502301459914542,38.9138413257677
1.299308784200415,35.53412536293664
1.3503140378698726,32.43879028783638
1.4033215376054824,29.604049781422017
1.4584098829439835,27.00843871145489
1.5156607589006013,24.632821512124323
1.575159057091621,22.459546627407956
1.6369930016117014,20.472259275489538
1.7012542798525885,18.65581994065645
1.7680381784572046,16.996213767552245
1.8374437246107238,15.48038222102491
1.9095738328780953,14.096245607773925
1.9845354578058014,12.832702727273187
2.0624397525140905,11.679555639741661
2.143402233514853,10.627439285638534
2.227542951999554,9.66776462643355
2.314986671851158,8.792662024446983
2.405863054644063,7.994906854970491
2.5003068519063225,7.267867399759168
2.598458104929248,6.605458701799895
2.7004623524206774,6.002099394957471
2.806470846309834,5.452669783118936
2.916640776023701,4.952477542716852
3.031135501567576,4.497225094020262
3.150124795755327,4.082977797363377
3.2737850959485697,3.7061345526678986
3.4022997656780634,3.3634000111488347
3.5358593665351745,3.051759380944608
3.6746619407366854,2.7684566137023765
3.8189133047818515,2.5109731009963294
3.968827354637162,2.277007925539754
4.1246263829013445,2.0644596593850237
4.286541408420921,1.8714095161617017
4.4548125188449825,1.6961061205781807
4.629689226627261,1.536951438078187
4.811430839003257,1.3924877639811362
5.000306842491082,1.2613857712005856
5.196597302486189,1.1424333956839121
5.400593278542364,1.0345257640199794
5.612597255954967,0.9366562158734346
5.8329235942862,0.8479078283378365
6.06189899349756,0.7674456274118608
6.29986297838068,0.6945094579523793
6.547168402004727,0.6284074687890238
6.804181968927091,0.5685101087130915
7.071284778942991,0.5142446454010927
7.348872892180382,0.46509016224179506
7.637357916378006,0.42057297827733714
7.937167617217536,0.38026229192540945
8.248746552614573,0.34376638129111686
8.572556731909314,0.3107293889487206
8.909078300934132,0.28082811760629994
9.258810253973934,0.2537690875488752
9.622271173675122,0.22928591895328584
9.999999999999984,0.2071371156249394
