k [1/Mpc],P(k) [Mpc^3]
0.0001,126.98104614175155
0.00010392556829367125,132.3449093872462
0.00010800523745162529,137.93515255098993
0.00011224505680853065,143.76128960003516
0.00011665131316981963,149.83323403326202
0.00012123054013376525,156.16133078685425
0.00012598952777950273,162.75636414639644
0.00013093533273536104,169.6295596375978
0.00013607528864243335,176.79259401560617
0.00014141701702890234,184.25762860704938
0.00014696843861124463,192.0373315357694
0.00015273778503907136,200.14489822959655
0.00015873361110102093,208.59407543289683
0.00016496480740980205,217.39918873349507
0.0001714406135851971,226.57515934141685
0.00017817063195457305,236.13749811425885
0.00018516484179121546,246.10232995410615
0.000192433614111598,256.4864459406016
0.00019998772705352857,267.3073470511135
0.0002078383818579757,278.5832601618276
0.00021599721947827182,290.3331460139334
0.0002244763378413224,302.5767203677441
0.0002332883097864157,315.334499198249
0.00024244620170823283,328.62780749738226
0.0002519635929317015,342.4788227053634
0.0002618545958474233,356.9106181465328
0.0002721338768375308,371.94719663490855
0.0002828166780230032,387.613524761048
0.0002939188398646886,403.9355238566316
0.0003054568246515432,420.9401132598224
0.00031744774091091926,438.6552783907579
0.00032990936877709396,457.1101078819791
0.00034286018635565856,476.33483590139565
0.00035631939712285854,496.36082538086043
0.000370306958400514,517.2205906028174
0.00038484361094874304,538.9478938862648
0.0003999509097203664,561.5777669750996
0.00041565125582259895,585.1465703197841
0.00043196792973341727,609.6920054785148
0.0004489251258218605,635.2531159746293
0.0004665479882234472,661.8703909099834
0.000484862648123908,689.5857570145845
0.000503896262506515,718.4426418825673
0.0005236770544204653,748.4860181956101
0.0005442343548300266,779.7623602728592
0.0005655986461065005,812.3197731612418
0.0005878016072274912,846.207982572379
0.0006108761607505036,881.4783697689577
0.0006348565216305217,918.1840566615272
0.0006597782479539537,956.3798228075941
0.0006856782936641739,996.1222327080166
0.0007125950633568407,1037.4696118612621
0.0007405684692262436,1080.4820030308556
0.0007696399902471156,1125.2213261422644
0.0007998527336796708,1171.7512522562831
0.000831251498989063,1220.1373004997974
0.0008638828442740447,1270.4468153609562
0.000897795155303332,1322.7487389608075
0.0009330387172620361,1377.1138823494982
0.0009696657893145519,1433.61472362308
0.001007730682094461,1492.3254167041125
0.0010472898382363582,1553.3218668053842
0.0010884019160690055,1616.6812567203933
0.0011311278765939214,1682.4823713603193
0.001175531073878369,1750.8053327865969
0.0012216773489967915,1821.73136547858
0.0012696351276599736,1895.343091061067
0.0013194755216767058,1971.7239263459217
0.0013712724343984,2050.9582743129267
0.0014251026703029975,2133.1312750319785
0.0014810460488806749,2218.328130951811
0.0015391855229902056,2306.634630992678
0.001599607301861487,2398.136529437569
0.0016624009789266115,2492.9194720368473
0.0017276596646690358,2591.0688524253296
0.0017954801246878305,2692.6685811952902
0.0018659629231817451,2797.8017163453087
0.001939212572065829,2906.5498843827295
0.0020153376859417325,3018.992824130033
0.002094451143151469,3135.2084684878337
0.002176670253153458,3255.2713748926294
0.002262116930469025,3379.253104002701
0.002350917875457286,3507.221735546415
0.002443204762186487,3639.2408409326395
0.0025391144336803463,3775.3698236686078
0.002638789104828933,3915.6620007266747
0.002742376573264949,4060.1645408916484
0.0028500304385181063,4208.918283078326
0.0029619103297725525,4361.9558527199115
0.0030781821425650787,4519.30232323127
0.003199018284775064,4680.972998883508
0.0033245979322709396,4846.972538399837
0.003455107294592217,5017.295605253788
0.0035907398910610534,5191.924433893182
0.0037316968377327513,5370.82935218037
0.0038781871456107214,5553.9658913693265
0.0040304280305680515,5741.272001708806
0.00418864523543527,5932.670763290887
0.004353073364731888,6128.068281299044
0.00452395623253805,6327.353627595972
0.004701547224022131,6530.3927148552575
0.004886109671160325,6737.016740102045
0.005077917243205399,6947.034589280791
0.005277254352483535,7160.255486490436
0.005484416576121017,7376.487879472503
0.005699711094326071,7595.499466740182
0.005923457145875801,7816.935500769358
0.006155986501483508,8040.38204696891
0.006397643955748424,8265.442522597636
0.0066487878384172625,8491.762401478345
0.0069097905457156435,8718.955754251501
0.007181039092537346,8946.512766048563
0.007462935686310132,9173.844846268736
0.007755898323389004,9400.35349471538
0.00806036140886134,9625.466815169531
0.008376776400682916,9848.587745216088
0.008705612479099857,10069.012714322376
0.009047357242349292,10285.948301419212
0.00940251742967013,10498.551751900544
0.009771619672696168,10705.896172610046
0.010155211276345676,10907.010111583022
0.010553861030365234,11100.876466105487
0.010968160052731372,11286.433983203948
0.011398722666160517,11462.585908028886
0.011846187309026826,11628.131897134888
0.012311217482038896,11781.826419596253
0.012794502732078732,11922.377431349343
0.013296759674662111,12048.419323896938
0.013818733056536317,12158.584605923183
0.014361196859990781,12251.441441686922
0.014924955450518284,12325.54257126988
0.015510844769528393,12379.458566960007
0.016119733573881575,12411.719224265913
0.01675252472408214,12420.92547091246
0.017410156523040152,12405.708759529218
0.018093604107387147,12364.759064339234
0.01880388089340914,12296.913981665475
0.019542040079740527,12201.103245915689
0.02030917620904734,12076.453546537268
0.021106426791015535,11922.315998099548
0.021934973989050584,11738.275261904784
0.02279604637318978,11524.229952008183
0.023690920741826323,11280.446038497668
0.02462092401494623,11007.55292147865
0.02558743520168586,10706.609129559398
0.02659188744512693,10379.202577941543
0.027635770147361564,10027.284016642192
0.028720631177978267,9653.466276966188
0.029848079169243254,9260.860438215079
0.03101978590138095,8852.869689240413
0.03223748878149028,8433.63562710043
0.0335029934197723,8007.334168819019
0.03481817630688963,7578.7793891905885
0.03618498759642746,7153.401453939723
0.037605453996581675,6736.006074641119
0.03908168177536263,6331.216807473873
0.04061585988376978,5942.989175152835
0.04221026320156896,5575.603218112462
0.04386725591048496,5234.702756082352
0.0455892949998106,4924.603620201027
0.047378933909631396,4647.852079994518
0.049238826317067365,4405.874994292942
0.05117173007114603,4198.903252812656
0.05318051128214196,4026.333921075252
0.05526814857144601,3886.6229317823686
0.057437737488265785,3777.255823704369
0.0596924950997073,3695.025405753773
0.0620357647610427,3635.8745571017935
0.06447102107323864,3593.8441629317085
0.06700187503509585,3561.244020183216
0.06963207939763882,3527.7983247210586
0.0723655342286965,3482.5670569828226
0.07520629269592405,3414.998721573325
0.07815856707684081,3316.525630715794
0.08122673500479707,3181.9233890635314
0.08441534596012978,3010.1071159838966
0.0877291280161335,2804.3951611444018
0.09117299484984914,2572.457180448344
0.09475205302806537,2325.961446043656
0.09847160957933764,2079.6356198357107
0.1023371798632519,1849.9583404514292
0.10635449574860109,1651.8022311800355
0.11052951411260206,1495.5581883059767
0.1148684256737553,1385.7430863954676
0.1193776641714435,1320.8816893840365
0.1240639159058831,1294.1352887581986
0.12893412965257148,1293.734986362242
0.13399552696593373,1303.3516170880757
0.1392556128874462,1303.6724711201878
0.14472218707411338,1276.037439190085
0.15040335536380234,1208.1956385172773
0.15630754179458153,1100.9029145116801
0.16244350109588662,970.3623984433384
0.16882033167003618,841.3065265992005
0.17544748908334581,735.5147237872116
0.1823348000868439,665.8781945881509
0.189492477187382,634.8789677438302
0.19693113379074215,632.7778965046662
0.20466179993919872,639.0132044689564
0.21269593866686892,630.4292826009853
0.22104546299710207,592.0008602578284
0.22972275360711503,526.643392513214
0.23874067718606454,454.76417733001557
0.2481126055137766,399.48549268551346
0.25785243528842716,371.8927554777737
0.26797460873256895,366.0333814729568
0.27849413500806414,363.8062762350168
0.28942661247167484,346.2079540836703
0.3007882518043098,310.03701247325205
0.31259590004822796,270.51322829770794
0.324867065587837,244.50301345371255
0.3376199441111335,234.70841778934553
0.35087344559027084,228.81274292135078
0.36464722232127456,213.5296817627215
0.37896169806447155,189.97689838938865
0.3938380983288488,170.5959844236838
0.4092984818452433,160.98706244937682
0.4253657732750382,153.86348815942986
0.44206379720285277,141.37288380393133
0.45941731346364734,126.96092333624078
0.47745205385661277,117.42807666000546
0.4961947603002895,110.84150651881438
0.5156732244854959,101.97922622460298
0.5359163290848509,92.57782334335053
0.556954090580013,85.95323559019525
0.5788177037701272,79.91684773698496
0.6015395880274836,72.98271819389218
0.6251534353689703,67.18605490681878
0.6496942604146115,62.315630950075686
0.6751984523072497,57.509512093635074
0.7017038286703824,52.84151692040474
0.7292496916841444,48.44281647558352
0.7578768863625915,44.40437916885671
0.7876278611187046,40.753437457820425
0.8185467307069019,37.44115076444578
0.850679341636415,34.41875784194401
0.8840733401525058,31.645854243896313
0.9187782428863317,29.088990148123806
0.9548455102782278,26.721251552426907
0.9923286228832539,24.528153185739892
1.0312831606721837,22.501238930641865
1.0717668854455022,20.631781401102845
1.1138398264826193,18.91084465092426
1.1575643695533022,17.32942699868732
1.2030053494233226,15.878022123979846
1.2502301459914542,14.54597534689177
1.299308784200415,13.323269603337678
1.3503140378698726,12.200779816877354
1.4033215376054824,11.17018709938359
1.4584098829439835,10.22391401870845
1.5156607589006013,9.355240602221041
1.575159057091621,8.558132860409765
1.6369930016117014,7.8269922650521755
1.7012542798525885,7.15662282359727
1.7680381784572046,6.5422061499577575
1.8374437246107238,5.979266196284373
1.9095738328780953,5.463620276249179
1.9845354578058014,4.991403138641414
2.0624397525140905,4.55905542475758
2.143402233514853,4.163300369626972
2.227542951999554,3.8011223113636237
2.314986671851158,3.469749617188258
2.405863054644063,3.1666351862097377
2.5003068519063225,2.889435275133341
2.598458104929248,2.6359938019648657
2.7004623524206774,2.40432798926645
2.806470846309834,2.192614887773282
2.916640776023701,1.999178459302712
3.031135501567576,1.8224789055974617
3.150124795755327,1.66110230536462
3.2737850959485697,1.5137507057438648
3.4022997656780634,1.379232953060503
3.5358593665351745,1.2564560463293177
3.6746619407366854,1.1444172998012059
3.8189133047818515,1.042197403515329
3.968827354637162,0.9489537343808881
4.1246263829013445,0.8639141596894813
4.286541408420921,0.7863713063298892
4.4548125188449825,0.715677204399594
4.629689226627261,0.6512385300199129
4.811430839003257,0.592512181926312
5.000306842491082,0.5390011481964476
5.196597302486189,0.49025070140860816
5.400593278542364,0.4458449047317038
5.612597255954967,0.405403394650679
5.8329235942862,0.3685784026173419
6.06189899349756,0.33505203163280073
6.29986297838068,0.30453375509541347
6.547168402004727,0.2767581031333465
6.804181968927091,0.25148241804474464
7.071284778942991,0.2284850387893358
7.348872892180382,0.2075636250993941
7.637357916378006,0.18853350720578047
7.937167617217536,0.17122617210718452
8.248746552614573,0.155487959237274
8.572556731909314,0.1411788819394991
8.909078300934132,0.12817122141495463
9.258810253973934,0.11634844117272428
9.622271173675122,0.10560423321091841
9.999999999999984,0.09584161735178372
