k [1/Mpc],P(k) [Mpc^3]
0.0001,651.3582133633826
0.00010392556829367125,680.7647624395505
0.00010800523745162529,711.4919914991136
0.00011224505680853065,743.5983628463889
0.00011665131316981963,777.1448146486003
0.00012123054013376525,812.194808686103
0.00012598952777950273,848.8145005117881
0.00013093533273536104,887.0727881028694
0.00013607528864243335,927.0414367622051
0.00014141701702890234,968.7951910458743
0.00014696843861124463,1012.4117772560459
0.00015273778503907136,1057.9721178035807
0.00015873361110102093,1105.5603666541597
0.00016496480740980205,1155.264003882057
0.0001714406135851971,1207.1740263080435
0.00017817063195457305,1261.3848769256256
0.00018516484179121546,1317.9946881132116
0.000192433614111598,1377.1053565696873
0.00019998772705352857,1438.8225509109582
0.0002078383818579757,1503.2559790160255
0.00021599721947827182,1570.5191555345914
0.0002244763378413224,1640.729627714044
0.0002332883097864157,1714.0091904115359
0.00024244620170823283,1790.483747612383
0.0002519635929317015,1870.2836580103237
0.0002618545958474233,1953.5435177679171
0.0002721338768375308,2040.402211356332
0.0002828166780230032,2131.003203238502
0.0002939188398646886,2225.494042860383
0.0003054568246515432,2324.0268221150113
0.00031744774091091926,2426.7580878597178
0.00032990936877709396,2533.848626515553
0.00034286018635565856,2645.4638742445663
0.00035631939712285854,2761.773229225111
0.000370306958400514,2882.950325876703
0.00038484361094874304,3009.173109427139
0.0003999509097203664,3140.6232409107106
0.00041565125582259895,3277.486602060277
0.00043196792973341727,3419.9525986989534
0.0004489251258218605,3568.2140414577393
0.0004665479882234472,3722.4673099137635
0.000484862648123908,3882.9110802005584
0.000503896262506515,4049.746928052599
0.0005236770544204653,4223.178667410083
0.0005442343548300266,4403.411619714858
0.0005655986461065005,4590.652973658058
0.0005878016072274912,4785.109557646945
0.0006108761607505036,4986.988251733503
0.0006348565216305217,5196.495368909352
0.0006597782479539537,5413.8344751289105
0.0006856782936641739,5639.20749781573
0.0007125950633568407,5872.811375035295
0.0007405684692262436,6114.837521192129
0.0007696399902471156,6365.4722149985955
0.0007998527336796708,6624.892590523563
0.000831251498989063,6893.268075196478
0.0008638828442740447,7170.757053778729
0.000897795155303332,7457.504311435146
0.0009330387172620361,7753.64304040559
0.0009696657893145519,8059.292469175798
0.001007730682094461,8374.557198707771
0.0010472898382363582,8699.522350119689
0.0010884019160690055,9034.246905529215
0.0011311278765939214,9378.769219671958
0.001175531073878369,9733.114884881463
0.0012216773489967915,10097.293922931165
0.0012696351276599736,10471.287330813124
0.0013194755216767058,10855.027711883624
0.0013712724343984,11248.412482428332
0.0014251026703029975,11651.311345637203
0.0014810460488806749,12063.565991273044
0.0015391855229902056,12484.982663371566
0.001599607301861487,12915.324448717343
0.0016624009789266115,13354.312844215674
0.0017276596646690358,13801.628855571289
0.0017954801246878305,14256.911941243878
0.0018659629231817451,14719.7576845278
0.001939212572065829,15189.713776132086
0.0020153376859417325,15666.27949945682
0.002094451143151469,16148.906191797805
0.002176670253153458,16636.996190105994
0.002262116930469025,17129.90228792539
0.002350917875457286,17626.925203724102
0.002443204762186487,18127.313013982388
0.0025391144336803463,18630.26065353837
0.002638789104828933,19134.89879597885
0.002742376573264949,19640.302156747308
0.0028500304385181063,20145.504883208563
0.0029619103297725525,20649.510038222437
0.0030781821425650787,21151.263289162132
0.003199018284775064,21649.5290990509
0.0033245979322709396,22142.938869043865
0.003455107294592217,22630.220253623655
0.0035907398910610534,23110.49776486648
0.0037316968377327513,23582.928563806272
0.0038781871456107214,24045.825210574916
0.0040304280305680515,24496.650744957613
0.00418864523543527,24932.971747764008
0.004353073364731888,25353.442554293284
0.00452395623253805,25757.067750402373
0.004701547224022131,26142.319728424893
0.004886109671160325,26506.824289573495
0.005077917243205399,26848.1882609936
0.005277254352483535,27164.70080427782
0.005484416576121017,27455.039254870313
0.005699711094326071,27717.636140799983
0.005923457145875801,27950.21907457064
0.006155986501483508,28150.435735265262
0.006397643955748424,28315.816676756625
0.0066487878384172625,28443.825962773066
0.0069097905457156435,28532.03460118245
0.007181039092537346,28578.163398748133
0.007462935686310132,28580.095397301273
0.007755898323389004,28535.53145121582
0.00806036140886134,28441.89852341774
0.008376776400682916,28296.825998111937
0.008705612479099857,28097.954474248756
0.009047357242349292,27843.165056747875
0.00940251742967013,27530.437026356078
0.009771619672696168,27157.517157186994
0.010155211276345676,26722.62319814221
0.010553861030365234,26224.093339530144
0.010968160052731372,25660.647459300748
0.011398722666160517,25031.596235574663
0.011846187309026826,24336.161454304514
0.012311217482038896,23574.475147620855
0.012794502732078732,22747.192196323023
0.013296759674662111,21855.530923352537
0.013818733056536317,20902.051257187984
0.014361196859990781,19889.562226346414
0.014924955450518284,18822.280742689207
0.015510844769528393,17705.679740776184
0.016119733573881575,16545.9195031735
0.01675252472408214,15351.232114710254
0.017410156523040152,14130.44185111634
0.018093604107387147,12893.804431328199
0.01880388089340914,11653.28995746698
0.019542040079740527,10421.05030506402
0.02030917620904734,9210.946180772848
0.021106426791015535,8036.68787353174
0.021934973989050584,6911.765650301824
0.02279604637318978,5850.330166268678
0.023690920741826323,4865.310643593928
0.02462092401494623,3968.3396153552562
0.02558743520168586,3168.308684245791
0.02659188744512693,2470.4883917875395
0.027635770147361564,1877.136065573752
0.028720631177978267,1387.345726471279
0.029848079169243254,995.8359568936406
0.03101978590138095,694.586550984269
0.03223748878149028,473.8520067786842
0.0335029934197723,318.9107135131166
0.03481817630688963,218.03423261168365
0.03618498759642746,159.12441960188198
0.037605453996581675,129.92896536275845
0.03908168177536263,122.85748956532463
0.04061585988376978,137.8506324472081
0.04221026320156896,177.3584864585685
0.04386725591048496,246.13621392142153
0.0455892949998106,351.9145851452957
0.047378933909631396,500.2921750391958
0.049238826317067365,689.2436101612155
0.05117173007114603,903.769063607515
0.05318051128214196,1121.9341468282094
0.05526814857144601,1315.7540278388144
0.057437737488265785,1453.8188990953947
0.0596924950997073,1506.3844977962965
0.0620357647610427,1453.6706200232175
0.06447102107323864,1294.976923124059
0.06700187503509585,1056.5572102828996
0.06963207939763882,777.4799671314446
0.0723655342286965,506.5887877742293
0.07520629269592405,289.6337207511177
0.07815856707684081,143.97021094358794
0.08122673500479707,64.05300986872071
0.08441534596012978,30.10193130551868
0.0877291280161335,23.239435934317676
0.09117299484984914,34.58239512340162
0.09475205302806537,73.33434069232541
0.09847160957933764,148.42152347620586
0.1023371798632519,251.94658743717494
0.10635449574860109,347.54045142186146
0.11052951411260206,390.930253582085
0.1148684256737553,358.0752044483491
0.1193776641714435,261.9470945498147
0.1240639159058831,150.08030050048623
0.12893412965257148,68.47892215041193
0.13399552696593373,29.137963244387297
0.1392556128874462,19.40575827895344
0.14472218707411338,29.68020298713774
0.15040335536380234,61.611023374767804
0.15630754179458153,106.84379232774786
0.16244350109588662,134.30795573095747
0.16882033167003618,119.43268365403081
0.17544748908334581,76.02702243618639
0.1823348000868439,37.46674200592417
0.189492477187382,20.672519796057063
0.19693113379074215,21.884776699968622
0.20466179993919872,36.40691656080368
0.21269593866686892,53.1406129496519
0.22104546299710207,53.36623268067248
0.22972275360711503,36.79225179271738
0.23874067718606454,21.34616107977146
0.2481126055137766,16.957200796291716
0.25785243528842716,21.62581258775489
0.26797460873256895,27.566570780445403
0.27849413500806414,25.296943112226547
0.28942661247167484,17.61671864425693
0.3007882518043098,13.545397013161237
0.31259590004822796,14.662056274883499
0.324867065587837,16.26747497587059
0.3376199441111335,14.038910358188824
0.35087344559027084,10.915323085802811
0.36464722232127456,10.287383410636687
0.37896169806447155,10.63640291266206
0.3938380983288488,9.467075793970675
0.4092984818452433,8.000422152795034
0.4253657732750382,7.635552998033262
0.44206379720285277,7.242564019144016
0.45941731346364734,6.350073878860232
0.47745205385661277,5.824775368473784
0.4961947603002895,5.440167382596642
0.5156732244854959,5.033075769759244
0.5359163290848509,4.613206090750424
0.556954090580013,4.20067422890745
0.5788177037701272,3.8104947187249487
0.6015395880274836,3.452942929051572
0.6251534353689703,3.1342185033715677
0.6496942604146115,2.853468369413478
0.6751984523072497,2.6039580776116145
0.7017038286703824,2.3799139808561485
0.7292496916841444,2.1767276493768204
0.7578768863625915,1.9907269823990084
0.7876278611187046,1.8191867388563716
0.8185467307069019,1.6610233890491355
0.850679341636415,1.5156297880397598
0.8840733401525058,1.3823427386469098
0.9187782428863317,1.260462293679864
0.9548455102782278,1.1492677498146124
0.9923286228832539,1.0479403255631676
1.0312831606721837,0.9555637995649605
1.0717668854455022,0.8713020771677332
1.1138398264826193,0.7944047942079291
1.1575643695533022,0.7241976836413202
1.2030053494233226,0.6600777850721031
1.2502301459914542,0.6015264695468038
1.299308784200415,0.5480792725417105
1.3503140378698726,0.4993078980226512
1.4033215376054824,0.4548176698170335
1.4584098829439835,0.4142451604748921
1.5156607589006013,0.37725354793918303
1.575159057091621,0.34352968164681796
1.6369930016117014,0.3127871747898131
1.7012542798525885,0.2847646237765286
1.7680381784572046,0.25922343113328017
1.8374437246107238,0.23594588768994593
1.9095738328780953,0.21473383510427244
1.9845354578058014,0.19540651718566163
2.0624397525140905,0.17779874609562
2.143402233514853,0.16175958355034017
2.227542951999554,0.14715113438834115
2.314986671851158,0.1338474763408775
2.405863054644063,0.12173366752691574
2.5003068519063225,0.11070472929104237
2.598458104929248,0.10066479016944732
2.7004623524206774,0.09152631205060117
2.806470846309834,0.08320937275087105
2.916640776023701,0.0756409495418636
3.031135501567576,0.06875438320041233
3.150124795755327,0.06248888202371487
3.2737850959485697,0.05678901255610085
3.4022997656780634,0.05160423321974974
3.5358593665351745,0.04688847104407978
3.6746619407366854,0.04259973481231802
3.8189133047818515,0.03869975052750232
3.968827354637162,0.03515363540874559
4.1246263829013445,0.0319296012764285
4.286541408420921,0.028998683338741005
4.4548125188449825,0.02633449075568818
4.629689226627261,0.02391298185268644
4.811430839003257,0.021712259054256475
5.000306842491082,0.01971237994084679
5.196597302486189,0.017895184709357637
5.400593278542364,0.01624414033900395
5.612597255954967,0.01474419899875693
5.8329235942862,0.01338166158549482
6.06189899349756,0.012144057465708147
6.29986297838068,0.011020035693932615
6.547168402004727,0.009999265302133962
6.804181968927091,0.009072338977982448
7.071284778942991,0.008230694310545824
7.348872892180382,0.007466544072181831
7.637357916378006,0.0067728067230373844
7.937167617217536,0.006143042946472513
8.248746552614573,0.005571399655896609
8.572556731909314,0.005052560518725839
8.909078300934132,0.004581691531996606
9.258810253973934,0.004154396479673345
9.622271173675122,0.003766677789390092
9.999999999999984,0.0034149003196051247
