k [1/Mpc],P(k) [Mpc^3]
0.0001,4677.153106842087
0.00010392556829367125,4832.168549440127
0.00010800523745162529,4992.273093545853
0.00011224505680853065,5157.628261320218
0.00011665131316981963,5328.400216630763
0.00012123054013376525,5504.759956514054
0.00012598952777950273,5686.882964310221
0.00013093533273536104,5874.948688259606
0.00013607528864243335,6069.141487772398
0.00014141701702890234,6269.650707596675
0.00014696843861124463,6476.670828562804
0.00015273778503907136,6690.401135704831
0.00015873361110102093,6911.0446019622805
0.00016496480740980205,7138.809120460907
0.0001714406135851971,7373.907300394524
0.00017817063195457305,7616.556489341921
0.00018516484179121546,7866.978949878787
0.000192433614111598,8125.400390460414
0.00019998772705352857,8392.051087921693
0.0002078383818579757,8667.165202612807
0.00021599721947827182,8950.9801168886
0.0002244763378413224,9243.737572219052
0.0002332883097864157,9545.68184450646
0.00024244620170823283,9857.060617851323
0.0002519635929317015,10178.124574946547
0.0002618545958474233,10509.125813921271
0.0002721338768375308,10850.319408444333
0.0002828166780230032,11201.960450176535
0.0002939188398646886,11564.304545479143
0.0003054568246515432,11937.60869459104
0.00031744774091091926,12322.12911256108
0.00032990936877709396,12718.122638353332
0.00034286018635565856,13125.843368051857
0.00035631939712285854,13545.541885948373
0.000370306958400514,13977.467111011762
0.00038484361094874304,14421.862812352827
0.0003999509097203664,14878.969265766675
0.00041565125582259895,15349.021229734733
0.00043196792973341727,15832.24590255683
0.0004489251258218605,16328.864466735855
0.0004665479882234472,16839.08640461952
0.000484862648123908,17363.111188729414
0.000503896262506515,17901.127424047852
0.0005236770544204653,18453.30891054964
0.0005442343548300266,19019.817104837195
0.0005655986461065005,19600.79445362409
0.0005878016072274912,20196.364648436593
0.0006108761607505036,20806.631756372823
0.0006348565216305217,21431.67035231973
0.0006597782479539537,22071.53210453876
0.0006856782936641739,22726.238544584605
0.0007125950633568407,23395.778666251084
0.0007405684692262436,24080.110693557494
0.0007696399902471156,24779.145324690147
0.0007998527336796708,25492.754857239164
0.000831251498989063,26220.76835429258
0.0008638828442740447,26962.965027924663
0.000897795155303332,27719.080464243067
0.0009330387172620361,28488.791344707253
0.0009696657893145519,29271.72045210948
0.001007730682094461,30067.43467843609
0.0010472898382363582,30875.434430322035
0.0010884019160690055,31695.16341150596
0.0011311278765939214,32526.00826572716
0.001175531073878369,33367.297110751606
0.0012216773489967915,34218.29264817871
0.0012696351276599736,35078.17726381896
0.0013194755216767058,35946.06427409792
0.0013712724343984,36820.98366567418
0.0014251026703029975,37701.879440249584
0.0014810460488806749,38587.62570279005
0.0015391855229902056,39477.03273783994
0.001599607301861487,40368.8429649582
0.0016624009789266115,41261.72996839503
0.0017276596646690358,42154.29957941182
0.0017954801246878305,43045.08763624499
0.0018659629231817451,43932.54361213523
0.001939212572065829,44815.041480747605
0.0020153376859417325,45690.89204591822
0.002094451143151469,46558.347374360805
0.002176670253153458,47415.60178216328
0.002262116930469025,48260.79367970651
0.002350917875457286,49092.01022081916
0.002443204762186487,49907.29567497508
0.0025391144336803463,50704.66266852958
0.002638789104828933,51482.09070256999
0.002742376573264949,52237.505003672915
0.0028500304385181063,52968.78118361869
0.0029619103297725525,53673.782369577406
0.0030781821425650787,54350.38952934524
0.003199018284775064,54996.489196167895
0.0033245979322709396,55609.76880701888
0.003455107294592217,56187.61554368765
0.0035907398910610534,56727.524619503245
0.0037316968377327513,57227.99989338038
0.0038781871456107214,57688.07862012717
0.0040304280305680515,58105.834497654054
0.00418864523543527,58477.09150348983
0.004353073364731888,58797.513156875575
0.00452395623253805,59064.391459182865
0.004701547224022131,59276.2336748106
0.004886109671160325,59431.68514109477
0.005077917243205399,59529.45560913436
0.005277254352483535,59568.36886653217
0.005484416576121017,59546.732938904155
0.005699711094326071,59462.33970692255
0.005923457145875801,59313.102588527865
0.006155986501483508,59096.89415185901
0.006397643955748424,58811.75893824476
0.0066487878384172625,58455.95461522558
0.0069097905457156435,58027.94429816227
0.007181039092537346,57526.47155934506
0.007462935686310132,56950.21854413959
0.007755898323389004,56298.07559231331
0.00806036140886134,55569.18650368366
0.008376776400682916,54762.75458522576
0.008705612479099857,53878.41581956534
0.009047357242349292,52915.68007335712
0.00940251742967013,51874.2242409037
0.009771619672696168,50754.25329242714
0.010155211276345676,49556.12447369587
0.010553861030365234,48280.90610798231
0.010968160052731372,46930.02059572619
0.011398722666160517,45505.31944381592
0.011846187309026826,44009.50104846672
0.012311217482038896,42445.42310405092
0.012794502732078732,40816.85909332166
0.013296759674662111,39128.41695601331
0.013818733056536317,37385.38668219766
0.014361196859990781,35594.24227194275
0.014924955450518284,33762.08190516802
0.015510844769528393,31896.986587122272
0.016119733573881575,30008.18835929382
0.01675252472408214,28105.85921925942
0.017410156523040152,26201.034268730884
0.018093604107387147,24305.678915801054
0.01880388089340914,22432.22038964064
0.019542040079740527,20593.527634708644
0.02030917620904734,18803.58005935869
0.021106426791015535,17075.321526718053
0.021934973989050584,15421.449474756555
0.02279604637318978,13853.620869416385
0.023690920741826323,12381.824500136014
0.02462092401494623,11018.716056225685
0.02558743520168586,9772.921369432595
0.02659188744512693,8648.884750945159
0.027635770147361564,7647.9674528796395
0.028720631177978267,6767.801105175766
0.029848079169243254,6007.988531101957
0.03101978590138095,5366.03148948556
0.03223748878149028,4836.678395435621
0.0335029934197723,4414.5142297027205
0.03481817630688963,4093.643960816311
0.03618498759642746,3864.4729962718307
0.037605453996581675,3717.518778812804
0.03908168177536263,3643.6920424600626
0.04061585988376978,3627.848905332518
0.04221026320156896,3656.6591381799185
0.04386725591048496,3719.252084202087
0.0455892949998106,3803.73582232012
0.047378933909631396,3884.8491741414728
0.049238826317067365,3930.929836311754
0.05117173007114603,3917.3402991803855
0.05318051128214196,3826.354545175146
0.05526814857144601,3650.87176035184
0.057437737488265785,3391.500048361563
0.0596924950997073,3057.051168293772
0.0620357647610427,2666.896455574015
0.06447102107323864,2251.8006072504313
0.06700187503509585,1849.564321082641
0.06963207939763882,1496.2782387777513
0.0723655342286965,1207.5976477477943
0.07520629269592405,994.0223220818885
0.07815856707684081,863.7716753556324
0.08122673500479707,804.0395649525848
0.08441534596012978,800.5478334099914
0.0877291280161335,839.6527009617148
0.09117299484984914,901.7336961369733
0.09475205302806537,960.6365037245487
0.09847160957933764,984.7027922000093
0.1023371798632519,947.5970448307202
0.10635449574860109,846.766049981786
0.11052951411260206,707.1568191575685
0.1148684256737553,561.9813188922866
0.1193776641714435,440.20282266134444
0.1240639159058831,361.5255800443133
0.12893412965257148,328.0620174358805
0.13399552696593373,329.1965182828637
0.1392556128874462,348.96856687107385
0.14472218707411338,365.1373496443647
0.15040335536380234,356.01415923627775
0.15630754179458153,316.2381914042892
0.16244350109588662,259.74712336065994
0.16882033167003618,210.27670970122648
0.17544748908334581,180.92869438560257
0.1823348000868439,171.9545087574728
0.189492477187382,173.8753745760501
0.19693113379074215,171.69864121093414
0.20466179993919872,157.0389781218255
0.21269593866686892,133.9556450760762
0.22104546299710207,114.14222051608057
0.22972275360711503,103.48361450940531
0.23874067718606454,99.40897458924671
0.2481126055137766,94.61462613850196
0.25785243528842716,85.24965121772895
0.26797460873256895,74.54065154837846
0.27849413500806414,66.91848919921736
0.28942661247167484,62.38265860472068
0.3007882518043098,57.83298322984648
0.31259590004822796,51.98750260505942
0.324867065587837,46.54083418880376
0.3376199441111335,42.57723574351609
0.35087344559027084,39.07920952533662
0.36464722232127456,35.330678602049986
0.37896169806447155,31.91735220118447
0.3938380983288488,29.104036309734774
0.4092984818452433,26.460153044649942
0.4253657732750382,23.942459949915392
0.44206379720285277,21.742341719807374
0.45941731346364734,19.742651171379894
0.47745205385661277,17.88614835853033
0.4961947603002895,16.221887721239597
0.5156732244854959,14.710495299152209
0.5359163290848509,13.334291885700909
0.556954090580013,12.082179823378498
0.5788177037701272,10.944034591775566
0.6015395880274836,9.910386492093128
0.6251534353689703,8.972404564804362
0.6496942604146115,8.121870187419983
0.6751984523072497,7.350951796991665
0.7017038286703824,6.6522247748012475
0.7292496916841444,6.018946698939415
0.7578768863625915,5.445010899556142
0.7876278611187046,4.924885247962869
0.8185467307069019,4.45355943214131
0.850679341636415,4.026531646227983
0.8840733401525058,3.6397403005699833
0.9187782428863317,3.289484978305022
0.9548455102782278,2.972394578230753
0.9923286228832539,2.6853992890591702
1.0312831606721837,2.4257041204271843
1.0717668854455022,2.1907597745782414
1.1138398264826193,1.9782462462169996
1.1575643695533022,1.786056845685626
1.2030053494233226,1.612279060376123
1.2502301459914542,1.4551770404415523
1.299308784200415,1.3131757263039012
1.3503140378698726,1.1848467241162919
1.4033215376054824,1.0688944351114886
1.4584098829439835,0.9641437336440087
1.5156607589006013,0.8695290136489726
1.575159057091621,0.7840842049818003
1.6369930016117014,0.7069336415398784
1.7012542798525885,0.6372836958511701
1.7680381784572046,0.574415375649594
1.8374437246107238,0.5176774782683483
1.9095738328780953,0.46648032224508984
1.9845354578058014,0.42029004531177855
2.0624397525140905,0.37862338614926894
2.143402233514853,0.3410429381567235
2.227542951999554,0.30715295931127884
2.314986671851158,0.2765954844079399
2.405863054644063,0.24904677868538916
2.5003068519063225,0.22421411788637968
2.598458104929248,0.20183285828218445
2.7004623524206774,0.18166378304328995
2.806470846309834,0.1634907102046947
2.916640776023701,0.14711830943847326
3.031135501567576,0.1323701208317459
3.150124795755327,0.1190867583961691
3.2737850959485697,0.1071242743891568
3.4022997656780634,0.09635268653916113
3.5358593665351745,0.08665465173803517
3.6746619407366854,0.07792425414503582
3.8189133047818515,0.07006590716151599
3.968827354637162,0.06299335859891021
4.1246263829013445,0.05662878162480267
4.286541408420921,0.05090196724717934
4.4548125188449825,0.045749596404948696
4.629689226627261,0.04111457191599303
4.811430839003257,0.03694541412590536
5.000306842491082,0.03319571533619758
5.196597302486189,0.02982365160315555
5.400593278542364,0.026791530038001905
5.612597255954967,0.024065381472719718
5.8329235942862,0.02161459687230468
6.06189899349756,0.019411598807722967
6.29986297838068,0.01743154248797219
6.547168402004727,0.01565203958717401
6.804181968927091,0.014052927834435566
7.071284778942991,0.012616055953866494
7.348872892180382,0.011325084769140695
7.637357916378006,0.01016530779995163
7.937167617217536,0.009123492251956687
8.248746552614573,0.00818773840186437
8.572556731909314,0.0073473372252374925
8.909078300934132,0.006592650295292629
9.258810253973934,0.005915004013363964
9.622271173675122,0.005306594114361338
9.999999999999984,0.0047603917678636105
