k [1/Mpc],P(k) [Mpc^3]
0.0001,26.34736703359957
0.00010392556829367125,27.54010335522492
0.00010800523745162529,28.78682111762278
0.00011224505680853065,30.08996388593455
0.00011665131316981963,31.45208430177081
0.00012123054013376525,32.87584885747802
0.00012598952777950273,34.364044105629056
0.00013093533273536104,35.91958122819486
0.00013607528864243335,37.545502287388885
0.00014141701702890234,39.24498884124348
0.00014696843861124463,41.02136981081887
0.00015273778503907136,42.878124323412194
0.00015873361110102093,44.81888193430934
0.00016496480740980205,46.847432011881054
0.0001714406135851971,48.96773668038729
0.00017817063195457305,51.183942746781554
0.00018516484179121546,53.50038494037339
0.000192433614111598,55.92158975656669
0.00019998772705352857,58.452284414881774
0.0002078383818579757,61.097407942592184
0.00021599721947827182,63.86211891031609
0.0002244763378413224,66.75180675292088
0.0002332883097864157,69.77210515983057
0.00024244620170823283,72.92890391340512
0.0002519635929317015,76.22835642219177
0.0002618545958474233,79.67688444578246
0.0002721338768375308,83.28119377941933
0.0002828166780230032,87.04829171010532
0.0002939188398646886,90.98550259552546
0.0003054568246515432,95.10047791715974
0.00031744774091091926,99.40120126090244
0.00032990936877709396,103.89600524486089
0.00034286018635565856,108.59359413652847
0.00035631939712285854,113.50306445231028
0.000370306958400514,118.63391770008153
0.00038484361094874304,123.99606834734594
0.0003999509097203664,129.59986070277725
0.00041565125582259895,135.45609417849715
0.00043196792973341727,141.57603923641125
0.0004489251258218605,147.9714602912056
0.0004665479882234472,154.65463260847616
0.000484862648123908,161.63836025210665
0.000503896262506515,168.93600513740975
0.0005236770544204653,176.56150748917975
0.0005442343548300266,184.52941180742602
0.0005655986461065005,192.85488727735438
0.0005878016072274912,201.5537428973074
0.0006108761607505036,210.64246555528172
0.0006348565216305217,220.13823601669932
0.0006597782479539537,230.05895836563187
0.0006856782936641739,240.42329631351484
0.0007125950633568407,251.25069312732955
0.0007405684692262436,262.5614112037098
0.0007696399902471156,274.3765450620741
0.0007998527336796708,286.71804521118884
0.000831251498989063,299.60877440722624
0.0008638828442740447,313.07253802213205
0.000897795155303332,327.1341236542418
0.0009330387172620361,341.8193074236451
0.0009696657893145519,357.15485348991115
0.001007730682094461,373.16860042406455
0.0010472898382363582,389.88949458813545
0.0010884019160690055,407.3476330515384
0.0011311278765939214,425.5742795999752
0.001175531073878369,444.6018301963589
0.0012216773489967915,464.46391916825144
0.0012696351276599736,485.1954329336128
0.0013194755216767058,506.8325434071592
0.0013712724343984,529.4127680636163
0.0014251026703029975,552.9749241743389
0.0014810460488806749,577.5592234495602
0.0015391855229902056,603.2072496709667
0.001599607301861487,629.9619279420232
0.0016624009789266115,657.8676589788801
0.0017276596646690358,686.9702348466508
0.0017954801246878305,717.3169189204108
0.0018659629231817451,748.9564752652024
0.001939212572065829,781.939085616032
0.0020153376859417325,816.3164808183733
0.002094451143151469,852.1417717201183
0.002176670253153458,889.4694719698864
0.002262116930469025,928.3556004217684
0.002350917875457286,968.8574763818918
0.002443204762186487,1011.0338797250002
0.0025391144336803463,1054.9448745620768
0.002638789104828933,1100.651693875934
0.002742376573264949,1148.2169150996633
0.0028500304385181063,1197.7041422515613
0.0029619103297725525,1249.178121490069
0.0030781821425650787,1302.704620698765
0.003199018284775064,1358.3501350419772
0.0033245979322709396,1416.1820776180846
0.003455107294592217,1476.2681743058267
0.0035907398910610534,1538.6764813228615
0.0037316968377327513,1603.4755006364157
0.0038781871456107214,1670.7337692170233
0.0040304280305680515,1740.5199599236093
0.00418864523543527,1812.9021450131092
0.004353073364731888,1887.947495295474
0.00452395623253805,1965.7225150148524
0.004701547224022131,2046.292166723995
0.004886109671160325,2129.7200595638897
0.005077917243205399,2216.0676785065734
0.005277254352483535,2305.3935157562364
0.005484416576121017,2397.753623465888
0.005699711094326071,2493.200504390456
0.005923457145875801,2591.783070026514
0.006155986501483508,2693.5453031856473
0.006397643955748424,2798.523405371322
0.0066487878384172625,2906.7481089821817
0.0069097905457156435,3018.247935054663
0.007181039092537346,3133.0487056019
0.007462935686310132,3251.166121340981
0.007755898323389004,3372.5896906987355
0.00806036140886134,3497.2939321693552
0.008376776400682916,3625.2517985291015
0.008705612479099857,3756.4384986106916
0.009047357242349292,3890.8175122664143
0.00940251742967013,4028.3206151629893
0.009771619672696168,4168.85648902768
0.010155211276345676,4312.323903673788
0.010553861030365234,4458.6181986165275
0.010968160052731372,4607.620024715724
0.011398722666160517,4759.177313492617
0.011846187309026826,4913.108021095832
0.012311217482038896,5069.207482329695
0.012794502732078732,5227.242526967935
0.013296759674662111,5386.95588590082
0.013818733056536317,5548.061701916336
0.014361196859990781,5710.244284473874
0.014924955450518284,5873.161380476138
0.015510844769528393,6036.436568067753
0.016119733573881575,6199.664577522154
0.01675252472408214,6362.406519780146
0.017410156523040152,6524.184417506177
0.018093604107387147,6684.492261911037
0.01880388089340914,6842.791430666146
0.019542040079740527,6998.515032990359
0.02030917620904734,7151.0708957075285
0.021106426791015535,7299.839223331854
0.021934973989050584,7444.180838755531
0.02279604637318978,7583.443431825042
0.023690920741826323,7716.96483582458
0.02462092401494623,7844.079563180971
0.02558743520168586,7964.137726488962
0.02659188744512693,8076.497199594414
0.027635770147361564,8180.547625936904
0.028720631177978267,8275.724154992366
0.029848079169243254,8361.494849695577
0.03101978590138095,8437.436722158533
0.03223748878149028,8503.194357409744
0.0335029934197723,8558.483280510265
0.03481817630688963,8603.131560062322
0.03618498759642746,8637.037975412692
0.037605453996581675,8660.4056230728
0.03908168177536263,8673.659653604087
0.04061585988376978,8677.25790799792
0.04221026320156896,8671.65763726472
0.04386725591048496,8657.336059166058
0.0455892949998106,8634.74659125927
0.047378933909631396,8604.31222776794
0.049238826317067365,8566.602516923447
0.05117173007114603,8522.920588763893
0.05318051128214196,8474.799849645575
0.05526814857144601,8423.37006702303
0.057437737488265785,8369.117585007278
0.0596924950997073,8312.358889148509
0.0620357647610427,8252.721113862384
0.06447102107323864,8189.541419679139
0.06700187503509585,8121.706345537602
0.06963207939763882,8047.7551747567195
0.0723655342286965,7966.143878297479
0.07520629269592405,7875.272271879431
0.07815856707684081,7773.582281148905
0.08122673500479707,7659.593321323931
0.08441534596012978,7531.929784044404
0.0877291280161335,7389.509215149771
0.09117299484984914,7231.864740434939
0.09475205302806537,7059.64442538773
0.09847160957933764,6874.843402714056
0.1023371798632519,6681.099384777931
0.10635449574860109,6483.068309412978
0.11052951411260206,6285.812115284198
0.1148684256737553,6093.889393354558
0.1193776641714435,5910.308859745985
0.1240639159058831,5737.931842980528
0.12893412965257148,5578.132992983668
0.13399552696593373,5427.8920470229195
0.1392556128874462,5282.193220655716
0.14472218707411338,5134.6244554314935
0.15040335536380234,4978.739643441382
0.15630754179458153,4810.411805222557
0.16244350109588662,4629.365481234772
0.16882033167003618,4439.2506168900145
0.17544748908334581,4246.613071204355
0.1823348000868439,4059.0667630868684
0.189492477187382,3882.9573294209467
0.19693113379074215,3721.575452947214
0.20466179993919872,3574.451945342386
0.21269593866686892,3436.911446536945
0.22104546299710207,3300.915675272573
0.22972275360711503,3159.476130165706
0.23874067718606454,3011.212395365654
0.2481126055137766,2859.955119278235
0.25785243528842716,2712.6876498540555
0.26797460873256895,2576.6713304222203
0.27849413500806414,2453.645517196762
0.28942661247167484,2338.786405767815
0.3007882518043098,2225.4643508107374
0.31259590004822796,2109.8442318523803
0.324867065587837,1994.2123407886836
0.3376199441111335,1884.091107709174
0.35087344559027084,1782.7499475680456
0.36464722232127456,1688.1214769282892
0.37896169806447155,1596.3255339191894
0.3938380983288488,1505.7677728716246
0.4092984818452433,1418.110901504353
0.4253657732750382,1335.950498553365
0.44206379720285277,1259.2269901018744
0.45941731346364734,1185.5388667376044
0.47745205385661277,1114.1365136885092
0.4961947603002895,1046.5379514718186
0.5156732244854959,983.0642479697868
0.5359163290848509,922.7302247395061
0.556954090580013,865.2134781959273
0.5788177037701272,810.7412942023843
0.6015395880274836,759.4774864521823
0.6251534353689703,710.8873969625971
0.6496942604146115,664.9455714793082
0.6751984523072497,621.6752869681295
0.7017038286703824,580.8562375589877
0.7292496916841444,542.3952523363891
0.7578768863625915,506.2190975881956
0.7876278611187046,472.17162307180587
0.8185467307069019,440.1994238431931
0.850679341636415,410.1484124792324
0.8840733401525058,381.94932559865146
0.9187782428863317,355.51559012809304
0.9548455102782278,330.7482470083853
0.9923286228832539,307.55326743967095
1.0312831606721837,285.8433242335398
1.0717668854455022,265.5373465125244
1.1138398264826193,246.55748905230323
1.1575643695533022,228.8289658238549
1.2030053494233226,212.28005457201172
1.2502301459914542,196.84193708134353
1.299308784200415,182.4482385721975
1.3503140378698726,169.03563036783996
1.4033215376054824,156.5439582920867
1.4584098829439835,144.91614349193492
1.5156607589006013,134.09808324566217
1.575159057091621,124.03860027123746
1.6369930016117014,114.6893166279144
1.7012542798525885,106.00448515926931
1.7680381784572046,97.94088658434076
1.8374437246107238,90.45772911675341
1.9095738328780953,83.51652330093907
1.9845354578058014,77.08093390174203
2.0624397525140905,71.11676976957365
2.143402233514853,65.59190248233398
2.227542951999554,60.47616494866927
2.314986671851158,55.74125181872993
2.405863054644063,51.360610097732916
2.5003068519063225,47.30935537772516
2.598458104929248,43.56419602459648
2.7004623524206774,40.10334598810825
2.806470846309834,36.90644069049245
2.916640776023701,33.954453390517706
3.031135501567576,31.229614388052713
3.150124795755327,28.71534590993007
3.2737850959485697,26.396192627024156
3.4022997656780634,24.25775391916035
3.5358593665351745,22.28661841552423
3.6746619407366854,20.470293205805362
3.8189133047818515,18.79715385286504
3.968827354637162,17.256397061501225
4.1246263829013445,15.837987646625086
4.286541408420921,14.53260835352031
4.4548125188449825,13.331611421715541
4.629689226627261,12.226973289088479
4.811430839003257,11.211255290282425
5.000306842491082,10.277564342249985
5.196597302486189,9.419515665338093
5.400593278542364,8.63119758642962
5.612597255954967,7.90713736779764
5.8329235942862,7.242271869884429
6.06189899349756,6.631919636115156
6.29986297838068,6.071753787173745
6.547168402004727,5.557776649088754
6.804181968927091,5.086294096042001
7.071284778942991,4.65389300882764
7.348872892180382,4.2574244423685155
7.637357916378006,3.8939844256095495
7.937167617217536,3.5608957305552806
8.248746552614573,3.2556917774246132
8.572556731909314,2.9761048010129088
8.909078300934132,2.7200463103103067
9.258810253973934,2.4855914399642525
9.622271173675122,2.2709668164708354
9.999999999999984,2.0745390323215744
