k [1/Mpc],P(k) [Mpc^3]
0.0001,1732.9837621501147
0.00010392556829367125,1795.5984545190836
0.00010800523745162529,1860.4573490947878
0.00011224505680853065,1927.63870640948
0.00011665131316981963,1997.2233856007228
0.00012123054013376525,2069.2949181688314
0.00012598952777950273,2143.9393690266274
0.00013093533273536104,2221.24520717848
0.00013607528864243335,2301.3036699500794
0.00014141701702890234,2384.20870596462
0.00014696843861124463,2470.057105517487
0.00015273778503907136,2558.948508926786
0.00015873361110102093,2650.9851851721514
0.00016496480740980205,2746.27239076678
0.0001714406135851971,2844.91811772367
0.00017817063195457305,2947.033168677341
0.00018516484179121546,3052.7313546246987
0.000192433614111598,3162.1290557866564
0.00019998772705352857,3275.3456598710377
0.0002078383818579757,3392.5033113641143
0.00021599721947827182,3513.7267902711455
0.0002244763378413224,3639.1438144162767
0.0002332883097864157,3768.8840704136264
0.00024244620170823283,3903.079800052561
0.0002519635929317015,4041.8658236970323
0.0002618545958474233,4185.379179582261
0.0002721338768375308,4333.759478005688
0.0002828166780230032,4487.147443524506
0.0002939188398646886,4645.685349097059
0.0003054568246515432,4809.517438033075
0.00031744774091091926,4978.789277556416
0.00032990936877709396,5153.648159552577
0.00034286018635565856,5334.241358131034
0.00035631939712285854,5520.716050275405
0.000370306958400514,5713.220142096821
0.00038484361094874304,5911.901143518234
0.0003999509097203664,6116.906682706665
0.00041565125582259895,6328.382980289674
0.00043196792973341727,6546.474038663586
0.0004489251258218605,6771.322643545855
0.0004665479882234472,7003.068618441917
0.000484862648123908,7241.849323410594
0.000503896262506515,7487.798450112351
0.0005236770544204653,7741.044340011546
0.0005442343548300266,8001.711129498437
0.0005655986461065005,8269.915508661741
0.0005878016072274912,8545.767190302144
0.0006108761607505036,8829.368490382956
0.0006348565216305217,9120.811237040412
0.0006597782479539537,9420.178508886172
0.0006856782936641739,9727.54000544021
0.0007125950633568407,10042.951545906268
0.0007405684692262436,10366.455868620717
0.0007696399902471156,10698.076710311563
0.0007998527336796708,11037.821973130725
0.000831251498989063,11385.679730116102
0.0008638828442740447,11741.615811833484
0.000897795155303332,12105.576488222941
0.0009330387172620361,12477.483411398665
0.0009696657893145519,12857.235040931277
0.001007730682094461,13244.702211877391
0.0010472898382363582,13639.722774062899
0.0010884019160690055,14042.107687350941
0.0011311278765939214,14451.643438807145
0.001175531073878369,14868.089952571252
0.0012216773489967915,15291.17258223458
0.0012696351276599736,15720.57195455323
0.0013194755216767058,16155.932986386653
0.0013712724343984,16596.859994873168
0.0014251026703029975,17042.916425443167
0.0014810460488806749,17493.628369118924
0.0015391855229902056,17948.483544384297
0.001599607301861487,18406.931294119615
0.0016624009789266115,18868.383443803843
0.0017276596646690358,19332.21440431748
0.0017954801246878305,19797.759438871526
0.0018659629231817451,20264.311536669313
0.001939212572065829,20731.123920638962
0.0020153376859417325,21197.416081459207
0.002094451143151469,21662.377870847326
0.002176670253153458,22125.165128445384
0.002262116930469025,22584.904074386628
0.002350917875457286,23040.69124304225
0.002443204762186487,23491.595534340406
0.0025391144336803463,23936.663893348737
0.002638789104828933,24374.91839331491
0.002742376573264949,24805.349584458854
0.0028500304385181063,25226.920477809334
0.0029619103297725525,25638.580984518063
0.0030781821425650787,26039.285803479965
0.003199018284775064,26427.980526105384
0.0033245979322709396,26803.49519693534
0.003455107294592217,27164.527444418898
0.0035907398910610534,27509.849558261
0.0037316968377327513,27838.754768512983
0.0038781871456107214,28150.74100634854
0.0040304280305680515,28444.732210146907
0.00418864523543527,28718.661742959746
0.004353073364731888,28970.450906161575
0.00452395623253805,29198.875049737184
0.004701547224022131,29403.19630755141
0.004886109671160325,29582.7386273736
0.005077917243205399,29736.89155650197
0.005277254352483535,29865.086422428198
0.005484416576121017,29966.50265432829
0.005699711094326071,30040.142066718232
0.005923457145875801,30085.055010888118
0.006155986501483508,30100.316977220467
0.006397643955748424,30085.07709921436
0.0066487878384172625,30038.599320739064
0.0069097905457156435,29960.272412781356
0.007181039092537346,29849.586659546927
0.007462935686310132,29706.106363201856
0.007755898323389004,29529.502862082798
0.00806036140886134,29319.52613897339
0.008376776400682916,29075.98288683343
0.008705612479099857,28798.80018476127
0.009047357242349292,28487.914590730583
0.00940251742967013,28143.35274206254
0.009771619672696168,27765.293492593337
0.010155211276345676,27354.050649875277
0.010553861030365234,26910.112623581274
0.010968160052731372,26434.11713840025
0.011398722666160517,25926.86508194309
0.011846187309026826,25389.33052867683
0.012311217482038896,24822.614474784466
0.012794502732078732,24228.00165718175
0.013296759674662111,23607.026453384067
0.013818733056536317,22961.463275784867
0.014361196859990781,22293.27523297336
0.014924955450518284,21604.692751820807
0.015510844769528393,20898.10711135362
0.016119733573881575,20176.207731784343
0.01675252472408214,19442.03980296525
0.017410156523040152,18698.707488513985
0.018093604107387147,17949.687273010964
0.01880388089340914,17198.518399632907
0.019542040079740527,16448.863901375917
0.02030917620904734,15704.828033109441
0.021106426791015535,14970.218482522028
0.021934973989050584,14248.758177718093
0.02279604637318978,13543.914276268695
0.023690920741826323,12859.148330760256
0.02462092401494623,12199.063825018056
0.02558743520168586,11567.643545582307
0.02659188744512693,10966.999255721155
0.027635770147361564,10397.660251386855
0.028720631177978267,9859.824231739274
0.029848079169243254,9353.678345111766
0.03101978590138095,8879.198013201383
0.03223748878149028,8436.095738421269
0.0335029934197723,8023.875510641813
0.03481817630688963,7641.526431298076
0.03618498759642746,7285.157163468159
0.037605453996581675,6950.017058738007
0.03908168177536263,6631.235296009801
0.04061585988376978,6322.968752957926
0.04221026320156896,6020.21966230667
0.04386725591048496,5720.128438029773
0.0455892949998106,5421.316893874419
0.047378933909631396,5121.6859634719
0.049238826317067365,4816.921450763807
0.05117173007114603,4505.203516912965
0.05318051128214196,4193.684815647467
0.05526814857144601,3890.654766951255
0.057437737488265785,3601.1101128664595
0.0596924950997073,3328.1993916187594
0.0620357647610427,3074.276948149514
0.06447102107323864,2842.6417199455045
0.06700187503509585,2640.191277113699
0.06963207939763882,2466.196053989706
0.0723655342286965,2313.38189391711
0.07520629269592405,2181.3767932435576
0.07815856707684081,2065.2852880428754
0.08122673500479707,1952.6438025886957
0.08441534596012978,1836.810846877256
0.0877291280161335,1716.156197710825
0.09117299484984914,1592.5627865176498
0.09475205302806537,1469.2063110251343
0.09847160957933764,1347.5408946080504
0.1023371798632519,1232.3540106870757
0.10635449574860109,1130.6759764548426
0.11052951411260206,1045.276042655741
0.1148684256737553,971.5521538204455
0.1193776641714435,906.1526342527185
0.1240639159058831,846.108684982401
0.12893412965257148,786.4327967953536
0.13399552696593373,725.6600054081467
0.1392556128874462,666.8192711974962
0.14472218707411338,611.7786920925302
0.15040335536380234,562.3840872323054
0.15630754179458153,518.4998658951048
0.16244350109588662,479.2302487994117
0.16882033167003618,442.911778129277
0.17544748908334581,407.79292154037626
0.1823348000868439,374.75481324833396
0.189492477187382,344.04275379825543
0.19693113379074215,316.20275506113563
0.20466179993919872,290.77037548871857
0.21269593866686892,267.31782300524384
0.22104546299710207,245.42755619286905
0.22972275360711503,225.13420645843195
0.23874067718606454,206.52707733481594
0.2481126055137766,189.44036582999803
0.25785243528842716,173.70236574776555
0.26797460873256895,159.16070814999068
0.27849413500806414,145.7764074960353
0.28942661247167484,133.49700695440393
0.3007882518043098,122.20395954078683
0.31259590004822796,111.81501001947055
0.324867065587837,102.27277023874255
0.3376199441111335,93.51550927293295
0.35087344559027084,85.4801969299822
0.36464722232127456,78.10769829840332
0.37896169806447155,71.35068662663298
0.3938380983288488,65.16009734793785
0.4092984818452433,59.48874913117333
0.4253657732750382,54.296563292028864
0.44206379720285277,49.54352932724421
0.45941731346364734,45.192253996541076
0.47745205385661277,41.211514544749726
0.4961947603002895,37.569376258483665
0.5156732244854959,34.23834763289734
0.5359163290848509,31.193447451056777
0.556954090580013,28.411665264791363
0.5788177037701272,25.87167874068634
0.6015395880274836,23.553572277285703
0.6251534353689703,21.438378513184034
0.6496942604146115,19.50816381921315
0.6751984523072497,17.747246816085774
0.7017038286703824,16.141313282299244
0.7292496916841444,14.677198664465065
0.7578768863625915,13.342802373448569
0.7876278611187046,12.127004037065108
0.8185467307069019,11.019556820397753
0.850679341636415,10.011047432109022
0.8840733401525058,9.092856269721073
0.9187782428863317,8.257093131719765
0.9548455102782278,7.496537594658589
0.9923286228832539,6.804590264301341
1.0312831606721837,6.175227444334733
1.0717668854455022,5.6029379346942365
1.1138398264826193,5.082679124367347
1.1575643695533022,4.609838967301251
1.2030053494233226,4.1802003977730715
1.2502301459914542,3.7899044791770895
1.299308784200415,3.435424291291255
1.3503140378698726,3.113541013515046
1.4033215376054824,2.8213179047084593
1.4584098829439835,2.556076331316174
1.5156607589006013,2.315373129454578
1.575159057091621,2.0969797487399746
1.6369930016117014,1.8988655295040688
1.7012542798525885,1.7191808362505503
1.7680381784572046,1.5562413045634196
1.8374437246107238,1.4085135565485858
1.9095738328780953,1.2746035053240772
1.9845354578058014,1.1532430718256872
2.0624397525140905,1.0432777917928528
2.143402233514853,0.9436569178088137
2.227542951999554,0.8534243776280065
2.314986671851158,0.7717098837887172
2.405863054644063,0.6977205874566595
2.5003068519063225,0.630736034636946
2.598458104929248,0.5701019850694763
2.7004623524206774,0.5152244221540782
2.806470846309834,0.46556414337215746
2.916640776023701,0.4206323913566128
3.031135501567576,0.37998587929249455
3.150124795755327,0.34322208569328927
3.2737850959485697,0.30997558180483703
3.4022997656780634,0.2799146943067875
3.5358593665351745,0.2527383087098087
3.6746619407366854,0.22817286600864617
3.8189133047818515,0.2059703386449679
3.968827354637162,0.1859059755097349
4.1246263829013445,0.16777614610081154
4.286541408420921,0.15139638879759118
4.4548125188449825,0.13659973605660253
4.629689226627261,0.12323502659620982
4.811430839003257,0.11116532759207542
5.000306842491082,0.10026661518211623
5.196597302486189,0.09042657802901716
5.400593278542364,0.0815435189882957
5.612597255954967,0.07352534787596779
5.8329235942862,0.06628872168863151
6.06189899349756,0.059758233356857274
6.29986297838068,0.05386566639960358
6.547168402004727,0.04854931773807315
6.804181968927091,0.04375337155096648
7.071284778942991,0.03942734990103306
7.348872892180382,0.03552562146138586
7.637357916378006,0.032006941813673764
7.937167617217536,0.028834036342702315
8.248746552614573,0.025973229688447917
8.572556731909314,0.023394118443951305
8.909078300934132,0.021069231700022714
9.258810253973934,0.01897374559333506
9.622271173675122,0.017085231947798426
9.999999999999984,0.015383428533509942
