k [1/Mpc],P(k) [Mpc^3]
0.0001,636.8879016682636
0.00010392556829367125,663.7780973914378
0.00010800523745162529,691.8014891335177
0.00011224505680853065,721.0055604220593
0.00011665131316981963,751.4397902177557
0.00012123054013376525,783.1557098662225
0.00012598952777950273,816.2069307720964
0.00013093533273536104,850.6492450128081
0.00013607528864243335,886.5407272631096
0.00014141701702890234,923.941789282726
0.00014696843861124463,962.9153107050817
0.00015273778503907136,1003.5267412148927
0.00015873361110102093,1045.844202485916
0.00016496480740980205,1089.9385785767527
0.0001714406135851971,1135.8835342068714
0.00017817063195457305,1183.7556842257486
0.00018516484179121546,1233.6347102802579
0.000192433614111598,1285.6034567648608
0.00019998772705352857,1339.7480769708866
0.0002078383818579757,1396.158026347269
0.00021599721947827182,1454.9262366011196
0.0002244763378413224,1516.1492596204155
0.0002332883097864157,1579.9272898981596
0.00024244620170823283,1646.364414224186
0.0002519635929317015,1715.5687330198855
0.0002618545958474233,1787.6525038502284
0.0002721338768375308,1862.732226649654
0.0002828166780230032,1940.9284022211461
0.0002939188398646886,2022.365946803989
0.0003054568246515432,2107.1743694650177
0.00031744774091091926,2195.487863185543
0.00032990936877709396,2287.4455401376167
0.00034286018635565856,2383.1913305640983
0.00035631939712285854,2482.8742430130774
0.000370306958400514,2586.6484113781144
0.00038484361094874304,2694.6728560416213
0.0003999509097203664,2807.112033303269
0.00041565125582259895,2924.135676343885
0.00043196792973341727,3045.9189466732087
0.0004489251258218605,3172.6427498538023
0.0004665479882234472,3304.493500975336
0.000484862648123908,3441.6635241854256
0.000503896262506515,3584.3507127255325
0.0005236770544204653,3732.7583417112987
0.0005442343548300266,3887.0957215598023
0.0005655986461065005,4047.5777480250836
0.0005878016072274912,4214.425248153609
0.0006108761607505036,4387.864864722188
0.0006348565216305217,4568.12846943027
0.0006597782479539537,4755.453865785739
0.0006856782936641739,4950.083787826364
0.0007125950633568407,5152.266000558368
0.0007405684692262436,5362.253657215454
0.0007696399902471156,5580.3040667331015
0.0007998527336796708,5806.679499603611
0.000831251498989063,6041.645669795101
0.0008638828442740447,6285.470871680827
0.000897795155303332,6538.427212249845
0.0009330387172620361,6800.78852415801
0.0009696657893145519,7072.831030848454
0.001007730682094461,7354.831853248147
0.0010472898382363582,7647.066223781214
0.0010884019160690055,7949.8098171816555
0.0011311278765939214,8263.336458551696
0.001175531073878369,8587.917882225602
0.0012216773489967915,8923.82324836815
0.0012696351276599736,9271.315237407725
0.0013194755216767058,9630.651790727588
0.0013712724343984,10002.082047453741
0.0014251026703029975,10385.844177389648
0.0014810460488806749,10782.167449794268
0.0015391855229902056,11191.267941561791
0.001599607301861487,11613.349109898265
0.0016624009789266115,12048.598693794462
0.0017276596646690358,12497.184165484698
0.0017954801246878305,12959.255255195678
0.0018659629231817451,13434.939721409239
0.001939212572065829,13924.342435546325
0.0020153376859417325,14427.54366516289
0.002094451143151469,14944.593014894275
0.002176670253153458,15475.511359006785
0.002262116930469025,16020.287588598532
0.002350917875457286,16578.876191658725
0.002443204762186487,17151.195599719053
0.0025391144336803463,17737.11824725954
0.002638789104828933,18336.473399572813
0.002742376573264949,18949.044781122586
0.0028500304385181063,19574.565828131243
0.0029619103297725525,20212.720736602652
0.0030781821425650787,20863.13336626752
0.003199018284775064,21525.368250833464
0.0033245979322709396,22198.92958425629
0.003455107294592217,22883.250815384366
0.0035907398910610534,23577.70159255521
0.0037316968377327513,24281.588352312938
0.0038781871456107214,24994.152896510142
0.0040304280305680515,25714.554724054244
0.00418864523543527,26441.80339546338
0.004353073364731888,27174.80641139102
0.00452395623253805,27912.496932687038
0.004701547224022131,28653.904646209914
0.004886109671160325,29397.965560084052
0.005077917243205399,30143.065597805933
0.005277254352483535,30887.225406589812
0.005484416576121017,31628.476226007257
0.005699711094326071,32365.10119939747
0.005923457145875801,33095.36649901033
0.006155986501483508,33817.474246352256
0.006397643955748424,34529.56695905991
0.0066487878384172625,35229.65269707757
0.0069097905457156435,35915.331229517746
0.007181039092537346,36584.02976285102
0.007462935686310132,37233.17403935724
0.007755898323389004,37860.23377152936
0.00806036140886134,38462.60225545283
0.008376776400682916,39037.28221327858
0.008705612479099857,39581.06889114433
0.009047357242349292,40090.75543605529
0.00940251742967013,40563.188211871864
0.009771619672696168,40995.228381331726
0.010155211276345676,41383.54439645465
0.010553861030365234,41724.6801329539
0.010968160052731372,42015.203270900936
0.011398722666160517,42251.568288994116
0.011846187309026826,42430.316379362484
0.012311217482038896,42548.02814590433
0.012794502732078732,42601.32344074749
0.013296759674662111,42587.04759080455
0.013818733056536317,42502.13668355228
0.014361196859990781,42343.795948608946
0.014924955450518284,42109.56991743492
0.015510844769528393,41797.30993450517
0.016119733573881575,41405.36800889159
0.01675252472408214,40932.64271697576
0.017410156523040152,40378.63022418165
0.018093604107387147,39743.54713248246
0.01880388089340914,39028.52872437098
0.019542040079740527,38235.45695899897
0.02030917620904734,37367.347045222254
0.021106426791015535,36428.35809549682
0.021934973989050584,35423.4293074823
0.02279604637318978,34359.2327462011
0.023690920741826323,33243.18650023306
0.02462092401494623,32083.82419723823
0.02558743520168586,30891.40289751553
0.02659188744512693,29676.105961145153
0.027635770147361564,28449.890806106854
0.028720631177978267,27225.09700260222
0.029848079169243254,26013.61155695144
0.03101978590138095,24828.698301361408
0.03223748878149028,23682.15209710222
0.0335029934197723,22585.611930446168
0.03481817630688963,21550.426115383318
0.03618498759642746,20585.556989277815
0.037605453996581675,19697.372102211495
0.03908168177536263,18890.541777741182
0.04061585988376978,18169.096995397267
0.04221026320156896,17537.040790056868
0.04386725591048496,16995.410421559987
0.0455892949998106,16527.93968116144
0.047378933909631396,16113.33590232418
0.049238826317067365,15737.008395668412
0.05117173007114603,15389.311188208248
0.05318051128214196,15055.233260084582
0.05526814857144601,14714.11413707953
0.057437737488265785,14341.588412220957
0.0596924950997073,13911.591866023471
0.0620357647610427,13402.353887536538
0.06447102107323864,12800.744066912766
0.06700187503509585,12109.466341227047
0.06963207939763882,11345.732284233636
0.0723655342286965,10537.05054312551
0.07520629269592405,9713.993875392727
0.07815856707684081,8910.40399155891
0.08122673500479707,8161.422589747902
0.08441534596012978,7500.688791996106
0.0877291280161335,6956.419359944006
0.09117299484984914,6540.056499485224
0.09475205302806537,6244.802555306219
0.09847160957933764,6043.2014098929585
0.1023371798632519,5895.952884904124
0.10635449574860109,5758.221078016006
0.11052951411260206,5586.09663934157
0.1148684256737553,5345.2549678065525
0.1193776641714435,5021.061742516857
0.1240639159058831,4624.604056836855
0.12893412965257148,4191.948912885769
0.13399552696593373,3777.2535717198207
0.1392556128874462,3432.0512473145654
0.14472218707411338,3180.467519609124
0.15040335536380234,3015.563988992663
0.15630754179458153,2909.868655382004
0.16244350109588662,2817.835767973699
0.16882033167003618,2690.6016347231384
0.17544748908334581,2508.9054844025786
0.1823348000868439,2289.0230546805956
0.189492477187382,2068.349143999847
0.19693113379074215,1886.998708714609
0.20466179993919872,1760.869162837381
0.21269593866686892,1675.0372185264284
0.22104546299710207,1594.1864002250447
0.22972275360711503,1491.483673959097
0.23874067718606454,1368.0147544597116
0.2481126055137766,1246.1093719731284
0.25785243528842716,1149.004746959015
0.26797460873256895,1076.6100140547248
0.27849413500806414,1011.6038757444156
0.28942661247167484,938.4955496722405
0.3007882518043098,861.0865906016655
0.31259590004822796,792.1520215108225
0.324867065587837,736.2044506227649
0.3376199441111335,685.193419511657
0.35087344559027084,632.8016676778245
0.36464722232127456,582.1758905547673
0.37896169806447155,537.918583091018
0.3938380983288488,498.24014138194457
0.4092984818452433,459.7400170316655
0.4253657732750382,423.436454153788
0.44206379720285277,390.81175591022856
0.45941731346364734,360.6154815486781
0.47745205385661277,332.13233196601516
0.4961947603002895,305.9824675104126
0.5156732244854959,281.91683975461075
0.5359163290848509,259.4904004795005
0.556954090580013,238.8167381448503
0.5788177037701272,219.73529325924687
0.6015395880274836,202.0834967462623
0.6251534353689703,185.79421799332067
0.6496942604146115,170.7668431622443
0.6751984523072497,156.90742984060887
0.7017038286703824,144.12876461774476
0.7292496916841444,132.34989788401091
0.7578768863625915,121.4959902916811
0.7876278611187046,111.49835656625858
0.8185467307069019,102.29316311107176
0.850679341636415,93.82094562420936
0.8840733401525058,86.02634955637319
0.9187782428863317,78.857876453446
0.9548455102782278,72.26751285674622
0.9923286228832539,66.21054993103523
1.0312831606721837,60.645544272755075
1.0717668854455022,55.53410506050591
1.1138398264826193,50.840685041287486
1.1575643695533022,46.53238574906263
1.2030053494233226,42.5787797652939
1.2502301459914542,38.95173045233317
1.299308784200415,35.625227229930914
1.3503140378698726,32.57523519602724
1.4033215376054824,29.77955440802609
1.4584098829439835,27.217687200712213
1.5156607589006013,24.87071464647236
1.575159057091621,22.721184214141886
1.6369930016117014,20.7530027020087
1.7012542798525885,18.951336095691712
1.7680381784572046,17.3025157666
1.8374437246107238,15.793946035742625
1.9095738328780953,14.414027439818494
1.9845354578058014,13.15208651862294
2.0624397525140905,11.998305263203767
2.143402233514853,10.94365551721216
2.227542951999554,9.979837745447858
2.314986671851158,9.09922375166427
2.405863054644063,8.294805895535214
2.5003068519063225,7.560148938897168
2.598458104929248,6.88934505890311
2.7004623524206774,6.276972205337501
2.806470846309834,5.718054887365759
2.916640776023701,5.208028685632165
3.031135501567576,4.742708487258699
3.150124795755327,4.31825806959532
3.2737850959485697,3.9311619505581383
3.4022997656780634,3.578199339619567
3.5358593665351745,3.256419714698265
3.6746619407366854,2.963121269860044
3.8189133047818515,2.695830861515693
3.968827354637162,2.452285201997019
4.1246263829013445,2.230413544124085
4.286541408420921,2.0283215993700066
4.4548125188449825,1.84427674187498
4.629689226627261,1.676694925714763
4.811430839003257,1.5241283157058798
5.000306842491082,1.3852538588141887
5.196597302486189,1.258862789216896
5.400593278542364,1.1438510324867903
5.612597255954967,1.0392103294023889
5.8329235942862,0.9440200659697846
6.06189899349756,0.8574398259853473
6.29986297838068,0.7787025606302752
6.547168402004727,0.7071082350416995
6.804181968927091,0.6420178054769823
7.071284778942991,0.5828483834189343
7.348872892180382,0.5290685253757421
7.637357916378006,0.48019377074042857
7.937167617217536,0.4357825633467984
8.248746552614573,0.39543278237076607
8.572556731909314,0.3587783568004675
8.909078300934132,0.3254856469221024
9.258810253973934,0.29525059571060136
9.622271173675122,0.2677961648486453
9.999999999999984,0.24286988339382296
