k [1/Mpc],P(k) [Mpc^3]
0.0001,134.41669062417577
0.00010392556829367125,140.095707494164
0.00010800523745162529,146.01453078438024
0.00011224505680853065,152.18326394378562
0.00011665131316981963,158.6124355892462
0.00012123054013376525,165.31302371920108
0.00012598952777950273,172.2964701468437
0.00013093533273536104,179.57469035118575
0.00013607528864243335,187.16008859997882
0.00014141701702890234,195.06558877718305
0.00014696843861124463,203.3046664477668
0.00015273778503907136,211.89136741354037
0.00015873361110102093,220.8403168664408
0.00016496480740980205,230.16673010724762
0.0001714406135851971,239.8864547451309
0.00017817063195457305,250.01601267269987
0.00018516484179121546,260.5726254175741
0.000192433614111598,271.5742261197877
0.00019998772705352857,283.0394685469317
0.0002078383818579757,294.9877753062578
0.00021599721947827182,307.4393745260476
0.0002244763378413224,320.41533278846026
0.0002332883097864157,333.9375873362172
0.00024244620170823283,348.028974009946
0.0002519635929317015,362.7132685452319
0.0002618545958474233,378.0152087846372
0.0002721338768375308,393.960522076752
0.0002828166780230032,410.57598745496637
0.0002939188398646886,427.8894811024329
0.0003054568246515432,445.9300192809567
0.00031744774091091926,464.7277812970767
0.00032990936877709396,484.3141269787583
0.00034286018635565856,504.7216770363212
0.00035631939712285854,525.9843480890174
0.000370306958400514,548.1374066243733
0.00038484361094874304,571.2175212346906
0.0003999509097203664,595.2627864104464
0.00041565125582259895,620.3128026827158
0.00043196792973341727,646.4086998223148
0.0004489251258218605,673.5931880096742
0.0004665479882234472,701.9106399190039
0.000484862648123908,731.4070998624759
0.000503896262506515,762.1303798465251
0.0005236770544204653,794.1300808694784
0.0005442343548300266,827.4576193275735
0.0005655986461065005,862.1663565054854
0.0005878016072274912,898.3116287855256
0.0006108761607505036,935.9508340724847
0.0006348565216305217,975.1434427491666
0.0006597782479539537,1015.9509633433322
0.0006856782936641739,1058.4371317590944
0.0007125950633568407,1102.6679481320596
0.0007405684692262436,1148.711757179165
0.0007696399902471156,1196.6392745171572
0.0007998527336796708,1246.5234671411124
0.000831251498989063,1298.4397853618732
0.0008638828442740447,1352.466139867082
0.000897795155303332,1408.6829466073152
0.0009330387172620361,1467.1732577859943
0.0009696657893145519,1528.0226096357567
0.001007730682094461,1591.3192246856281
0.0010472898382363582,1657.1538862019006
0.0010884019160690055,1725.619830417196
0.0011311278765939214,1796.8130288511775
0.001175531073878369,1870.8317980521704
0.0012216773489967915,1947.7770323585596
0.0012696351276599736,2027.7522352691362
0.0013194755216767058,2110.8632711147116
0.0013712724343984,2197.2186462721634
0.0014251026703029975,2286.9288742085855
0.0014810460488806749,2380.106583934063
0.0015391855229902056,2476.8666814547746
0.001599607301861487,2577.325730274882
0.0016624009789266115,2681.602395480654
0.0017276596646690358,2789.816870735575
0.0017954801246878305,2902.09069071604
0.0018659629231817451,3018.5469211895092
0.001939212572065829,3139.308982876332
0.0020153376859417325,3264.5012010995474
0.002094451143151469,3394.248316411278
0.002176670253153458,3528.6748763949686
0.002262116930469025,3667.9056153985866
0.002350917875457286,3812.0640528867725
0.002443204762186487,3961.2727470456734
0.0025391144336803463,4115.65266403204
0.002638789104828933,4275.321699868613
0.002742376573264949,4440.395565529592
0.0028500304385181063,4610.9861357047275
0.0029619103297725525,4787.201264434215
0.0030781821425650787,4969.144397799082
0.003199018284775064,5156.912145590153
0.0033245979322709396,5350.595360340419
0.003455107294592217,5550.277162816017
0.0035907398910610534,5756.032027454173
0.0037316968377327513,5967.925858056655
0.0038781871456107214,6186.012066809212
0.0040304280305680515,6410.332941225601
0.00418864523543527,6640.917424710496
0.004353073364731888,6877.778781956344
0.00452395623253805,7120.91573902781
0.004701547224022131,7370.306144385794
0.004886109671160325,7625.908534718925
0.005077917243205399,7887.661019994462
0.005277254352483535,8155.476876778576
0.005484416576121017,8429.24655792578
0.005699711094326071,8708.823807915738
0.005923457145875801,8994.027275938357
0.006155986501483508,9284.651607974205
0.006397643955748424,9580.475269491926
0.0066487878384172625,9881.248752483
0.0069097905457156435,10186.63619122677
0.007181039092537346,10496.207918122253
0.007462935686310132,10809.492497365753
0.007755898323389004,11125.997828158717
0.00806036140886134,11445.196151994238
0.008376776400682916,11766.513333422183
0.008705612479099857,12089.326612417877
0.009047357242349292,12412.958887802906
0.00940251742967013,12736.611787830087
0.009771619672696168,13059.399920331423
0.010155211276345676,13380.361214507999
0.010553861030365234,13698.431764572784
0.010968160052731372,14012.48097818645
0.011398722666160517,14321.272441945668
0.011846187309026826,14623.480273760717
0.012311217482038896,14917.698253374241
0.012794502732078732,15202.386084646027
0.013296759674662111,15475.93535642234
0.013818733056536317,15736.610969903288
0.014361196859990781,15982.55839375741
0.014924955450518284,16211.86439600835
0.015510844769528393,16422.466116400316
0.016119733573881575,16612.255247352787
0.01675252472408214,16779.042237002683
0.017410156523040152,16920.53625598374
0.018093604107387147,17034.469226774185
0.01880388089340914,17118.477816703133
0.019542040079740527,17170.2331513546
0.02030917620904734,17187.466928752096
0.021106426791015535,17167.915595099083
0.021934973989050584,17109.515238837354
0.02279604637318978,17010.315842076136
0.023690920741826323,16868.591921583746
0.02462092401494623,16682.956539913957
0.02558743520168586,16452.31663226593
0.02659188744512693,16176.044001394872
0.027635770147361564,15854.029338455424
0.028720631177978267,15486.719949714072
0.029848079169243254,15075.197952801973
0.03101978590138095,14621.313497700405
0.03223748878149028,14127.560153352371
0.0335029934197723,13597.366694960934
0.03481817630688963,13035.125326816973
0.03618498759642746,12445.690418326996
0.037605453996581675,11834.844158869833
0.03908168177536263,11208.668206956403
0.04061585988376978,10574.272941312764
0.04221026320156896,9940.515017407748
0.04386725591048496,9315.32891316501
0.0455892949998106,8705.396790921772
0.047378933909631396,8116.173489582738
0.049238826317067365,7554.067839576144
0.05117173007114603,7028.41711398916
0.05318051128214196,6546.312427766498
0.05526814857144601,6112.0593747323755
0.057437737488265785,5728.1184105646835
0.0596924950997073,5395.838085548717
0.0620357647610427,5115.554122214341
0.06447102107323864,4885.845965397643
0.06700187503509585,4704.377756101787
0.06963207939763882,4567.243208937172
0.0723655342286965,4469.0404761186055
0.07520629269592405,4402.4299779831
0.07815856707684081,4357.329060302112
0.08122673500479707,4321.81256131311
0.08441534596012978,4282.321402402683
0.0877291280161335,4224.049677722172
0.09117299484984914,4132.4446104154495
0.09475205302806537,3995.9010512299933
0.09847160957933764,3807.8997218522613
0.1023371798632519,3568.44926652044
0.10635449574860109,3284.7813875410516
0.11052951411260206,2971.1773527854057
0.1148684256737553,2647.6450535120057
0.1193776641714435,2336.858573919301
0.1240639159058831,2059.962252482852
0.12893412965257148,1833.0807775017654
0.13399552696593373,1665.5522984008885
0.1392556128874462,1559.7753951567786
0.14472218707411338,1511.4714922197613
0.15040335536380234,1509.3087745949056
0.15630754179458153,1534.2238760631694
0.16244350109588662,1560.1489649307168
0.16882033167003618,1558.0051177475282
0.17544748908334581,1503.9902075897003
0.1823348000868439,1390.2785926125218
0.189492477187382,1231.0626083544307
0.19693113379074215,1056.9615734021145
0.20466179993919872,901.9116309051968
0.21269593866686892,791.7992598867972
0.22104546299710207,737.4654829245418
0.22972275360711503,731.9218232187916
0.23874067718606454,752.2186341476153
0.2481126055137766,764.9835745913152
0.25785243528842716,739.0063409175051
0.26797460873256895,665.5982698564571
0.27849413500806414,567.2813868026789
0.28942661247167484,481.4682251114381
0.3007882518043098,433.9754818472784
0.31259590004822796,425.70653571456364
0.324867065587837,435.09568156273775
0.3376199441111335,428.95530294364164
0.35087344559027084,389.2774601408214
0.36464722232127456,332.21810696133366
0.37896169806447155,289.2418955764515
0.3938380983288488,274.7993899099384
0.4092984818452433,275.72171147588057
0.4253657732750382,265.3069486024847
0.44206379720285277,234.85626000452825
0.45941731346364734,203.8704189200974
0.47745205385661277,190.2233639983761
0.4961947603002895,186.84056887391307
0.5156732244854959,174.91666749882805
0.5359163290848509,153.9329317134584
0.556954090580013,139.68549544113554
0.5788177037701272,134.31073082496633
0.6015395880274836,125.36655743066838
0.6251534353689703,111.75825734131257
0.6496942604146115,103.15557960690093
0.6751984523072497,97.61006019582533
0.7017038286703824,88.85064750319754
0.7292496916841444,80.5256107810262
0.7578768863625915,74.01381371676534
0.7876278611187046,68.58251077793
0.8185467307069019,63.5772093869774
0.850679341636415,58.74070910526838
0.8840733401525058,54.118878435928835
0.9187782428863317,49.7562255554037
0.9548455102782278,45.6827525621192
0.9923286228832539,41.91606007324663
1.0312831606721837,38.46221129291317
1.0717668854455022,35.302769192119555
1.1138398264826193,32.40764530114867
1.1575643695533022,29.75023038105239
1.2030053494233226,27.307209065568937
1.2502301459914542,25.058114906915353
1.299308784200415,22.985263086433097
1.3503140378698726,21.075324274891837
1.4033215376054824,19.31699399947134
1.4584098829439835,17.699551237131416
1.5156607589006013,16.212848884309796
1.575159057091621,14.84730814077122
1.6369930016117014,13.593829595784833
1.7012542798525885,12.443525183134835
1.7680381784572046,11.388078021519913
1.8374437246107238,10.419831892368004
1.9095738328780953,9.531739148562425
1.9845354578058014,8.71731271209218
2.0624397525140905,7.970600394859208
2.143402233514853,7.286172424387812
2.227542951999554,6.65902326998284
2.314986671851158,6.0845292543160845
2.405863054644063,5.558421546232868
2.5003068519063225,5.076760800131536
2.598458104929248,4.6359073743851615
2.7004623524206774,4.232496109226479
2.806470846309834,3.8634291712745172
2.916640776023701,3.5258571480313696
3.031135501567576,3.217159868328002
3.150124795755327,2.9349286757273236
3.2737850959485697,2.6769514489287154
3.4022997656780634,2.441197166645102
3.5358593665351745,2.2257995379934656
3.6746619407366854,2.029044048300009
3.8189133047818515,1.849356114232705
3.968827354637162,1.685290059912989
4.1246263829013445,1.5355181027432172
4.286541408420921,1.398821462941111
4.4548125188449825,1.2740826025454672
4.629689226627261,1.1602771038509563
4.811430839003257,1.0564661448824726
5.000306842491082,0.9617895773167762
5.196597302486189,0.8754596670257558
5.400593278542364,0.7967550680087125
5.612597255954967,0.7250152880438328
5.8329235942862,0.6596357034014255
6.06189899349756,0.60006296847801
6.29986297838068,0.5457907417377666
6.547168402004727,0.4963555899847132
6.804181968927091,0.4513336781988799
7.071284778942991,0.41033758076939275
7.348872892180382,0.3730132255945158
7.637357916378006,0.3390370875110734
7.937167617217536,0.3081137077048058
8.248746552614573,0.2799735394518343
8.572556731909314,0.25437039471975165
8.909078300934132,0.23107938400796685
9.258810253973934,0.20989512509414676
9.622271173675122,0.1906300959641121
9.999999999999984,0.1731127593909903
