k [1/Mpc],P(k) [Mpc^3]
0.0001,77.57084449202345
0.00010392556829367125,81.08136179450206
0.00010800523745162529,84.75062037739778
0.00011224505680853065,88.5857858897192
0.00011665131316981963,92.59434420309154
0.00012123054013376525,96.78410876963972
0.00012598952777950273,101.1632411707458
0.00013093533273536104,105.7402733348916
0.00013607528864243335,110.524125542422
0.00014141701702890234,115.52411689157788
0.00014696843861124463,120.74997226461744
0.00015273778503907136,126.21184634896974
0.00015873361110102093,131.92034803605583
0.00016496480740980205,137.88656176179143
0.0001714406135851971,144.12206576707263
0.00017817063195457305,150.63894576429703
0.00018516484179121546,157.44981948710313
0.000192433614111598,164.56786305416443
0.00019998772705352857,172.00683253791843
0.0002078383818579757,179.7810916651883
0.00021599721947827182,187.90563123678484
0.0002244763378413224,196.39609569590368
0.0002332883097864157,205.2688151717117
0.00024244620170823283,214.54082558120888
0.0002519635929317015,224.22990537321598
0.0002618545958474233,234.35460034164663
0.0002721338768375308,244.93425020078473
0.0002828166780230032,255.98903094926382
0.0002939188398646886,267.53997045425893
0.0003054568246515432,279.60899281470176
0.00031744774091091926,292.21895693439654
0.00032990936877709396,305.39368328945943
0.00034286018635565856,319.15800541376865
0.00035631939712285854,333.5377906617959
0.000370306958400514,348.55998454326016
0.00038484361094874304,364.25265092948655
0.0003999509097203664,380.6449637423208
0.00041565125582259895,397.76729381492373
0.00043196792973341727,415.6512613505329
0.0004489251258218605,434.3297812196686
0.0004665479882234472,453.8371036837515
0.000484862648123908,474.20878078340445
0.000503896262506515,495.4817612606499
0.0005236770544204653,517.6944476599446
0.0005442343548300266,540.8867229717683
0.0005655986461065005,565.1000313134701
0.0005878016072274912,590.3773671452818
0.0006108761607505036,616.7633465372628
0.0006348565216305217,644.3042481826551
0.0006597782479539537,673.0479615941802
0.0006856782936641739,703.0441363111956
0.0007125950633568407,734.3442007661772
0.0007405684692262436,767.0014090531173
0.0007696399902471156,801.0708961511091
0.0007998527336796708,836.6095605908242
0.000831251498989063,873.6762235824315
0.0008638828442740447,912.3316014407736
0.000897795155303332,952.6382695441557
0.0009330387172620361,994.6608085721906
0.0009696657893145519,1038.465557566264
0.001007730682094461,1084.1207654438292
0.0010472898382363582,1131.696629886281
0.0010884019160690055,1181.2651380159648
0.0011311278765939214,1232.9002519652065
0.001175531073878369,1286.6774787551958
0.0012216773489967915,1342.673911382611
0.0012696351276599736,1400.9684414051876
0.0013194755216767058,1461.6414804995761
0.0013712724343984,1524.7751252361782
0.0014251026703029975,1590.4526597686495
0.0014810460488806749,1658.7583213757127
0.0015391855229902056,1729.7776333947484
0.001599607301861487,1803.5968091085686
0.0016624009789266115,1880.3029369962474
0.0017276596646690358,1959.9836450087396
0.0017954801246878305,2042.7265449862161
0.0018659629231817451,2128.619584442251
0.001939212572065829,2217.7502485353943
0.0020153376859417325,2310.2055404504986
0.002094451143151469,2406.07175078402
0.002176670253153458,2505.4334021491227
0.002262116930469025,2608.373697727825
0.002350917875457286,2714.973471619418
0.002443204762186487,2825.310768852411
0.0025391144336803463,2939.4609836769746
0.002638789104828933,3057.4955078840057
0.002742376573264949,3179.4819688362736
0.0028500304385181063,3305.48307089897
0.0029619103297725525,3435.5554851212173
0.0030781821425650787,3569.750304865771
0.003199018284775064,3708.1109619242684
0.0033245979322709396,3850.6733443035873
0.003455107294592217,3997.4649708548
0.0035907398910610534,4148.502935857599
0.0037316968377327513,4303.79466252348
0.0038781871456107214,4463.334210149743
0.0040304280305680515,4627.101919142862
0.00418864523543527,4795.065354700236
0.004353073364731888,4967.177059918767
0.00452395623253805,5143.374752447469
0.004701547224022131,5323.571836988636
0.004886109671160325,5507.653735837563
0.005077917243205399,5695.489665127215
0.005277254352483535,5886.951770465751
0.005484416576121017,6081.902853453746
0.005699711094326071,6280.145789611069
0.005923457145875801,6481.382312806089
0.006155986501483508,6685.278544897762
0.006397643955748424,6891.530780049168
0.0066487878384172625,7099.846949158855
0.0069097905457156435,7309.880820129457
0.007181039092537346,7521.168161966426
0.007462935686310132,7733.193030795481
0.007755898323389004,7945.438312282855
0.00806036140886134,8157.387761723259
0.008376776400682916,8368.47802114413
0.008705612479099857,8578.027356911309
0.009047357242349292,8785.28961804964
0.00940251742967013,8989.449998332111
0.009771619672696168,9189.611444223716
0.010155211276345676,9384.830199327756
0.010553861030365234,9574.092930399254
0.010968160052731372,9756.336743016902
0.011398722666160517,9930.429506428782
0.011846187309026826,10095.122818979351
0.012311217482038896,10249.128323849693
0.012794502732078732,10391.060810105913
0.013296759674662111,10519.467474510848
0.013818733056536317,10632.863432337854
0.014361196859990781,10729.649586893614
0.014924955450518284,10808.227717624583
0.015510844769528393,10866.944862538974
0.016119733573881575,10904.099793945972
0.01675252472408214,10918.056297844769
0.017410156523040152,10907.11924846713
0.018093604107387147,10869.690286347965
0.01880388089340914,10804.261801107472
0.019542040079740527,10709.371189625617
0.02030917620904734,10583.813287872057
0.021106426791015535,10426.50932652253
0.021934973989050584,10236.65652041632
0.02279604637318978,10013.823317414777
0.023690920741826323,9757.85272392283
0.02462092401494623,9469.105520289662
0.02558743520168586,9148.403959254447
0.02659188744512693,8797.084379820726
0.027635770147361564,8417.126174407185
0.028720631177978267,8011.109565090626
0.029848079169243254,7582.227161770018
0.03101978590138095,7134.364750890726
0.03223748878149028,6672.031189458408
0.0335029934197723,6200.1375111719735
0.03481817630688963,5724.333031863922
0.03618498759642746,5250.362062498788
0.037605453996581675,4784.134066668164
0.03908168177536263,4331.953653280422
0.04061585988376978,3899.1786687192443
0.04221026320156896,3491.178937646071
0.04386725591048496,3112.4206514796565
0.0455892949998106,2766.635487268786
0.047378933909631396,2458.1424925989663
0.049238826317067365,2188.9948370359066
0.05117173007114603,1959.8294164897356
0.05318051128214196,1769.9186995865198
0.05526814857144601,1617.9252677352881
0.057437737488265785,1502.2042695146376
0.0596924950997073,1420.5977950394558
0.0620357647610427,1371.1167942087031
0.06447102107323864,1351.2957141910072
0.06700187503509585,1357.8707464559131
0.06963207939763882,1385.9572920153432
0.0723655342286965,1429.247154655973
0.07520629269592405,1479.7697472525933
0.07815856707684081,1527.6986655742705
0.08122673500479707,1562.2705508301426
0.08441534596012978,1572.6863580484132
0.0877291280161335,1549.4816858776824
0.09117299484984914,1486.135796950416
0.09475205302806537,1380.9702658419903
0.09847160957933764,1238.826431059919
0.1023371798632519,1071.3627799009432
0.10635449574860109,895.4210986098279
0.11052951411260206,729.0612958540348
0.1148684256737553,587.133435939179
0.1193776641714435,478.67750191953405
0.1240639159058831,406.92873494540623
0.12893412965257148,371.1134053511661
0.13399552696593373,368.29683648795987
0.1392556128874462,393.69999919477056
0.14472218707411338,438.93720512766714
0.15040335536380234,489.5363659503424
0.15630754179458153,525.2806767597567
0.16244350109588662,526.6602741835388
0.16882033167003618,485.1364348671175
0.17544748908334581,408.94354147272423
0.1823348000868439,319.54151957542166
0.189492477187382,241.41370824773566
0.19693113379074215,190.85213775961495
0.20466179993919872,171.92742138095582
0.21269593866686892,180.9723860753502
0.22104546299710207,208.6321423679446
0.22972275360711503,236.32689595908045
0.23874067718606454,241.24954618687886
0.2481126055137766,213.3981729341809
0.25785243528842716,166.03475124124319
0.26797460873256895,124.17258924273986
0.27849413500806414,103.73661248133477
0.28942661247167484,106.17318263993852
0.3007882518043098,121.64682547350655
0.31259590004822796,130.7813468783746
0.324867065587837,118.62334847283437
0.3376199441111335,92.53318155539108
0.35087344559027084,72.60473098228046
0.36464722232127456,68.7935001731377
0.37896169806447155,75.73441476917418
0.3938380983288488,77.97541996943447
0.4092984818452433,66.93456461228506
0.4253657732750382,53.075697483935514
0.44206379720285277,48.45407046786875
0.45941731346364734,51.08399187213934
0.47745205385661277,49.73466217350026
0.4961947603002895,41.628971455661336
0.5156732244854959,36.02709896394352
0.5359163290848509,36.03406524558348
0.556954090580013,34.7840536506292
0.5788177037701272,29.839949907149503
0.6015395880274836,26.996440873112636
0.6251534353689703,26.368284361064077
0.6496942604146115,24.2045156710925
0.6751984523072497,22.036323127492253
0.7017038286703824,20.09443607555792
0.7292496916841444,18.361397822884687
0.7578768863625915,16.81960575598832
0.7876278611187046,15.443599779431192
0.8185467307069019,14.204373958546748
0.850679341636415,13.07815119111826
0.8840733401525058,12.045675843589184
0.9187782428863317,11.09140123618338
0.9548455102782278,10.204055708904589
0.9923286228832539,9.379564590613295
1.0312831606721837,8.615373987141162
1.0717668854455022,7.908704336712893
1.1138398264826193,7.256621061214625
1.1575643695533022,6.656088845598218
1.2030053494233226,6.103734503108146
1.2502301459914542,5.595915429224519
1.299308784200415,5.12921209855857
1.3503140378698726,4.700447495102037
1.4033215376054824,4.306672136905061
1.4584098829439835,3.9451453257341327
1.5156607589006013,3.6132978034799366
1.575159057091621,3.3087461829431293
1.6369930016117014,3.0292943610915275
1.7012542798525885,2.7729191585655215
1.7680381784572046,2.5377570020713693
1.8374437246107238,2.3220945169330474
1.9095738328780953,2.1243587309203598
1.9845354578058014,1.9430999305948864
2.0624397525140905,1.7769816638901421
2.143402233514853,1.6247722732418761
2.227542951999554,1.4853370545395537
2.314986671851158,1.3576312280031646
2.405863054644063,1.2406929149188046
2.5003068519063225,1.1336365994360158
2.598458104929248,1.035647311611205
2.7004623524206774,0.9459752333677095
2.806470846309834,0.8639304466334319
2.916640776023701,0.7888779081073719
3.031135501567576,0.7202339728503906
3.150124795755327,0.6574625181889546
3.2737850959485697,0.600071188453909
3.4022997656780634,0.5476079246624098
3.5358593665351745,0.49965773910739625
3.6746619407366854,0.4558397672717154
3.8189133047818515,0.41580456304658164
3.968827354637162,0.37923157747412045
4.1246263829013445,0.34582683224199373
4.286541408420921,0.31532078328807284
4.4548125188449825,0.28746637157980065
4.629689226627261,0.2620371586368609
4.811430839003257,0.23882563587098218
5.000306842491082,0.2176416821946997
5.196597302486189,0.19831114272921643
5.400593278542364,0.18067448762955132
5.612597255954967,0.1645856080620743
5.8329235942862,0.14991076452436092
6.06189899349756,0.1365275661482392
6.29986297838068,0.12432402793319294
6.547168402004727,0.11319770314856496
6.804181968927091,0.10305488009859629
7.071284778942991,0.09380985898059238
7.348872892180382,0.08538428487142219
7.637357916378006,0.07770653026524132
7.937167617217536,0.07071112842883777
8.248746552614573,0.06433827162266167
8.572556731909314,0.058533346570980145
8.909078300934132,0.05324645184886043
9.258810253973934,0.04843199449356815
9.622271173675122,0.04404832595159841
9.999999999999984,0.040057397279336264
