k [1/Mpc],P(k) [Mpc^3]
0.0001,21.316226772156867
0.00010392556829367125,22.281157090832874
0.00010800523745162529,23.28975599047433
0.00011224505680853065,24.34399586306627
0.00011665131316981963,25.445937247229583
0.00012123054013376525,26.59773562772295
0.00012598952777950273,27.801645924470535
0.00013093533273536104,29.060024736197683
0.00013607528864243335,30.375333277299564
0.00014141701702890234,31.750143121469527
0.00014696843861124463,33.18714116647614
0.00015273778503907136,34.689134394233314
0.00015873361110102093,36.259056070762746
0.00016496480740980205,37.89997270219647
0.0001714406135851971,39.61508959528085
0.00017817063195457305,41.40775554539283
0.00018516484179121546,43.281467523735785
0.000192433614111598,45.23987904779013
0.00019998772705352857,47.28680786200686
0.0002078383818579757,49.42624328969529
0.00021599721947827182,51.66235286914008
0.0002244763378413224,53.999487056112535
0.0002332883097864157,56.44218948383284
0.00024244620170823283,58.99520877757697
0.0002519635929317015,61.663509335478636
0.0002618545958474233,64.45227709914495
0.0002721338768375308,67.36692050799691
0.0002828166780230032,70.41308311346364
0.0002939188398646886,73.59666062101427
0.0003054568246515432,76.92381620500791
0.00031744774091091926,80.40098760696122
0.00032990936877709396,84.03489070705672
0.00034286018635565856,87.83253084925688
0.00035631939712285854,91.80122123317166
0.000370306958400514,95.94859435464336
0.00038484361094874304,100.28261705839559
0.0003999509097203664,104.81160259886052
0.00041565125582259895,109.54422309012637
0.00043196792973341727,114.4895281232496
0.0004489251258218605,119.6569563981909
0.0004665479882234472,125.05635369305013
0.000484862648123908,130.69798740494124
0.000503896262506515,136.59255387838746
0.0005236770544204653,142.75120600242622
0.0005442343548300266,149.18556592487846
0.0005655986461065005,155.90774329980962
0.0005878016072274912,162.93036030681904
0.0006108761607505036,170.26656480508066
0.0006348565216305217,177.93005629338015
0.0006597782479539537,185.93509898465155
0.0006856782936641739,194.2965349477601
0.0007125950633568407,203.02981928740815
0.0007405684692262436,212.15102469778196
0.0007696399902471156,221.67687164290825
0.0007998527336796708,231.62475563050876
0.000831251498989063,242.01275583573096
0.0008638828442740447,252.85967519832593
0.000897795155303332,264.185041390931
0.0009330387172620361,276.0091293281344
0.0009696657893145519,288.3530037244223
0.001007730682094461,301.2385127291139
0.0010472898382363582,314.6883360184298
0.0010884019160690055,328.72598605575405
0.0011311278765939214,343.3758045975094
0.001175531073878369,358.66303136720205
0.0012216773489967915,374.6137834858819
0.0012696351276599736,391.25509747530316
0.0013194755216767058,408.61493671922165
0.0013712724343984,426.7221223517606
0.0014251026703029975,445.6064429601932
0.0014810460488806749,465.29863691340273
0.0015391855229902056,485.8304054287132
0.001599607301861487,507.2344412580537
0.0016624009789266115,529.5442682097387
0.0017276596646690358,552.7943666536971
0.0017954801246878305,577.0202014344076
0.0018659629231817451,602.2581961231207
0.001939212572065829,628.5457634272478
0.0020153376859417325,655.9210204706426
0.002094451143151469,684.4228734533102
0.002176670253153458,714.0911306768312
0.002262116930469025,744.9664224479585
0.002350917875457286,777.0902388274696
0.002443204762186487,810.504633375805
0.0025391144336803463,845.2521550612673
0.002638789104828933,881.3759930440532
0.002742376573264949,918.9196859070419
0.0028500304385181063,957.9272281651811
0.0029619103297725525,998.442924491799
0.0030781821425650787,1040.511181430331
0.003199018284775064,1084.176595252084
0.0033245979322709396,1129.4834033190893
0.003455107294592217,1176.4755292399295
0.0035907398910610534,1225.1965349840389
0.0037316968377327513,1275.6891077783143
0.0038781871456107214,1327.9952726563558
0.0040304280305680515,1382.155836607725
0.00418864523543527,1438.2101592273368
0.004353073364731888,1496.196178422453
0.00452395623253805,1556.149354211406
0.004701547224022131,1618.1029992763774
0.004886109671160325,1682.0877956327163
0.005077917243205399,1748.131105843765
0.005277254352483535,1816.2572894707216
0.005484416576121017,1886.48645139773
0.005699711094326071,1958.8344633013219
0.005923457145875801,2033.3120318300357
0.006155986501483508,2109.9219927973095
0.006397643955748424,2188.6613364660284
0.0066487878384172625,2269.5232499351287
0.0069097905457156435,2352.49696933108
0.007181039092537346,2437.562834937508
0.007462935686310132,2524.6788120724314
0.007755898323389004,2613.7884846938064
0.00806036140886134,2704.8280917413113
0.008376776400682916,2797.7285269248837
0.008705612479099857,2892.410509265998
0.009047357242349292,2988.7811644934072
0.00940251742967013,3086.734475176122
0.009771619672696168,3186.147790796685
0.010155211276345676,3286.872471453947
0.010553861030365234,3388.7423688685303
0.010968160052731372,3491.569419058686
0.011398722666160517,3595.1428679363903
0.011846187309026826,3699.2323283829896
0.012311217482038896,3803.5789355062657
0.012794502732078732,3907.901556168607
0.013296759674662111,4011.8929267043363
0.013818733056536317,4115.21462951807
0.014361196859990781,4217.505768704818
0.014924955450518284,4318.368730872952
0.015510844769528393,4417.376437869659
0.016119733573881575,4514.076283912706
0.01675252472408214,4607.979107335111
0.017410156523040152,4698.575087502472
0.018093604107387147,4785.323472166832
0.01880388089340914,4867.655362574078
0.019542040079740527,4944.988139139097
0.02030917620904734,5016.713290735808
0.021106426791015535,5082.214584062664
0.021934973989050584,5140.871686560086
0.02279604637318978,5192.060743599405
0.023690920741826323,5235.173281835893
0.02462092401494623,5269.622958160152
0.02558743520168586,5294.854161967429
0.02659188744512693,5310.360386035313
0.027635770147361564,5315.709014846166
0.028720631177978267,5310.529697021561
0.029848079169243254,5294.560395631994
0.03101978590138095,5267.650279540931
0.03223748878149028,5229.7542440961615
0.0335029934197723,5181.063154839618
0.03481817630688963,5121.887897250285
0.03618498759642746,5052.664786282641
0.037605453996581675,4973.983611536839
0.03908168177536263,4886.550434939605
0.04061585988376978,4791.710069682048
0.04221026320156896,4691.108856307121
0.04386725591048496,4586.150628832343
0.0455892949998106,4477.6999606580675
0.047378933909631396,4366.549067353724
0.049238826317067365,4254.3857195821365
0.05117173007114603,4143.618218711272
0.05318051128214196,4036.3476777183305
0.05526814857144601,3934.1051987558926
0.057437737488265785,3838.145813246466
0.0596924950997073,3749.2922805338453
0.0620357647610427,3668.0943333062182
0.06447102107323864,3594.499537043638
0.06700187503509585,3528.0697882013046
0.06963207939763882,3467.7745378985755
0.0723655342286965,3412.198579667232
0.07520629269592405,3359.3177340032676
0.07815856707684081,3306.6523337265744
0.08122673500479707,3251.170612398394
0.08441534596012978,3189.4852132190363
0.0877291280161335,3118.2007448012023
0.09117299484984914,3034.3528286765086
0.09475205302806537,2936.1541240518923
0.09847160957933764,2823.1778412361114
0.1023371798632519,2697.078504996639
0.10635449574860109,2561.774545420577
0.11052951411260206,2421.682412832568
0.1148684256737553,2281.975683820293
0.1193776641714435,2148.7121819498057
0.1240639159058831,2027.8697746088974
0.12893412965257148,1924.3267868707126
0.13399552696593373,1840.7710147325188
0.1392556128874462,1776.8295670224336
0.14472218707411338,1728.7712718925425
0.15040335536380234,1689.9125166437593
0.15630754179458153,1651.6401399804688
0.16244350109588662,1605.0848484576634
0.16882033167003618,1543.4429882891502
0.17544748908334581,1464.2818357453355
0.1823348000868439,1370.7110702176335
0.189492477187382,1270.910662894792
0.19693113379074215,1176.0158412812484
0.20466179993919872,1096.3041915247302
0.21269593866686892,1037.0298156063627
0.22104546299710207,996.687208307781
0.22972275360711503,967.7229479801737
0.23874067718606454,938.4207071110195
0.2481126055137766,897.6245697726122
0.25785243528842716,841.6567193774481
0.26797460873256895,776.6749348904123
0.27849413500806414,714.6680613533782
0.28942661247167484,666.2800314597424
0.3007882518043098,633.9126569819122
0.31259590004822796,610.5105645926667
0.324867065587837,584.2798233505905
0.3376199441111335,547.951845859083
0.35087344559027084,504.9929800443963
0.36464722232127456,465.9143920157072
0.37896169806447155,437.77732779710925
0.3938380983288488,417.3407084257081
0.4092984818452433,395.5563976074374
0.4253657732750382,367.85264358697094
0.44206379720285277,339.21814262931457
0.45941731346364734,316.5906649109463
0.47745205385661277,299.2778007354886
0.4961947603002895,281.11812867720863
0.5156732244854959,260.39056146168735
0.5359163290848509,241.5114439765675
0.556954090580013,226.53823094121142
0.5788177037701272,212.04040207655228
0.6015395880274836,196.55414452701055
0.6251534353689703,182.63537810075087
0.6496942604146115,170.6835730920523
0.6751984523072497,158.68016352666857
0.7017038286703824,147.14500306425873
0.7292496916841444,137.01164626350555
0.7578768863625915,127.27744267361385
0.7876278611187046,118.01734537484396
0.8185467307069019,109.48630742949709
0.850679341636415,101.59403264247219
0.8840733401525058,94.24229329605772
0.9187782428863317,87.36931598252285
0.9548455102782278,80.95035865697773
0.9923286228832539,74.96345230347984
1.0312831606721837,69.38659070133242
1.0717668854455022,64.19791090895988
1.1138398264826193,59.37569533019503
1.1575643695533022,54.89690906878626
1.2030053494233226,50.73849830067425
1.2502301459914542,46.87883707699264
1.299308784200415,43.29766978110782
1.3503140378698726,39.976030031537576
1.4033215376054824,36.89621927327912
1.4584098829439835,34.041890497654904
1.5156607589006013,31.397742620826158
1.575159057091621,28.949394314969737
1.6369930016117014,26.68334009606078
1.7012542798525885,24.586907167675374
1.7680381784572046,22.648193858598034
1.8374437246107238,20.85602239244131
1.9095738328780953,19.199938543502526
1.9845354578058014,17.67017461366725
2.0624397525140905,16.257609849973047
2.143402233514853,14.953732315794698
2.227542951999554,13.750598796000762
2.314986671851158,12.640803169793337
2.405863054644063,11.617447538620679
2.5003068519063225,10.674110810989522
2.598458104929248,9.804818828487035
2.7004623524206774,9.004015750729424
2.806470846309834,8.266536191565592
2.916640776023701,7.587581514364834
3.031135501567576,6.962696441215897
3.150124795755327,6.387746404005624
3.2737850959485697,5.858896204736077
3.4022997656780634,5.372589114774632
3.5358593665351745,4.925527570017661
3.6746619407366854,4.514657251314586
3.8189133047818515,4.137150500477987
3.968827354637162,3.790390552997355
4.1246263829013445,3.471956711260334
4.286541408420921,3.1796096465522643
4.4548125188449825,2.911278983735287
4.629689226627261,2.6650521253580046
4.811430839003257,2.439162875576484
5.000306842491082,2.2319807988531966
5.196597302486189,2.0420013099733527
5.400593278542364,1.8678364727406687
5.612597255954967,1.7082063340821696
5.8329235942862,1.5619308898830986
6.06189899349756,1.4279226346291796
6.29986297838068,1.3051796307544745
6.547168402004727,1.1927786593568173
6.804181968927091,1.0898689372099644
7.071284778942991,0.9956675699923917
7.348872892180382,0.9094544513553039
7.637357916378006,0.8305673966278491
7.937167617217536,0.7583976800568296
8.248746552614573,0.6923866408828541
8.572556731909314,0.6320214419265542
8.909078300934132,0.5768306053260026
9.258810253973934,0.5263807873974622
9.622271173675122,0.48027382393002677
9.999999999999984,0.4381435700305866
