k [1/Mpc],P(k) [Mpc^3]
0.0001,216.91016705027042
0.00010392556829367125,224.12432626649723
0.00010800523745162529,231.5782158392515
0.00011224505680853065,239.27976804698426
0.00011665131316981963,247.237177444435
0.00012123054013376525,255.45891931663857
0.00012598952777950273,263.95375177771626
0.00013093533273536104,272.73071036057246
0.00013607528864243335,281.79911037619087
0.00014141701702890234,291.16857214612156
0.00014696843861124463,300.84904630659594
0.00015273778503907136,310.8508174989375
0.00015873361110102093,321.18449367512693
0.00016496480740980205,331.86099768570233
0.0001714406135851971,342.89160377994426
0.00017817063195457305,354.2879713815585
0.00018516484179121546,366.06215319995795
0.000192433614111598,378.2265836890606
0.00019998772705352857,390.7940633921671
0.0002078383818579757,403.7777971352141
0.00021599721947827182,417.19141399317164
0.0002244763378413224,431.048980528722
0.0002332883097864157,445.3650116971191
0.00024244620170823283,460.1544748402439
0.0002519635929317015,475.4328102647668
0.0002618545958474233,491.2159252228485
0.0002721338768375308,507.5201941243122
0.0002828166780230032,524.3625023933649
0.0002939188398646886,541.7602661230513
0.0003054568246515432,559.7314467021068
0.00031744774091091926,578.2945389865149
0.00032990936877709396,597.4685524295687
0.00034286018635565856,617.2730692186334
0.00035631939712285854,637.7282435727942
0.000370306958400514,658.8548228959894
0.00038484361094874304,680.6741648362007
0.0003999509097203664,703.208218881795
0.00041565125582259895,726.4795738961316
0.00043196792973341727,750.5114360814031
0.0004489251258218605,775.3276392189468
0.0004665479882234472,800.9526886110401
0.000484862648123908,827.411719167942
0.000503896262506515,854.7305520107077
0.0005236770544204653,882.9356639360042
0.0005442343548300266,912.0541629288031
0.0005655986461065005,942.1138764456111
0.0005878016072274912,973.1433264529853
0.0006108761607505036,1005.1717648983923
0.0006348565216305217,1038.229125776789
0.0006597782479539537,1072.3459306077436
0.0006856782936641739,1107.5534315173059
0.0007125950633568407,1143.8835877103127
0.0007405684692262436,1181.3690865893138
0.0007696399902471156,1220.0433074040475
0.0007998527336796708,1259.9401380487845
0.000831251498989063,1301.0941522234555
0.0008638828442740447,1343.5405231280752
0.000897795155303332,1387.3150071098987
0.0009330387172620361,1432.4540109970876
0.0009696657893145519,1478.9943806022764
0.001007730682094461,1526.9735390246553
0.0010472898382363582,1576.4293048566374
0.0010884019160690055,1627.3997353315197
0.0011311278765939214,1679.9233412522503
0.001175531073878369,1734.0386665100111
0.0012216773489967915,1789.7844607177622
0.0012696351276599736,1847.1996587778597
0.0013194755216767058,1906.3231080422484
0.0013712724343984,1967.1937828469281
0.0014251026703029975,2029.850174207833
0.0014810460488806749,2094.330364456922
0.0015391855229902056,2160.6721441297627
0.001599607301861487,2228.9124472234935
0.0016624009789266115,2299.0877272229036
0.0017276596646690358,2371.233449479979
0.0017954801246878305,2445.383934537757
0.0018659629231817451,2521.5725254879235
0.001939212572065829,2599.8306158706346
0.0020153376859417325,2680.188145242148
0.002094451143151469,2762.673224963149
0.002176670253153458,2847.3116885034797
0.002262116930469025,2934.127456774873
0.002350917875457286,3023.141473822167
0.002443204762186487,3114.372000569894
0.0025391144336803463,3207.8342068902516
0.002638789104828933,3303.539132554238
0.002742376573264949,3401.4945152520427
0.0028500304385181063,3501.7036538130506
0.0029619103297725525,3604.165437964009
0.0030781821425650787,3708.8742297139047
0.003199018284775064,3815.8182453028294
0.0033245979322709396,3924.980598607564
0.003455107294592217,4036.338076626123
0.0035907398910610534,4149.8607481461695
0.0037316968377327513,4265.512307503725
0.0038781871456107214,4383.247576190675
0.0040304280305680515,4503.013855620219
0.00418864523543527,4624.749722469749
0.004353073364731888,4748.383815625558
0.00452395623253805,4873.836074331811
0.004701547224022131,5001.01384912573
0.004886109671160325,5129.813541909262
0.005077917243205399,5260.120388262114
0.005277254352483535,5391.806087991004
0.005484416576121017,5524.730777369005
0.005699711094326071,5658.734588028667
0.005923457145875801,5793.639640240941
0.006155986501483508,5929.258010365603
0.006397643955748424,6065.397238098234
0.0066487878384172625,6201.853250496011
0.0069097905457156435,6338.374669364868
0.007181039092537346,6474.66040406011
0.007462935686310132,6610.393797055486
0.007755898323389004,6745.2563089580435
0.00806036140886134,6878.918821650883
0.008376776400682916,7011.035944039193
0.008705612479099857,7141.245632646837
0.009047357242349292,7269.166822814259
0.00940251742967013,7394.361667880472
0.009771619672696168,7516.357992769373
0.010155211276345676,7634.6570120423385
0.010553861030365234,7748.720612522823
0.010968160052731372,7857.99314812332
0.011398722666160517,7961.880859719093
0.011846187309026826,8059.762968652062
0.012311217482038896,8150.998300049061
0.012794502732078732,8234.897546729571
0.013296759674662111,8310.761279358347
0.013818733056536317,8377.849752641134
0.014361196859990781,8435.389037965644
0.014924955450518284,8482.604874079532
0.015510844769528393,8518.67614509129
0.016119733573881575,8542.791111190327
0.01675252472408214,8554.129429856896
0.017410156523040152,8551.853075704268
0.018093604107387147,8535.169934178486
0.01880388089340914,8503.273908204323
0.019542040079740527,8455.410074173504
0.02030917620904734,8390.885915634302
0.021106426791015535,8309.042272869774
0.021934973989050584,8209.34603492482
0.02279604637318978,8091.3445131063545
0.023690920741826323,7954.714656477645
0.02462092401494623,7799.311214187817
0.02558743520168586,7625.138722447711
0.02659188744512693,7432.423841837825
0.027635770147361564,7221.630504342724
0.028720631177978267,6993.46667195679
0.029848079169243254,6748.9085968654135
0.03101978590138095,6489.247970388496
0.03223748878149028,6216.022879417268
0.0335029934197723,5931.133606043947
0.03481817630688963,5636.838169210358
0.03618498759642746,5335.520681162016
0.037605453996581675,5029.882217072744
0.03908168177536263,4722.660688761897
0.04061585988376978,4416.931911139835
0.04221026320156896,4116.390168515887
0.04386725591048496,3824.2237881244764
0.0455892949998106,3542.999849668804
0.047378933909631396,3274.6986664811284
0.049238826317067365,3021.6096583112126
0.05117173007114603,2787.0994465845015
0.05318051128214196,2573.5293419038553
0.05526814857144601,2382.0858995196645
0.057437737488265785,2213.1930570001723
0.0596924950997073,2066.8248734175804
0.0620357647610427,1942.5621046344986
0.06447102107323864,1839.3291667926026
0.06700187503509585,1755.7364793405413
0.06963207939763882,1689.8522789817237
0.0723655342286965,1639.2543670652087
0.07520629269592405,1600.891786847198
0.07815856707684081,1570.8233060544608
0.08122673500479707,1544.579844160805
0.08441534596012978,1517.2639998655447
0.0877291280161335,1483.707764277974
0.09117299484984914,1439.0101312983475
0.09475205302806537,1379.459625873621
0.09847160957933764,1303.2184802360878
0.1023371798632519,1210.7339251607186
0.10635449574860109,1104.8749172567163
0.11052951411260206,990.7696111598171
0.1148684256737553,875.2685468618087
0.1193776641714435,765.8636329978797
0.1240639159058831,669.2921607062107
0.12893412965257148,590.439681621653
0.13399552696593373,531.8506158293587
0.1392556128874462,493.7770671096596
0.14472218707411338,474.3580434791487
0.15040335536380234,469.59326961529126
0.15630754179458153,473.2274868982638
0.16244350109588662,477.0729036682774
0.16882033167003618,472.307695119799
0.17544748908334581,452.00018055621575
0.1823348000868439,414.22174460511945
0.189492477187382,363.620748591987
0.19693113379074215,309.50322079133775
0.20466179993919872,261.82277409126056
0.21269593866686892,227.87463296069657
0.22104546299710207,210.40693344867137
0.22972275360711503,207.0239084536006
0.23874067718606454,210.92951444690277
0.2481126055137766,212.6585428368036
0.25785243528842716,203.66497415944565
0.26797460873256895,181.85189215804533
0.27849413500806414,153.65320804462976
0.28942661247167484,129.2850140637905
0.3007882518043098,115.52692357470869
0.31259590004822796,112.34811506935492
0.324867065587837,113.83549585716925
0.3376199441111335,111.26086451162031
0.35087344559027084,100.0983929840608
0.36464722232127456,84.68931197012611
0.37896169806447155,73.09774215162302
0.3938380983288488,68.848738307905
0.4092984818452433,68.48392540952563
0.4253657732750382,65.32866190144973
0.44206379720285277,57.331689084813725
0.45941731346364734,49.33831005512977
0.47745205385661277,45.63850088136979
0.4961947603002895,44.440215049165126
0.5156732244854959,41.24521993179842
0.5359163290848509,35.98416488415983
0.556954090580013,32.371934875629144
0.5788177037701272,30.85783950878033
0.6015395880274836,28.554460700980687
0.6251534353689703,25.235350507302606
0.6496942604146115,23.091912430920484
0.6751984523072497,21.662033198881122
0.7017038286703824,19.54801626796382
0.7292496916841444,17.563601727489395
0.7578768863625915,16.00404610323619
0.7876278611187046,14.701709928948203
0.8185467307069019,13.511183391708572
0.850679341636415,12.375665734041396
0.8840733401525058,11.303570088202111
0.9187782428863317,10.302716035973653
0.9548455102782278,9.37765009834446
0.9923286228832539,8.530209010261265
1.0312831606721837,7.759807111498269
1.0717668854455022,7.060946292260081
1.1138398264826193,6.425975566481672
1.1575643695533022,5.84816186370621
1.2030053494233226,5.321619571019719
1.2502301459914542,4.841192636027456
1.299308784200415,4.402414242165192
1.3503140378698726,4.0017794490298995
1.4033215376054824,3.636268025171843
1.4584098829439835,3.3030569033972137
1.5156607589006013,2.9995119281894356
1.575159057091621,2.723180563824081
1.6369930016117014,2.4717696564333087
1.7012542798525885,2.243091885056018
1.7680381784572046,2.035127042827646
1.8374437246107238,1.8460321567266451
1.9095738328780953,1.6741260583466255
1.9845354578058014,1.517875291505473
2.0624397525140905,1.3758844440587916
2.143402233514853,1.2468890950787537
2.227542951999554,1.1297344519680228
2.314986671851158,1.023364346324542
2.405863054644063,0.9268132567460012
2.5003068519063225,0.8391989203964605
2.598458104929248,0.7597145139213135
2.7004623524206774,0.6876218983983344
2.806470846309834,0.6222480500801525
2.916640776023701,0.5629797327027934
3.031135501567576,0.5092583383049448
3.150124795755327,0.4605751643977166
3.2737850959485697,0.41646730929984255
3.4022997656780634,0.37651366064033903
3.5358593665351745,0.3403309035639043
3.6746619407366854,0.3075702121566004
3.8189133047818515,0.2779142416704544
3.968827354637162,0.25107436482377915
4.1246263829013445,0.22678802161523873
4.286541408420921,0.20481648900483015
4.4548125188449825,0.18494290434220567
4.629689226627261,0.1669703157473889
4.811430839003257,0.1507198970344067
5.000306842491082,0.1360293206062529
5.196597302486189,0.12275128960150605
5.400593278542364,0.1107521621829087
5.612597255954967,0.0999106999591203
5.8329235942862,0.09011694271985188
6.06189899349756,0.0812711826566914
6.29986297838068,0.07328302301121412
6.547168402004727,0.06607049905794217
6.804181968927091,0.05955933905133073
7.071284778942991,0.05368227097858868
7.348872892180382,0.04837837482208243
7.637357916378006,0.043592493483248715
7.937167617217536,0.03927470946504454
8.248746552614573,0.035379884176638815
8.572556731909314,0.03186716589244039
8.909078300934132,0.02869957970221895
9.258810253973934,0.025843667550753183
9.622271173675122,0.023269160670981188
9.999999999999984,0.020948637856596328
