k [1/Mpc],P(k) [Mpc^3]
0.0001,395.069316907992
0.00010392556829367125,412.90540962579763
0.00010800523745162529,431.5425365125592
0.00011224505680853065,451.01612744316685
0.00011665131316981963,471.3631395710912
0.00012123054013376525,492.6221192943544
0.00012598952777950273,514.8332150468018
0.00013093533273536104,538.0381917051681
0.00013607528864243335,562.2805649572351
0.00014141701702890234,587.6056374846792
0.00014696843861124463,614.0605821087573
0.00015273778503907136,641.6944971423187
0.00015873361110102093,670.5584049172872
0.00016496480740980205,700.705396629251
0.0001714406135851971,732.1906258884817
0.00017817063195457305,765.0713850952326
0.00018516484179121546,799.4072161717266
0.000192433614111598,835.2598570426065
0.00019998772705352857,872.6934171926516
0.0002078383818579757,911.7743754005909
0.00021599721947827182,952.5716104527771
0.0002244763378413224,995.1565473199294
0.0002332883097864157,1039.6029583087868
0.00024244620170823283,1085.9871844936913
0.0002519635929317015,1134.3882088401524
0.0002618545958474233,1184.8876223187401
0.0002721338768375308,1237.5697902564273
0.0002828166780230032,1292.5215033535817
0.0002939188398646886,1349.8321579615993
0.0003054568246515432,1409.5939403900456
0.00031744774091091926,1471.9017029950985
0.00032990936877709396,1536.8531439060823
0.00034286018635565856,1604.5483494614302
0.00035631939712285854,1675.089815192562
0.000370306958400514,1748.582743444733
0.00038484361094874304,1825.1347524166636
0.0003999509097203664,1904.8560787004787
0.00041565125582259895,1987.859147944514
0.00043196792973341727,2074.258347890258
0.0004489251258218605,2164.1703674929254
0.0004665479882234472,2257.7136671185276
0.000484862648123908,2355.0086495492505
0.000503896262506515,2456.177280314227
0.0005236770544204653,2561.3425294986882
0.0005442343548300266,2670.628727441731
0.0005655986461065005,2784.160462460596
0.0005878016072274912,2902.0626807617987
0.0006108761607505036,3024.4604882258745
0.0006348565216305217,3151.478019702745
0.0006597782479539537,3283.2389335731123
0.0006856782936641739,3419.864695816233
0.0007125950633568407,3561.4742403281793
0.0007405684692262436,3708.1840805273
0.0007696399902471156,3860.1060060958807
0.0007998527336796708,4017.3479710149836
0.000831251498989063,4180.012405252199
0.0008638828442740447,4348.195029286437
0.000897795155303332,4521.985517323834
0.0009330387172620361,4701.4652876526125
0.0009696657893145519,4886.707649171827
0.001007730682094461,5077.775720136687
0.0010472898382363582,5274.719888933468
0.0010884019160690055,5477.579623166872
0.0011311278765939214,5686.38394079218
0.001175531073878369,5901.150129516252
0.0012216773489967915,6121.880042187426
0.0012696351276599736,6348.5553443189065
0.0013194755216767058,6581.140341040584
0.0013712724343984,6819.579259906409
0.0014251026703029975,7063.795324827583
0.0014810460488806749,7313.69138775706
0.0015391855229902056,7569.148703367939
0.001599607301861487,7830.0260932420515
0.0016624009789266115,8096.159458799907
0.0017276596646690358,8367.360965344194
0.0017954801246878305,8643.417405751288
0.0018659629231817451,8924.087889563867
0.001939212572065829,9209.103940146219
0.0020153376859417325,9498.171205249155
0.002094451143151469,9790.970407518345
0.002176670253153458,10087.154510212915
0.002262116930469025,10386.349790251465
0.002350917875457286,10688.15492596593
0.002443204762186487,10992.141053575751
0.0025391144336803463,11297.853565323874
0.002638789104828933,11604.809934522596
0.002742376573264949,11912.495657166264
0.0028500304385181063,12220.365159084844
0.0029619103297725525,12527.847889241131
0.0030781821425650787,12834.356459244675
0.003199018284775064,13139.279427433581
0.0033245979322709396,13441.927307101982
0.003455107294592217,13741.52108586621
0.0035907398910610534,14037.294498349003
0.0037316968377327513,14328.724849198776
0.0038781871456107214,14615.379975908982
0.0040304280305680515,14896.514747962197
0.00418864523543527,15170.837678928981
0.004353073364731888,15437.009086237891
0.00452395623253805,15694.105453962547
0.004701547224022131,15941.439381897766
0.004886109671160325,16178.338086958334
0.005077917243205399,16404.14658120674
0.005277254352483535,16618.21563040918
0.005484416576121017,16819.73758796819
0.005699711094326071,17007.78197257943
0.005923457145875801,17181.41980657282
0.006155986501483508,17339.71081926876
0.006397643955748424,17481.731749817805
0.0066487878384172625,17606.60182913106
0.0069097905457156435,17713.49114453762
0.007181039092537346,17801.609504447646
0.007462935686310132,17870.19213838317
0.007755898323389004,17918.52131552357
0.00806036140886134,17945.91146636523
0.008376776400682916,17951.697452637116
0.008705612479099857,17935.275496756418
0.009047357242349292,17896.036544872717
0.00940251742967013,17833.417425813077
0.009771619672696168,17746.94287946703
0.010155211276345676,17636.21852888852
0.010553861030365234,17500.960392316803
0.010968160052731372,17340.983241620732
0.011398722666160517,17156.214120677327
0.011846187309026826,16946.703903266844
0.012311217482038896,16712.60142811918
0.012794502732078732,16454.19615264488
0.013296759674662111,16171.969145818844
0.013818733056536317,15866.594412496399
0.014361196859990781,15538.910986313631
0.014924955450518284,15189.984728638055
0.015510844769528393,14821.0419118147
0.016119733573881575,14433.573466902297
0.01675252472408214,14029.387024469812
0.017410156523040152,13610.403411458712
0.018093604107387147,13178.890160146211
0.01880388089340914,12737.245777053096
0.019542040079740527,12288.049232265454
0.02030917620904734,11834.305124471677
0.021106426791015535,11378.89939687047
0.021934973989050584,10924.754260012729
0.02279604637318978,10474.695310476967
0.023690920741826323,10031.64027621022
0.02462092401494623,9599.503909411427
0.02558743520168586,9181.840104676834
0.02659188744512693,8780.822210947492
0.027635770147361564,8397.413408968792
0.028720631177978267,8032.331549351949
0.029848079169243254,7686.301688760265
0.03101978590138095,7359.889235018453
0.03223748878149028,7053.449782279255
0.0335029934197723,6767.165576661595
0.03481817630688963,6500.777205680634
0.03618498759642746,6251.534462557985
0.037605453996581675,6015.837779141859
0.03908168177536263,5789.848850555198
0.04061585988376978,5568.732612617666
0.04221026320156896,5348.23164564596
0.04386725591048496,5125.853549239107
0.0455892949998106,4900.357325222968
0.047378933909631396,4669.801745267926
0.049238826317067365,4430.141553250401
0.05117173007114603,4179.506404566117
0.05318051128214196,3924.3606246412523
0.05526814857144601,3672.470873549532
0.057437737488265785,3428.7404203348983
0.0596924950997073,3196.4659660567017
0.0620357647610427,2978.285164932086
0.06447102107323864,2777.844667808134
0.06700187503509585,2602.4582143501325
0.06963207939763882,2452.1018985172236
0.0723655342286965,2320.175246274428
0.07520629269592405,2206.818861645644
0.07815856707684081,2107.553421833336
0.08122673500479707,2009.944704134489
0.08441534596012978,1907.164083989153
0.0877291280161335,1797.3927225853286
0.09117299484984914,1682.462027003125
0.09475205302806537,1565.6476652645458
0.09847160957933764,1448.4908133328504
0.1023371798632519,1336.2010723106932
0.10635449574860109,1236.622202730097
0.11052951411260206,1153.1675512491588
0.1148684256737553,1081.1602684146296
0.1193776641714435,1017.1566848077154
0.1240639159058831,958.0213663648609
0.12893412965257148,898.2003100395916
0.13399552696593373,836.0019942822667
0.1392556128874462,774.8984819289747
0.14472218707411338,717.1228420861621
0.15040335536380234,664.958856813649
0.15630754179458153,618.404927441952
0.16244350109588662,576.5421422916338
0.16882033167003618,537.48531859568
0.17544748908334581,499.1735917928809
0.1823348000868439,462.72363154277247
0.189492477187382,428.49860975262874
0.19693113379074215,397.251177713532
0.20466179993919872,368.47857653497596
0.21269593866686892,341.70595156599967
0.22104546299710207,316.4539290696047
0.22972275360711503,292.81356821289984
0.23874067718606454,270.9500603080674
0.2481126055137766,250.69595022383956
0.25785243528842716,231.8692033259633
0.26797460873256895,214.3066961369046
0.27849413500806414,197.99292123191634
0.28942661247167484,182.8927502484373
0.3007882518043098,168.8778850498985
0.31259590004822796,155.86555580199547
0.324867065587837,143.80454325142028
0.3376199441111335,132.63519261355611
0.35087344559027084,122.29344660668012
0.36464722232127456,112.718202046472
0.37896169806447155,103.86301162947767
0.3938380983288488,95.6768835578388
0.4092984818452433,88.1094875255549
0.4253657732750382,81.11902492439485
0.44206379720285277,74.66204186516086
0.45941731346364734,68.69726801391813
0.47745205385661277,63.19119680347408
0.4961947603002895,58.10781323026117
0.5156732244854959,53.416556294951846
0.5359163290848509,49.089544885479285
0.556954090580013,45.10086401597074
0.5788177037701272,41.42622161535968
0.6015395880274836,38.042586815592905
0.6251534353689703,34.92751859148325
0.6496942604146115,32.05935154119978
0.6751984523072497,29.419268558757647
0.7017038286703824,26.98996305702199
0.7292496916841444,24.755353818961677
0.7578768863625915,22.700507187644806
0.7876278611187046,20.811556911579505
0.8185467307069019,19.07557857389119
0.850679341636415,17.480572481632308
0.8840733401525058,16.01544463811603
0.9187782428863317,14.66994207737808
0.9548455102782278,13.434591982404518
0.9923286228832539,12.30065616793702
1.0312831606721837,11.260088385916195
1.0717668854455022,10.305455563208975
1.1138398264826193,9.429889813578791
1.1575643695533022,8.627048142751695
1.2030053494233226,7.891073906660416
1.2502301459914542,7.216553151466889
1.299308784200415,6.598488656837827
1.3503140378698726,6.032276292205382
1.4033215376054824,5.5136754774043695
1.4584098829439835,5.038781621147853
1.5156607589006013,4.60399929451366
1.575159057091621,4.206017135529953
1.6369930016117014,3.8417893994608945
1.7012542798525885,3.5085158786063784
1.7680381784572046,3.2036227170066214
1.8374437246107238,2.9247449506356338
1.9095738328780953,2.669713261964924
1.9845354578058014,2.436536414692502
2.0624397525140905,2.223384412656934
2.143402233514853,2.0285759099813845
2.227542951999554,1.8505666092244328
2.314986671851158,1.6879371898467213
2.405863054644063,1.5393816276065297
2.5003068519063225,1.4037020896378185
2.598458104929248,1.2798008610235707
2.7004623524206774,1.1666721409912701
2.806470846309834,1.0633946059795047
2.916640776023701,0.9691258620695699
3.031135501567576,0.8830950899618993
3.150124795755327,0.8045958347081056
3.2737850959485697,0.7329807675423493
3.4022997656780634,0.667656889940809
3.5358593665351745,0.6080807486154607
3.6746619407366854,0.5537537988056594
3.8189133047818515,0.5042198581757706
3.968827354637162,0.45906179874779784
4.1246263829013445,0.4178982579133594
4.286541408420921,0.3803806397442401
4.4548125188449825,0.3461906150203576
4.629689226627261,0.3150374148520429
4.811430839003257,0.28665522736477406
5.000306842491082,0.26080109453510375
5.196597302486189,0.23725298962192926
5.400593278542364,0.21580802413771896
5.612597255954967,0.19628077718724773
5.8329235942862,0.17850190975876978
6.06189899349756,0.16231681578186025
6.29986297838068,0.147584362425578
6.547168402004727,0.134175733869025
6.804181968927091,0.1219733395044621
7.071284778942991,0.11086986503194182
7.348872892180382,0.10076742423739982
7.637357916378006,0.09157674348122799
7.937167617217536,0.08321641431775445
8.248746552614573,0.07561223146315381
8.572556731909314,0.06869661299369183
8.909078300934132,0.06240794494140473
9.258810253973934,0.05669004445124519
9.622271173675122,0.051491689926310265
9.999999999999984,0.04676618532021447
