k [1/Mpc],P(k) [Mpc^3]
0.0001,12713.836251857165
0.00010392556829367125,13135.214295362513
0.00010800523745162529,13570.42587839126
0.00011224505680853065,14019.909705648326
0.00011665131316981963,14484.11753538869
0.00012123054013376525,14963.514484614423
0.00012598952777950273,15458.577793438337
0.00013093533273536104,15969.795678158884
0.00013607528864243335,16497.669740612833
0.00014141701702890234,17042.71432303695
0.00014696843861124463,17605.45720786362
0.00015273778503907136,18186.439436336183
0.00015873361110102093,18786.213500468777
0.00016496480740980205,19405.345664330816
0.0001714406135851971,20044.41393920798
0.00017817063195457305,20704.008390184285
0.00018516484179121546,21384.73229462364
0.000192433614111598,22087.198830259105
0.00019998772705352857,22812.033929532092
0.0002078383818579757,23559.874298308663
0.00021599721947827182,24331.366363358742
0.0002244763378413224,25127.16816092602
0.0002332883097864157,25947.94243825866
0.00024244620170823283,26794.360550521455
0.0002519635929317015,27667.102435641697
0.0002618545958474233,28566.85396652129
0.0002721338768375308,29494.30921300476
0.0002828166780230032,30450.16036727656
0.0002939188398646886,31435.100644057675
0.0003054568246515432,32449.82704824142
0.00031744774091091926,33495.035906526995
0.00032990936877709396,34571.425500198406
0.00034286018635565856,35679.684316728235
0.00035631939712285854,36820.49059603098
0.000370306958400514,37994.51790793651
0.00038484361094874304,39202.4276930195
0.0003999509097203664,40444.87277469428
0.00041565125582259895,41722.487360729545
0.00043196792973341727,43035.88191942369
0.0004489251258218605,44385.65002556704
0.0004665479882234472,45772.357135505015
0.000484862648123908,47196.54418472457
0.000503896262506515,48658.72005494087
0.0005236770544204653,50159.35108446655
0.0005442343548300266,51698.86902843567
0.0005655986461065005,53277.65062794336
0.0005878016072274912,54896.02137045741
0.0006108761607505036,56554.25350031869
0.0006348565216305217,58252.547007952715
0.0006597782479539537,59991.04170909864
0.0006856782936641739,61769.78868796792
0.0007125950633568407,63588.748381205536
0.0007405684692262436,65447.796917658474
0.0007696399902471156,67346.69005465314
0.0007998527336796708,69285.08479325355
0.000831251498989063,71262.51581057673
0.0008638828442740447,73278.38218027422
0.000897795155303332,75331.9660451783
0.0009330387172620361,77422.4029634185
0.0009696657893145519,79548.69289005765
0.001007730682094461,81709.67485254232
0.0010472898382363582,83903.99636847858
0.0010884019160690055,86130.1536806951
0.0011311278765939214,88386.50882521636
0.001175531073878369,90671.27893620814
0.0012216773489967915,92982.4897703246
0.0012696351276599736,95317.91702609783
0.0013194755216767058,97675.1446203376
0.0013712724343984,100051.53815361472
0.0014251026703029975,102444.24661743302
0.0014810460488806749,104850.22681178436
0.0015391855229902056,107266.24026321179
0.001599607301861487,109688.85627039577
0.0016624009789266115,112114.46004042504
0.0017276596646690358,114539.25623422654
0.0017954801246878305,116959.26162945101
0.0018659629231817451,119370.28972727875
0.001939212572065829,121767.96874353407
0.0020153376859417325,124147.77996836576
0.002094451143151469,126505.08415372185
0.002176670253153458,128835.09816473715
0.002262116930469025,131132.92294778326
0.002350917875457286,133393.54522056668
0.002443204762186487,135611.8513740411
0.0025391144336803463,137782.66203518296
0.002638789104828933,139900.71670654556
0.002742376573264949,141960.6373112272
0.0028500304385181063,143956.95306991693
0.0029619103297725525,145884.18445668533
0.0030781821425650787,147736.94528072403
0.003199018284775064,149509.86320190225
0.0033245979322709396,151196.97957634067
0.003455107294592217,152791.66349000717
0.0035907398910610534,154287.78335000697
0.0037316968377327513,155682.195975466
0.0038781871456107214,156972.94064123105
0.0040304280305680515,158154.8927152105
0.00418864523543527,159217.49991238577
0.004353073364731888,160150.27028179244
0.00452395623253805,160947.546338888
0.004701547224022131,161606.41769312185
0.004886109671160325,162124.35294756846
0.005077917243205399,162499.21519537462
0.005277254352483535,162729.12678821577
0.005484416576121017,162810.87022604086
0.005699711094326071,162740.3100922699
0.005923457145875801,162513.62821704432
0.006155986501483508,162127.19345705875
0.006397643955748424,161577.81985328978
0.0066487878384172625,160862.98101076062
0.0069097905457156435,159980.85437902305
0.007181039092537346,158930.18722128673
0.007462935686310132,157710.14261725804
0.007755898323389004,156320.46840086588
0.00806036140886134,154761.33897530168
0.008376776400682916,153033.23377961863
0.008705612479099857,151137.26709117249
0.009047357242349292,149074.5985060892
0.00940251742967013,146846.85279268693
0.009771619672696168,144456.43641419342
0.010155211276345676,141906.4366080243
0.010553861030365234,139200.8165037637
0.010968160052731372,136344.27184906625
0.011398722666160517,133342.29137594497
0.011846187309026826,130201.19641943953
0.012311217482038896,126927.89192139126
0.012794502732078732,123530.14722629476
0.013296759674662111,120016.91810968307
0.013818733056536317,116398.28036413665
0.014361196859990781,112685.15343647091
0.014924955450518284,108889.68371722514
0.015510844769528393,105024.69091655857
0.016119733573881575,101104.34533449588
0.01675252472408214,97144.43528980028
0.017410156523040152,93160.8639312422
0.018093604107387147,89171.20294284914
0.01880388089340914,85193.13375247273
0.019542040079740527,81244.74594260723
0.02030917620904734,77346.09324704632
0.021106426791015535,73515.5406009383
0.021934973989050584,69770.82395964583
0.02279604637318978,66128.22286818297
0.023690920741826323,62603.79788272949
0.02462092401494623,59218.96293870079
0.02558743520168586,55991.87499978443
0.02659188744512693,52931.44460088818
0.027635770147361564,50038.85630401516
0.028720631177978267,47313.6817863046
0.029848079169243254,44755.43909730931
0.03101978590138095,42362.63361930643
0.03223748878149028,40132.529133627075
0.0335029934197723,38061.42388734997
0.03481817630688963,36143.215593873574
0.03618498759642746,34358.27990095795
0.037605453996581675,32683.170385207453
0.03908168177536263,31094.141109336022
0.04061585988376978,29563.168714822175
0.04221026320156896,28066.490026429157
0.04386725591048496,26590.552760859253
0.0455892949998106,25128.825958148438
0.047378933909631396,23671.521318432293
0.049238826317067365,22198.754465935
0.05117173007114603,20702.33238628102
0.05318051128214196,19215.26902327443
0.05526814857144601,17775.392422614816
0.057437737488265785,16405.093956454944
0.0596924950997073,15118.109170090831
0.0620357647610427,13924.41467431987
0.06447102107323864,12838.134009219122
0.06700187503509585,11889.42879601445
0.06963207939763882,11073.859685725478
0.0723655342286965,10357.729607699797
0.07520629269592405,9738.537595380358
0.07815856707684081,9193.670347020663
0.08122673500479707,8667.17813839259
0.08441534596012978,8129.520867586336
0.0877291280161335,7573.613657854267
0.09117299484984914,7007.913247316806
0.09475205302806537,6446.452073494948
0.09847160957933764,5895.569267142005
0.1023371798632519,5376.072225270474
0.10635449574860109,4918.283921812005
0.11052951411260206,4533.694449084133
0.1148684256737553,4201.778832814723
0.1193776641714435,3907.637302277635
0.1240639159058831,3638.1856935379433
0.12893412965257148,3371.8336842155386
0.13399552696593373,3102.298160259798
0.1392556128874462,2842.5251082092573
0.14472218707411338,2600.37710163255
0.15040335536380234,2383.531136326016
0.15630754179458153,2191.2012832985433
0.16244350109588662,2019.4061163642043
0.16882033167003618,1860.983375014569
0.17544748908334581,1708.4834116817865
0.1823348000868439,1565.5398336715318
0.189492477187382,1433.0955168014086
0.19693113379074215,1313.3309869047575
0.20466179993919872,1204.2163467076812
0.21269593866686892,1103.8958382186477
0.22104546299710207,1010.5767974924995
0.22972275360711503,924.3433158030116
0.23874067718606454,845.5019970857518
0.2481126055137766,773.3141941087664
0.25785243528842716,707.0253911700968
0.26797460873256895,645.9679332450847
0.27849413500806414,589.9404287211978
0.28942661247167484,538.6891947210438
0.3007882518043098,491.69731041840043
0.31259590004822796,448.5991862105971
0.324867065587837,409.1327203050923
0.3376199441111335,373.02132162109933
0.35087344559027084,339.9862447319563
0.36464722232127456,309.76724412053767
0.37896169806447155,282.1536210130348
0.3938380983288488,256.9301173262906
0.4092984818452433,233.8912351069867
0.4253657732750382,212.86157501441937
0.44206379720285277,193.66792082148703
0.45941731346364734,176.14915775130734
0.47745205385661277,160.16992163911428
0.4961947603002895,145.59356890344816
0.5156732244854959,132.30212619469089
0.5359163290848509,120.18858464124781
0.556954090580013,109.15467846129118
0.5788177037701272,99.10968470031128
0.6015395880274836,89.96924755095539
0.6251534353689703,81.65354755438213
0.6496942604146115,74.08756765439054
0.6751984523072497,67.2056446862932
0.7017038286703824,60.94799853176774
0.7292496916841444,55.25983372652169
0.7578768863625915,50.09095065335974
0.7876278611187046,45.39537019269035
0.8185467307069019,41.13087872386313
0.850679341636415,37.258828686025474
0.8840733401525058,33.74394265725227
0.9187782428863317,30.554029987481638
0.9548455102782278,27.659725144323833
0.9923286228832539,25.03427022341853
1.0312831606721837,22.65331342158574
1.0717668854455022,20.494645318313268
1.1138398264826193,18.538009805120076
1.1575643695533022,16.764939425938493
1.2030053494233226,15.158602179405401
1.2502301459914542,13.703646178434694
1.299308784200415,12.38608551869892
1.3503140378698726,11.193195839621959
1.4033215376054824,10.113403989272927
1.4584098829439835,9.1361867686765
1.5156607589006013,8.251976044665657
1.575159057091621,7.452071710745939
1.6369930016117014,6.7285706862533265
1.7012542798525885,6.074296532253412
1.7680381784572046,5.482734112656141
1.8374437246107238,4.94797045771371
1.9095738328780953,4.464645640430245
1.9845354578058014,4.027898885597404
2.0624397525140905,3.633318645188402
2.143402233514853,3.276902142023122
2.227542951999554,2.955018524590166
2.314986671851158,2.6643731327707667
2.405863054644063,2.4019742108972166
2.5003068519063225,2.16511149247002
2.598458104929248,1.9513312263877944
2.7004623524206774,1.7584122535347981
2.806470846309834,1.5843444420359343
2.916640776023701,1.4273109989465134
3.031135501567576,1.2856690134460225
3.150124795755327,1.1579312222977924
3.2737850959485697,1.0427515437065318
3.4022997656780634,0.9389119675084519
3.5358593665351745,0.8453101258484088
3.6746619407366854,0.7609477080681476
3.8189133047818515,0.6849223187308526
3.968827354637162,0.6164186982484686
4.1246263829013445,0.5547004117417536
4.286541408420921,0.49910234415962856
4.4548125188449825,0.4490242260809585
4.629689226627261,0.4039242203377646
4.811430839003257,0.36331297136674284
5.000306842491082,0.3267485922911776
5.196597302486189,0.29383213230825933
5.400593278542364,0.26420343467383506
5.612597255954967,0.23753735551887653
5.8329235942862,0.21354051843559485
6.06189899349756,0.19194827691075064
6.29986297838068,0.17252193657445075
6.547168402004727,0.15504623973683
6.804181968927091,0.1393270528695439
7.071284778942991,0.1251893350509096
7.348872892180382,0.1124753229732261
7.637357916378006,0.10104284473228409
7.937167617217536,0.09076379480408617
8.248746552614573,0.08152277966776807
8.572556731909314,0.07321592051973061
8.909078300934132,0.06574963725207127
9.258810253973934,0.05903962012821433
9.622271173675122,0.053009923795285206
9.999999999999984,0.04759214273849694
