k [1/Mpc],P(k) [Mpc^3]
0.0001,1514.1001089780575
0.00010392556829367125,1564.4453005591663
0.00010800523745162529,1616.46204728706
0.00011224505680853065,1670.2056417681663
0.00011665131316981963,1725.7331503104813
0.00012123054013376525,1783.1033436886698
0.00012598952777950273,1842.3768672265217
0.00013093533273536104,1903.6164235891522
0.00013607528864243335,1966.8868619797786
0.00014141701702890234,2032.2551221122167
0.00014696843861124463,2099.79011446591
0.00015273778503907136,2169.5628952767493
0.00015873361110102093,2241.6468293516546
0.00016496480740980205,2316.117683331117
0.0001714406135851971,2393.0536540144312
0.00017817063195457305,2472.535311684619
0.00018516484179121546,2554.64571612511
0.000192433614111598,2639.470545957299
0.00019998772705352857,2727.0981349371054
0.0002078383818579757,2817.61959339239
0.00021599721947827182,2911.1287843622677
0.0002244763378413224,3007.722401878874
0.0002332883097864157,3107.500117695964
0.00024244620170823283,3210.5645298891545
0.0002519635929317015,3317.021351468379
0.0002618545958474233,3426.979401796264
0.0002721338768375308,3540.5506138426686
0.0002828166780230032,3657.8502562121594
0.0002939188398646886,3778.996751134036
0.0003054568246515432,3904.111895789168
0.00031744774091091926,4033.3209776534886
0.00032990936877709396,4166.752709435352
0.00034286018635565856,4304.539490123744
0.00035631939712285854,4446.81722668283
0.000370306958400514,4593.725466269727
0.00038484361094874304,4745.407453340451
0.0003999509097203664,4902.009545378977
0.00041565125582259895,5063.6818675610475
0.00043196792973341727,5230.578477499778
0.0004489251258218605,5402.857416231077
0.0004665479882234472,5580.680685640209
0.000484862648123908,5764.213309794819
0.000503896262506515,5953.623991208918
0.0005236770544204653,6149.085260146157
0.0005442343548300266,6350.773242077731
0.0005655986461065005,6558.868053950937
0.0005878016072274912,6773.553109643427
0.0006108761607505036,6995.015388805204
0.0006348565216305217,7223.4453341411545
0.0006597782479539537,7459.03571258905
0.0006856782936641739,7701.982742584838
0.0007125950633568407,7952.485719730859
0.0007405684692262436,8210.746952179998
0.0007696399902471156,8476.97177575361
0.0007998527336796708,8751.366748763568
0.000831251498989063,9034.140815543702
0.0008638828442740447,9325.504470415619
0.000897795155303332,9625.668880333658
0.0009330387172620361,9934.84687675576
0.0009696657893145519,10253.24998689912
0.001007730682094461,10581.08954621472
0.0010472898382363582,10918.576641050107
0.0010884019160690055,11265.920156130476
0.0011311278765939214,11623.328199391395
0.001175531073878369,11991.003685884974
0.0012216773489967915,12369.144559189375
0.0012696351276599736,12757.94556028725
0.0013194755216767058,13157.595454973889
0.0013712724343984,13568.278393515055
0.0014251026703029975,13990.169355403685
0.0014810460488806749,14423.43219375194
0.0015391855229902056,14868.222700672985
0.001599607301861487,15324.683580888344
0.0016624009789266115,15792.946342034067
0.0017276596646690358,16273.128746881795
0.0017954801246878305,16765.3306509478
0.0018659629231817451,17269.637508059906
0.001939212572065829,17786.11444118635
0.0020153376859417325,18314.80691466766
0.002094451143151469,18855.73974049389
0.002176670253153458,19408.90979684787
0.002262116930469025,19974.290800937895
0.002350917875457286,20551.826462491797
0.002443204762186487,21141.428862782923
0.0025391144336803463,21742.981131201446
0.002638789104828933,22356.32910312768
0.002742376573264949,22981.28509914581
0.0028500304385181063,23617.621538587035
0.0029619103297725525,24265.06540106442
0.0030781821425650787,24923.30408359439
0.003199018284775064,25591.973420327045
0.0033245979322709396,26270.66163123525
0.003455107294592217,26958.90674582368
0.0035907398910610534,27656.186105814697
0.0037316968377327513,28361.92521013798
0.0038781871456107214,29075.4771161801
0.0040304280305680515,29796.1248696729
0.00418864523543527,30523.09219127031
0.004353073364731888,31255.533505326923
0.00452395623253805,31992.539991144
0.004701547224022131,32733.08583006584
0.004886109671160325,33476.01366741339
0.005077917243205399,34220.1141350563
0.005277254352483535,34964.24389277447
0.005484416576121017,35707.25126650158
0.005699711094326071,36447.68458610072
0.005923457145875801,37183.57440684378
0.006155986501483508,37912.836727482914
0.006397643955748424,38633.650918076295
0.0066487878384172625,39344.34462583487
0.0069097905457156435,40043.02724449439
0.007181039092537346,40727.25903796843
0.007462935686310132,41394.44006841802
0.007755898323389004,42042.090163950816
0.00806036140886134,42667.85629163068
0.008376776400682916,43269.26062296054
0.008705612479099857,43843.346802891305
0.009047357242349292,44386.98358457585
0.00940251742967013,44896.85791249325
0.009771619672696168,45369.42274160099
0.010155211276345676,45801.088715616104
0.010553861030365234,46188.121380308396
0.010968160052731372,46526.75021447027
0.011398722666160517,46813.08344573788
0.011846187309026826,47042.901437065215
0.012311217482038896,47212.03288234521
0.012794502732078732,47316.09925886483
0.013296759674662111,47350.664765264984
0.013818733056536317,47311.4042831952
0.014361196859990781,47193.74258780095
0.014924955450518284,46993.375844057526
0.015510844769528393,46706.02411930801
0.016119733573881575,46327.46438230166
0.01675252472408214,45854.00988924272
0.017410156523040152,45281.97179503705
0.018093604107387147,44608.304424122165
0.01880388089340914,43830.550252939065
0.019542040079740527,42946.62824469574
0.02030917620904734,41955.659159801544
0.021106426791015535,40857.387402844426
0.021934973989050584,39652.727486719865
0.02279604637318978,38344.06358496746
0.023690920741826323,36934.799707581005
0.02462092401494623,35430.20972135164
0.02558743520168586,33837.11891375305
0.02659188744512693,32164.001943772877
0.027635770147361564,30421.346798870905
0.028720631177978267,28621.37861239854
0.029848079169243254,26777.988237700672
0.03101978590138095,24906.903704048713
0.03223748878149028,23025.325470569256
0.0335029934197723,21151.06838006814
0.03481817630688963,19303.637681374556
0.03618498759642746,17501.96439303547
0.037605453996581675,15764.643780364662
0.03908168177536263,14110.678583325747
0.04061585988376978,12555.10969395363
0.04221026320156896,11112.269407282789
0.04386725591048496,9792.920277606578
0.0455892949998106,8604.965859733536
0.047378933909631396,7557.663306235505
0.049238826317067365,6652.861781857104
0.05117173007114603,5887.966265876452
0.05318051128214196,5256.342264711519
0.05526814857144601,4749.764244663996
0.057437737488265785,4359.391427633666
0.0596924950997073,4075.2221460498554
0.0620357647610427,3888.1040571595036
0.06447102107323864,3787.8877964690637
0.06700187503509585,3762.603163980012
0.06963207939763882,3796.3225936179983
0.0723655342286965,3869.9368277539324
0.07520629269592405,3960.718357506832
0.07815856707684081,4042.041739613378
0.08122673500479707,4086.0400440168783
0.08441534596012978,4066.0411484670335
0.0877291280161335,3960.0381957217965
0.09117299484984914,3754.522404495816
0.09475205302806537,3448.766650935579
0.09847160957933764,3058.251679192796
0.1023371798632519,2614.463555180051
0.10635449574860109,2160.014361515038
0.11052951411260206,1738.507770312144
0.1148684256737553,1383.9891445830601
0.1193776641714435,1115.3782309451663
0.1240639159058831,937.3046768167368
0.12893412965257148,844.9915101771919
0.13399552696593373,828.947391694826
0.1392556128874462,875.9466829916424
0.14472218707411338,965.3791839689004
0.15040335536380234,1064.2992919720093
0.15630754179458153,1128.8949133931587
0.16244350109588662,1118.860468758106
0.16882033167003618,1018.8084511129113
0.17544748908334581,848.9366392992753
0.1823348000868439,655.7261414544878
0.189492477187382,489.7116167733277
0.19693113379074215,382.700285063981
0.20466179993919872,340.79262202563626
0.21269593866686892,354.60154582020516
0.22104546299710207,404.10368176137854
0.22972275360711503,452.4889916277381
0.23874067718606454,456.6091918121951
0.2481126055137766,399.2566138582461
0.25785243528842716,307.0744592858937
0.26797460873256895,227.01456119942856
0.27849413500806414,187.47498052218378
0.28942661247167484,189.67468377033984
0.3007882518043098,214.82191824643704
0.31259590004822796,228.30051629843618
0.324867065587837,204.69844547635338
0.3376199441111335,157.8429313790964
0.35087344559027084,122.42661487002978
0.36464722232127456,114.6678329183676
0.37896169806447155,124.78740390232291
0.3938380983288488,127.00431486151079
0.4092984818452433,107.7691540606324
0.4253657732750382,84.47399210567785
0.44206379720285277,76.23262118578103
0.45941731346364734,79.44721742002643
0.47745205385661277,76.46035564384027
0.4961947603002895,63.263920189519155
0.5156732244854959,54.12189434634079
0.5359163290848509,53.51065102890139
0.556954090580013,51.06113263397052
0.5788177037701272,43.30037117034024
0.6015395880274836,38.72427707610818
0.6251534353689703,37.38883715001301
0.6496942604146115,33.92655474143065
0.6751984523072497,30.53273945341813
0.7017038286703824,27.522364366023883
0.7292496916841444,24.8598746904272
0.7578768863625915,22.510870234025763
0.7876278611187046,20.431878083123483
0.8185467307069019,18.57655275187864
0.850679341636415,16.907237723063318
0.8840733401525058,15.393619759453655
0.9187782428863317,14.011327257940042
0.9548455102782278,12.74233325201283
0.9923286228832539,11.578227909785573
1.0312831606721837,10.512761888852038
1.0717668854455022,9.539625170567865
1.1138398264826193,8.652541548259999
1.1575643695533022,7.845337590745486
1.2030053494233226,7.111667416984777
1.2502301459914542,6.445108362928058
1.299308784200415,5.839733346176386
1.3503140378698726,5.2901117013274055
1.4033215376054824,4.7912708765868555
1.4584098829439835,4.338655799031468
1.5156607589006013,3.9280700699503033
1.575159057091621,3.5556761614869528
1.6369930016117014,3.2179811871176214
1.7012542798525885,2.9118064944861417
1.7680381784572046,2.6342598600741094
1.8374437246107238,2.382713086775007
1.9095738328780953,2.1547802718957687
1.9845354578058014,1.9482897630057794
2.0624397525140905,1.7612647224532048
2.143402233514853,1.5919061726877863
2.227542951999554,1.4385774905231694
2.314986671851158,1.2997904498891129
2.405863054644063,1.1741919603592814
2.5003068519063225,1.0605519248972308
2.598458104929248,0.9577523750526232
2.7004623524206774,0.8647775354954439
2.806470846309834,0.7807045138194185
2.916640776023701,0.7046946630573516
3.031135501567576,0.635986751364635
3.150124795755327,0.573890112330801
3.2737850959485697,0.5177782415903498
3.4022997656780634,0.4670829591726784
3.5358593665351745,0.42128907277926747
3.6746619407366854,0.37992954189432954
3.8189133047818515,0.3425810864802705
3.968827354637162,0.308860166736158
4.1246263829013445,0.27841932302980504
4.286541408420921,0.2509438524335
4.4548125188449825,0.2261488007641004
4.629689226627261,0.20377617261597158
4.811430839003257,0.18359241712715554
5.000306842491082,0.16538615422643255
5.196597302486189,0.1489661073151462
5.400593278542364,0.13415920050509259
5.612597255954967,0.12080885373119696
5.8329235942862,0.10877347517711602
6.06189899349756,0.09792505197140756
6.29986297838068,0.08814786793968624
6.547168402004727,0.0793373394605216
6.804181968927091,0.07139895535569454
7.071284778942991,0.06424732586948158
7.348872892180382,0.05780531815447011
7.637357916378006,0.052003269067279013
7.937167617217536,0.0467782718613579
8.248746552614573,0.04207354181378426
8.572556731909314,0.03783783821153599
8.909078300934132,0.034024904246985135
9.258810253973934,0.0305929861611998
9.622271173675122,0.027504401646601482
9.999999999999984,0.024725142250125533
