k [1/Mpc],P(k) [Mpc^3]
0.0001,15.980486797228455
0.00010392556829367125,16.703919289611108
0.00010800523745162529,17.46009364987948
0.00011224505680853065,18.250490130009812
0.00011665131316981963,19.07665636569878
0.00012123054013376525,19.940210628553974
0.00012598952777950273,20.8428442636373
0.00013093533273536104,21.786324033048672
0.00013607528864243335,22.7724960066889
0.00014141701702890234,23.803289636644436
0.00014696843861124463,24.880721652422633
0.00015273778503907136,26.006899739804442
0.00015873361110102093,27.184026020816493
0.00016496480740980205,28.41440142593416
0.0001714406135851971,29.700430945120033
0.00017817063195457305,31.04462940378061
0.00018516484179121546,32.449625286720874
0.000192433614111598,33.91816277937585
0.00019998772705352857,35.453106396357136
0.0002078383818579757,37.05744970367915
0.00021599721947827182,38.73432496641055
0.0002244763378413224,40.487006959864054
0.0002332883097864157,42.31891481179532
0.00024244620170823283,44.23361578760867
0.0002519635929317015,46.23483640161986
0.0002618545958474233,48.326472203473685
0.0002721338768375308,50.51259452480807
0.0002828166780230032,52.797455990322106
0.0002939188398646886,55.18549651797418
0.0003054568246515432,57.68135365797987
0.00031744774091091926,60.28987129021181
0.00032990936877709396,63.01610869731029
0.00034286018635565856,65.86534929749195
0.00035631939712285854,68.84310620193693
0.000370306958400514,71.95513531459618
0.00038484361094874304,75.20744728458808
0.0003999509097203664,78.60631860106196
0.00041565125582259895,82.15830241361768
0.00043196792973341727,85.87023550148507
0.0004489251258218605,89.7492526621756
0.0004665479882234472,93.80280093690033
0.000484862648123908,98.03865156926378
0.000503896262506515,102.46491472938926
0.0005236770544204653,107.09004300249443
0.0005442343548300266,111.92284682786698
0.0005655986461065005,116.97251923719992
0.0005878016072274912,122.24865763694217
0.0006108761607505036,127.7612756292116
0.0006348565216305217,133.52079905547376
0.0006597782479539537,139.53807522679713
0.0006856782936641739,145.82441214723164
0.0007125950633568407,152.391607611277
0.0007405684692262436,159.25196404570178
0.0007696399902471156,166.41828852356508
0.0007998527336796708,173.9038938832364
0.000831251498989063,181.72264372242313
0.0008638828442740447,189.8889777669462
0.000897795155303332,198.4179339804013
0.0009330387172620361,207.32515543813923
0.0009696657893145519,216.62687449291982
0.001007730682094461,226.33996940936188
0.0010472898382363582,236.48200238676267
0.0010884019160690055,247.0712454114706
0.0011311278765939214,258.12668574218145
0.001175531073878369,269.66797696564333
0.0012216773489967915,281.71550650466946
0.0012696351276599736,294.2904357344821
0.0013194755216767058,307.41471575780645
0.0013712724343984,321.1111196545566
0.0014251026703029975,335.4032020047581
0.0014810460488806749,350.3153432058125
0.0015391855229902056,365.87277497106544
0.001599607301861487,382.10153592045907
0.0016624009789266115,399.02855629767834
0.0017276596646690358,416.6816243914089
0.0017954801246878305,435.0894011310383
0.0018659629231817451,454.2814664366882
0.001939212572065829,474.2882288559879
0.0020153376859417325,495.14101330916463
0.002094451143151469,516.8720279125586
0.002176670253153458,539.514323522528
0.002262116930469025,563.1018720084192
0.002350917875457286,587.6694024977788
0.002443204762186487,613.2524723919494
0.0025391144336803463,639.8874716930887
0.002638789104828933,667.6114991711705
0.002742376573264949,696.4624671742212
0.0028500304385181063,726.4789074788749
0.0029619103297725525,757.6999608757957
0.0030781821425650787,790.1654151811556
0.003199018284775064,823.9154373374301
0.0033245979322709396,858.9907070212283
0.003455107294592217,895.432184829133
0.0035907398910610534,933.2809490650899
0.0037316968377327513,972.5783219394967
0.0038781871456107214,1013.3654339622826
0.0040304280305680515,1055.6833220192314
0.00418864523543527,1099.5727245956264
0.004353073364731888,1145.0736604364215
0.00452395623253805,1192.225658151674
0.004701547224022131,1241.0671490117315
0.004886109671160325,1291.6354159631
0.005077917243205399,1343.9664508460146
0.005277254352483535,1398.0940076458219
0.005484416576121017,1454.050054957161
0.005699711094326071,1511.864160748305
0.005923457145875801,1571.5631234349146
0.006155986501483508,1633.1708133893503
0.006397643955748424,1696.70571544312
0.0066487878384172625,1762.1819597199126
0.0069097905457156435,1829.6108633882855
0.007181039092537346,1899.0015573131986
0.007462935686310132,1970.3581571045165
0.007755898323389004,2043.668926089841
0.00806036140886134,2118.9089938907464
0.008376776400682916,2196.0484859610706
0.008705612479099857,2275.0580001989915
0.009047357242349292,2355.9018320208697
0.00940251742967013,2438.5255343423896
0.009771619672696168,2522.854742813004
0.010155211276345676,2608.8046576657784
0.010553861030365234,2696.284649020651
0.010968160052731372,2785.1943602955434
0.011398722666160517,2875.4126587279093
0.011846187309026826,2966.791642205669
0.012311217482038896,3059.166246890897
0.012794502732078732,3152.3466377316904
0.013296759674662111,3246.1215885993283
0.013818733056536317,3340.2586397058285
0.014361196859990781,3434.49840967932
0.014924955450518284,3528.560650631559
0.015510844769528393,3622.1319303068276
0.016119733573881575,3714.867683098056
0.01675252472408214,3806.3984121526155
0.017410156523040152,3896.315992389964
0.018093604107387147,3984.18759938515
0.01880388089340914,4069.547602738239
0.019542040079740527,4151.89480508313
0.02030917620904734,4230.707602063387
0.021106426791015535,4305.426502581666
0.021934973989050584,4375.471132178526
0.02279604637318978,4440.242692580629
0.023690920741826323,4499.116276292943
0.02462092401494623,4551.466089164706
0.02558743520168586,4596.658698200347
0.02659188744512693,4634.065804376449
0.027635770147361564,4663.078690967493
0.028720631177978267,4683.104862567654
0.029848079169243254,4693.592272258933
0.03101978590138095,4694.070964682458
0.03223748878149028,4684.164348353985
0.0335029934197723,4663.559482821379
0.03481817630688963,4631.975593306047
0.03618498759642746,4589.206419902618
0.037605453996581675,4535.40392774847
0.03908168177536263,4471.247151128071
0.04061585988376978,4397.462739885416
0.04221026320156896,4314.331505886997
0.04386725591048496,4221.934880256645
0.0455892949998106,4120.841627430054
0.047378933909631396,4012.741190315085
0.049238826317067365,3899.4269206526415
0.05117173007114603,3782.463403331557
0.05318051128214196,3663.1979320362225
0.05526814857144601,3543.0914813442505
0.057437737488265785,3424.1938422675844
0.0596924950997073,3308.4625685067417
0.0620357647610427,3197.6386838127332
0.06447102107323864,3093.2266239825035
0.06700187503509585,2996.3922669822
0.06963207939763882,2908.024523550296
0.0723655342286965,2828.551600683359
0.07520629269592405,2758.0607806197468
0.07815856707684081,2696.0814259880035
0.08122673500479707,2641.7125446952755
0.08441534596012978,2593.508155158794
0.0877291280161335,2549.38199779227
0.09117299484984914,2506.6924120077915
0.09475205302806537,2462.2678243123887
0.09847160957933764,2412.661163728165
0.1023371798632519,2354.5393968892267
0.10635449574860109,2285.1800859388813
0.11052951411260206,2202.902406583947
0.1148684256737553,2107.521077214647
0.1193776641714435,2000.4098663040227
0.1240639159058831,1884.639705404713
0.12893412965257148,1765.1208592513744
0.13399552696593373,1647.2381335278214
0.1392556128874462,1536.7676425779023
0.14472218707411338,1439.23881062517
0.15040335536380234,1358.6976535239187
0.15630754179458153,1296.975651587483
0.16244350109588662,1253.228748107368
0.16882033167003618,1223.8094309699472
0.17544748908334581,1202.4261445962102
0.1823348000868439,1180.8606648373589
0.189492477187382,1150.5604899250798
0.19693113379074215,1104.9643262128022
0.20466179993919872,1041.8912716194113
0.21269593866686892,965.0779345125959
0.22104546299710207,883.6219127941166
0.22972275360711503,808.7192369603379
0.23874067718606454,749.3833183511422
0.2481126055137766,709.6357225390069
0.25785243528842716,687.3042416979075
0.26797460873256895,673.9385598173417
0.27849413500806414,657.4341983711207
0.28942661247167484,627.7976823138715
0.3007882518043098,582.749544898629
0.31259590004822796,529.8575108714043
0.324867065587837,482.12554602840993
0.3376199441111335,449.33190683061366
0.35087344559027084,431.92973938002615
0.36464722232127456,420.73884569911195
0.37896169806447155,403.4621562385371
0.3938380983288488,374.40979613971894
0.4092984818452433,339.8168864201816
0.4253657732750382,311.5791855658414
0.44206379720285277,295.24464687486284
0.45941731346364734,284.8296404226326
0.47745205385661277,269.74339123669614
0.4961947603002895,247.48808930517671
0.5156732244854959,226.0476231939781
0.5359163290848509,212.28771978447898
0.556954090580013,202.69682902887723
0.5788177037701272,189.5720460479855
0.6015395880274836,173.48936872674307
0.6251534353689703,160.9650818788249
0.6496942604146115,152.297486473286
0.6751984523072497,142.13965983374015
0.7017038286703824,130.5810531388374
0.7292496916841444,121.69861439438584
0.7578768863625915,114.17741563901197
0.7876278611187046,105.46199412502948
0.8185467307069019,97.68406813887205
0.850679341636415,91.26772477032516
0.8840733401525058,84.5586409221393
0.9187782428863317,78.04148033534628
0.9548455102782278,72.18789323665871
0.9923286228832539,66.9033418872811
1.0312831606721837,62.07706862832575
1.0717668854455022,57.61955541892618
1.1138398264826193,53.4588100538364
1.1575643695533022,49.541196370622366
1.2030053494233226,45.85367822942499
1.2502301459914542,42.39810890811143
1.299308784200415,39.17316845944179
1.3503140378698726,36.17479763064763
1.4033215376054824,33.3967295668563
1.4584098829439835,30.82868773970308
1.5156607589006013,28.454283372935084
1.575159057091621,26.25768147746477
1.6369930016117014,24.224554830374558
1.7012542798525885,22.341922202143024
1.7680381784572046,20.59804865350936
1.8374437246107238,18.983039468442364
1.9095738328780953,17.488356649340027
1.9845354578058014,16.1059323108451
2.0624397525140905,14.828130253824062
2.143402233514853,13.647735824183117
2.227542951999554,12.557905122514839
2.314986671851158,11.552026366076056
2.405863054644063,10.623888050823165
2.5003068519063225,9.767717628749708
2.598458104929248,8.978152114613573
2.7004623524206774,8.25021077514327
2.806470846309834,7.5792838219895815
2.916640776023701,6.961110228732382
3.031135501567576,6.391729066784471
3.150124795755327,5.86745819265243
3.2737850959485697,5.384876426872008
3.4022997656780634,4.940806149160393
3.5358593665351745,4.532293186139859
3.6746619407366854,4.156595764321196
3.8189133047818515,3.8111733468742077
3.968827354637162,3.4936728485012805
4.1246263829013445,3.2019156749744617
4.286541408420921,2.933885583415097
4.4548125188449825,2.6877173158386114
4.629689226627261,2.461685940648069
4.811430839003257,2.254196896215717
5.000306842491082,2.0637766871384517
5.196597302486189,1.8890641753158142
5.400593278542364,1.7288021249985481
5.612597255954967,1.5818297878620664
5.8329235942862,1.4470762447499876
6.06189899349756,1.3235537959507604
6.29986297838068,1.21035179133324
6.547168402004727,1.1066307598900147
6.804181968927091,1.0116165970444886
7.071284778942991,0.9245962640729233
7.348872892180382,0.8449133939093804
7.637357916378006,0.7719639497533488
7.937167617217536,0.7051922079931449
8.248746552614573,0.6440875559135831
8.572556731909314,0.5881811690928178
8.909078300934132,0.5370417847426879
9.258810253973934,0.49027273422233336
9.622271173675122,0.4475092915136553
9.999999999999984,0.40841598762176623
