k [1/Mpc],P(k) [Mpc^3]
0.0001,2813.7853497842675
0.00010392556829367125,2915.69766649963
0.00010800523745162529,3021.2920713256076
0.00011224505680853065,3130.7003844577443
0.00011665131316981963,3244.0589096475155
0.00012123054013376525,3361.5088416603085
0.00012598952777950273,3483.196593698587
0.00013093533273536104,3609.273745164532
0.00013607528864243335,3739.89672292833
0.00014141701702890234,3875.227041320911
0.00014696843861124463,4015.43183796211
0.00015273778503907136,4160.684185305445
0.00015873361110102093,4311.163166533883
0.00016496480740980205,4467.053634493441
0.0001714406135851971,4628.546315472028
0.00017817063195457305,4795.838374956066
0.00018516484179121546,4969.133568721592
0.000192433614111598,5148.642497705591
0.00019998772705352857,5334.582619208656
0.0002078383818579757,5527.178289883062
0.00021599721947827182,5726.661196784527
0.0002244763378413224,5933.269910712468
0.0002332883097864157,6147.250375804194
0.00024244620170823283,6368.856300159211
0.0002519635929317015,6598.349095458071
0.0002618545958474233,6835.998366198757
0.0002721338768375308,7082.081345117459
0.0002828166780230032,7336.883193917917
0.0002939188398646886,7600.6975938817
0.0003054568246515432,7873.826339659856
0.00031744774091091926,8156.580042061402
0.00032990936877709396,8449.277474099641
0.00034286018635565856,8752.245468981477
0.00035631939712285854,9065.819840104949
0.000370306958400514,9390.344294456443
0.00038484361094874304,9726.171370368207
0.0003999509097203664,10073.662300755535
0.00041565125582259895,10433.18649422401
0.00043196792973341727,10805.122426961774
0.0004489251258218605,11189.855555323013
0.0004665479882234472,11587.779195087405
0.000484862648123908,11999.295074491672
0.000503896262506515,12424.812176337964
0.0005236770544204653,12864.747901494915
0.0005442343548300266,13319.526336549547
0.0005655986461065005,13789.578296816277
0.0005878016072274912,14275.341505289707
0.0006108761607505036,14777.25692488428
0.0006348565216305217,15295.7713601119
0.0006597782479539537,15831.336390467173
0.0006856782936641739,16384.407453711527
0.0007125950633568407,16955.444421556847
0.0007405684692262436,17544.906404564583
0.0007696399902471156,18153.254026468298
0.0007998527336796708,18780.94674477514
0.000831251498989063,19428.438466784228
0.0008638828442740447,20096.181803112762
0.000897795155303332,20784.62184490843
0.0009330387172620361,21494.19718723282
0.0009696657893145519,22225.338209292495
0.001007730682094461,22978.458582038955
0.0010472898382363582,23753.961178410027
0.0010884019160690055,24552.22862154928
0.0011311278765939214,25373.62191437928
0.001175531073878369,26218.484693417435
0.0012216773489967915,27087.136725756325
0.0012696351276599736,27979.875588940784
0.0013194755216767058,28896.964474651453
0.0013712724343984,29838.62539062214
0.0014251026703029975,30805.047234460253
0.0014810460488806749,31796.372858019728
0.0015391855229902056,32812.702674972694
0.001599607301861487,33854.09007138108
0.0016624009789266115,34920.53201183844
0.0017276596646690358,36011.97434913919
0.0017954801246878305,37128.295912257425
0.0018659629231817451,38269.309656641526
0.001939212572065829,39434.76173893828
0.0020153376859417325,40624.316699124094
0.002094451143151469,41837.565577919
0.002176670253153458,43074.012121330656
0.002262116930469025,44333.06934827537
0.002350917875457286,45614.062304403364
0.002443204762186487,46916.20870784804
0.0025391144336803463,48238.62834954388
0.002638789104828933,49580.333361702804
0.002742376573264949,50940.220160027675
0.0028500304385181063,52317.07544884996
0.0029619103297725525,53709.54630696448
0.0030781821425650787,55116.153376382004
0.003199018284775064,56535.28034644834
0.0033245979322709396,57965.14977081712
0.003455107294592217,59403.85432090829
0.0035907398910610534,60849.35343214026
0.0037316968377327513,62299.47535633972
0.0038781871456107214,63751.844108706755
0.0040304280305680515,65203.71833062154
0.00418864523543527,66652.18275124648
0.004353073364731888,68094.57785302532
0.00452395623253805,69528.5137912874
0.004701547224022131,70951.19743780706
0.004886109671160325,72358.15252067924
0.005077917243205399,73744.25131658994
0.005277254352483535,75105.00723139239
0.005484416576121017,76436.98594820527
0.005699711094326071,77736.59135181952
0.005923457145875801,78998.77788818095
0.006155986501483508,80217.75756290849
0.006397643955748424,81388.0279545022
0.0066487878384172625,82504.87705262359
0.0069097905457156435,83563.59636580391
0.007181039092537346,84558.41519895762
0.007462935686310132,85482.84219840511
0.007755898323389004,86330.22506585081
0.00806036140886134,87093.49278029706
0.008376776400682916,87765.54456146437
0.008705612479099857,88339.0548385668
0.009047357242349292,88806.53921787249
0.00940251742967013,89160.56950900145
0.009771619672696168,89393.16575962078
0.010155211276345676,89496.4782322073
0.010553861030365234,89462.45998566812
0.010968160052731372,89282.67866621468
0.011398722666160517,88949.20133203229
0.011846187309026826,88453.64342171214
0.012311217482038896,87788.07589969135
0.012794502732078732,86945.0758635688
0.013296759674662111,85917.10219676576
0.013818733056536317,84697.99747698217
0.014361196859990781,83281.69731884042
0.014924955450518284,81663.16724642763
0.015510844769528393,79839.18245664753
0.016119733573881575,77806.9504261748
0.01675252472408214,75566.45819991016
0.017410156523040152,73119.19696585459
0.018093604107387147,70468.64805468055
0.01880388089340914,67622.06294843632
0.019542040079740527,64588.229936496246
0.02030917620904734,61380.21100804127
0.021106426791015535,58014.492901469595
0.021934973989050584,54510.37888645315
0.02279604637318978,50892.40154703814
0.023690920741826323,47187.64025831003
0.02462092401494623,43427.31993360105
0.02558743520168586,39646.41778159499
0.02659188744512693,35881.68141895023
0.027635770147361564,32172.708024547086
0.028720631177978267,28560.319526530948
0.029848079169243254,25084.833061457834
0.03101978590138095,21785.04245260482
0.03223748878149028,18697.36308652327
0.0335029934197723,15851.52156120353
0.03481817630688963,13274.53347108443
0.03618498759642746,10985.575372751511
0.037605453996581675,8990.772817111956
0.03908168177536263,7291.871295671087
0.04061585988376978,5875.95630737482
0.04221026320156896,4730.457063602507
0.04386725591048496,3839.0906398108054
0.0455892949998106,3170.825701326558
0.047378933909631396,2692.302734325262
0.049238826317067365,2374.078158757554
0.05117173007114603,2196.0385072736553
0.05318051128214196,2145.733770632943
0.05526814857144601,2213.0015118268097
0.057437737488265785,2393.057346077862
0.0596924950997073,2676.617892449101
0.0620357647610427,3047.5851024544404
0.06447102107323864,3475.405015766958
0.06700187503509585,3915.144979885067
0.06963207939763882,4310.813235602413
0.0723655342286965,4600.06754777111
0.07520629269592405,4720.583121114874
0.07815856707684081,4626.133452609812
0.08122673500479707,4298.1128583292775
0.08441534596012978,3758.4841946680594
0.0877291280161335,3074.4787171954385
0.09117299484984914,2344.3676260427005
0.09475205302806537,1668.187004138009
0.09847160957933764,1119.2396284111126
0.1023371798632519,729.7028129564098
0.10635449574860109,494.18670379745913
0.11052951411260206,385.800021775158
0.1148684256737553,378.0533368909226
0.1193776641714435,460.0123321202972
0.1240639159058831,628.2943070942364
0.12893412965257148,859.8303616998419
0.13399552696593373,1088.14490147956
0.1392556128874462,1217.5137219164349
0.14472218707411338,1178.4657384914813
0.15040335536380234,974.09293229091
0.15630754179458153,683.0032354531901
0.16244350109588662,415.85974053575137
0.16882033167003618,243.59879536451905
0.17544748908334581,171.27442519494292
0.1823348000868439,178.62878184827673
0.189492477187382,252.84792706879884
0.19693113379074215,366.65138443272554
0.20466179993919872,450.1364847336421
0.21269593866686892,431.33483158841244
0.22104546299710207,317.827546024156
0.22972275360711503,191.2798641552438
0.23874067718606454,117.42761759212334
0.2481126055137766,105.72384543945935
0.25785243528842716,141.79577421502108
0.26797460873256895,193.03663597851246
0.27849413500806414,202.39752531627292
0.28942661247167484,153.2103263071999
0.3007882518043098,95.67585309702027
0.31259590004822796,72.13410109520726
0.324867065587837,83.5232316271264
0.3376199441111335,105.36532830074432
0.35087344559027084,101.01601650261952
0.36464722232127456,71.97671045307057
0.37896169806447155,52.93651032283274
0.3938380983288488,55.55480892564427
0.4092984818452433,63.45291857171181
0.4253657732750382,55.69001118195736
0.44206379720285277,41.47916233977898
0.45941731346364734,38.15527933232904
0.47745205385661277,40.93940694179808
0.4961947603002895,36.479170654270426
0.5156732244854959,29.344177127007754
0.5359163290848509,28.205814042958973
0.556954090580013,27.603228938847625
0.5788177037701272,25.44821529606012
0.6015395880274836,23.083155462413757
0.6251534353689703,20.70885522573036
0.6496942604146115,18.472375269994597
0.6751984523072497,16.469400654562065
0.7017038286703824,14.751397225241456
0.7292496916841444,13.29648040414767
0.7578768863625915,12.043635957379408
0.7876278611187046,10.944891667297375
0.8185467307069019,9.963542666083317
0.850679341636415,9.071521131949632
0.8840733401525058,8.248948414514105
0.9187782428863317,7.490060337571321
0.9548455102782278,6.7934410304726685
0.9923286228832539,6.156907222011209
1.0312831606721837,5.577688481757408
1.0717668854455022,5.052604060933713
1.1138398264826193,4.577790143329568
1.1575643695533022,4.148221302185306
1.2030053494233226,3.7591985272957777
1.2502301459914542,3.4065737479580362
1.299308784200415,3.0866785200367377
1.3503140378698726,2.7962651711281667
1.4033215376054824,2.532559206397151
1.4584098829439835,2.2932027465265605
1.5156607589006013,2.0760421701969967
1.575159057091621,1.8791006363396274
1.6369930016117014,1.700565399114385
1.7012542798525885,1.5387742919904932
1.7680381784572046,1.3921896882164664
1.8374437246107238,1.2594006393059123
1.9095738328780953,1.139125163724779
1.9845354578058014,1.0301988361549947
2.0624397525140905,0.931564157549042
2.143402233514853,0.8422607911257737
2.227542951999554,0.7614164963831483
2.314986671851158,0.6882394894380047
2.405863054644063,0.6220112299201581
2.5003068519063225,0.5620797239545949
2.598458104929248,0.5078534365424859
2.7004623524206774,0.45879639110710513
2.806470846309834,0.4144234855267516
2.916640776023701,0.374294383184922
3.031135501567576,0.3380093098154178
3.150124795755327,0.30520541338186163
3.2737850959485697,0.2755534107764008
3.4022997656780634,0.24875398082750033
3.5358593665351745,0.2245352853202848
3.6746619407366854,0.2026511367560919
3.8189133047818515,0.18287862513766948
3.968827354637162,0.16501593506711745
4.1246263829013445,0.14888041770793006
4.286541408420921,0.13430709319877548
4.4548125188449825,0.12114667177335489
4.629689226627261,0.10926389651500384
4.811430839003257,0.0985362504803707
5.000306842491082,0.0888527809382898
5.196597302486189,0.08011296687460677
5.400593278542364,0.07222564435521005
5.612597255954967,0.06510834235114249
5.8329235942862,0.05868650419233519
6.06189899349756,0.05289273399291154
6.29986297838068,0.047666114952710704
6.547168402004727,0.04295162443777026
6.804181968927091,0.03869957360721147
7.071284778942991,0.03486504336328401
7.348872892180382,0.03140742831255912
7.637357916378006,0.02829002797145378
7.937167617217536,0.025479675998205737
8.248746552614573,0.02294640288637867
8.572556731909314,0.020663132528644323
8.909078300934132,0.01860540743039782
9.258810253973934,0.01675113849748741
9.622271173675122,0.015080378378914391
9.999999999999984,0.013575107190108448
