k [1/Mpc],P(k) [Mpc^3]
0.0001,1770.5748675930417
0.00010392556829367125,1850.51010977137
0.00010800523745162529,1934.0354134965771
0.00011224505680853065,2021.3097609991346
0.00011665131316981963,2112.498751204233
0.00012123054013376525,2207.774732185938
0.00012598952777950273,2307.3173693418194
0.00013093533273536104,2411.313991973861
0.00013607528864243335,2519.9598883937424
0.00014141701702890234,2633.45834263564
0.00014696843861124463,2752.020568862616
0.00015273778503907136,2875.866452950526
0.00015873361110102093,3005.2247060043833
0.00016496480740980205,3140.3332265699714
0.0001714406135851971,3281.4394204398764
0.00017817063195457305,3428.799981558994
0.00018516484179121546,3582.681679141051
0.000192433614111598,3743.361428245452
0.00019998772705352857,3911.126486452546
0.0002078383818579757,4086.2750507545816
0.00021599721947827182,4269.115606831592
0.0002244763378413224,4459.967804349376
0.0002332883097864157,4659.1627365643935
0.00024244620170823283,4867.042776628804
0.0002519635929317015,5083.962441306422
0.0002618545958474233,5310.287467735846
0.0002721338768375308,5546.395398949356
0.0002828166780230032,5792.676095618903
0.0002939188398646886,6049.5307636869875
0.0003054568246515432,6317.373229276885
0.00031744774091091926,6596.628877432286
0.00032990936877709396,6887.734538486525
0.00034286018635565856,7191.139654825408
0.00035631939712285854,7507.30510610302
0.000370306958400514,7836.704067701485
0.00038484361094874304,8179.820469295833
0.0003999509097203664,8537.147368780228
0.00041565125582259895,8909.189210681845
0.00043196792973341727,9296.460758719877
0.0004489251258218605,9699.487258733265
0.0004665479882234472,10118.803054214983
0.000484862648123908,10554.948213229072
0.000503896262506515,11008.470937277689
0.0005236770544204653,11479.924760762387
0.0005442343548300266,11969.867824145065
0.0005655986461065005,12478.86298035026
0.0005878016072274912,13007.472529777666
0.0006108761607505036,13556.260236486298
0.0006348565216305217,14125.786205751685
0.0006597782479539537,14716.602747826022
0.0006856782936641739,15329.257443689463
0.0007125950633568407,15964.284121671795
0.0007405684692262436,16622.20441070828
0.0007696399902471156,17303.524073091332
0.0007998527336796708,18008.72395766037
0.000831251498989063,18738.26465646915
0.0008638828442740447,19492.574282701822
0.000897795155303332,20272.04687117611
0.0009330387172620361,21077.045108233273
0.0009696657893145519,21907.893981567537
0.001007730682094461,22764.87929543248
0.0010472898382363582,23648.227886643424
0.0010884019160690055,24558.098344191076
0.0011311278765939214,25494.598008838053
0.001175531073878369,26457.805976469634
0.0012216773489967915,27447.753980416674
0.0012696351276599736,28464.378784030247
0.0013194755216767058,29507.48448665794
0.0013712724343984,30576.78676238702
0.0014251026703029975,31671.93322041922
0.0014810460488806749,32792.4933729802
0.0015391855229902056,33937.93494191724
0.001599607301861487,35107.60237684058
0.0016624009789266115,36300.72861788174
0.0017276596646690358,37516.4400140495
0.0017954801246878305,38753.752794536624
0.0018659629231817451,40011.562120911636
0.001939212572065829,41288.628246857224
0.0020153376859417325,42583.580110502335
0.002094451143151469,43894.91213991448
0.002176670253153458,45220.97933630965
0.002262116930469025,46559.9989844308
0.002350917875457286,47910.03993341509
0.002443204762186487,49269.02603704399
0.0025391144336803463,50634.727733871114
0.002638789104828933,52004.74097304242
0.002742376573264949,53376.51667234019
0.0028500304385181063,54747.406182998755
0.0029619103297725525,56114.661987150015
0.0030781821425650787,57475.30786176393
0.003199018284775064,58825.79993259629
0.0033245979322709396,60162.337982964855
0.003455107294592217,61481.72998748498
0.0035907398910610534,62781.703446875516
0.0037316968377327513,64059.634875552314
0.0038781871456107214,65309.87020827679
0.0040304280305680515,66525.22597467041
0.00418864523543527,67699.6440679146
0.004353073364731888,68829.87476534653
0.00452395623253805,69912.91468402512
0.004701547224022131,70943.55109172156
0.004886109671160325,71914.94514356887
0.005077917243205399,72820.71340433287
0.005277254352483535,73656.41172464471
0.005484416576121017,74418.07829765623
0.005699711094326071,75100.42576444724
0.005923457145875801,75696.67876589939
0.006155986501483508,76200.00227112153
0.006397643955748424,76603.06307783142
0.0066487878384172625,76898.5425440095
0.0069097905457156435,77079.37414107873
0.007181039092537346,77138.76380639082
0.007462935686310132,77070.27407705548
0.007755898323389004,76866.45220269097
0.00806036140886134,76519.65701053278
0.008376776400682916,76022.72214873147
0.008705612479099857,75368.3460384866
0.009047357242349292,74550.20426309736
0.00940251742967013,73561.43476286325
0.009771619672696168,72395.11596793878
0.010155211276345676,71045.84451373348
0.010553861030365234,69508.1701922062
0.010968160052731372,67778.72126816172
0.011398722666160517,65854.59943705473
0.011846187309026826,63732.8151992424
0.012311217482038896,61414.177528901135
0.012794502732078732,58901.32986203504
0.013296759674662111,56200.98920347392
0.013818733056536317,53320.623730342195
0.014361196859990781,50263.326032150195
0.014924955450518284,47040.77280382386
0.015510844769528393,43680.979224209186
0.016119733573881575,40223.83320153939
0.01675252472408214,36696.9181087145
0.017410156523040152,33077.50533279242
0.018093604107387147,29365.693937661672
0.01880388089340914,25675.18858210358
0.019542040079740527,22189.35399447804
0.02030917620904734,18970.770800214792
0.021106426791015535,15727.93267701323
0.021934973989050584,12292.45572515121
0.02279604637318978,9100.148932005344
0.023690920741826323,6845.450023556252
0.02462092401494623,5539.557963036371
0.02558743520168586,3961.684887017391
0.02659188744512693,1737.427196767867
0.027635770147361564,415.5784556948185
0.028720631177978267,109.72206254621004
0.029848079169243254,74.34466729138293
0.03101978590138095,143.50490080167918
0.03223748878149028,401.7714316363154
0.0335029934197723,883.3362357552478
0.03481817630688963,1426.5783942716894
0.03618498759642746,1908.6887829716516
0.037605453996581675,2291.219126211822
0.03908168177536263,2540.3126456722252
0.04061585988376978,2599.2673386036954
0.04221026320156896,2293.422651282289
0.04386725591048496,1741.4404342810046
0.0455892949998106,1444.2084379869204
0.047378933909631396,1110.5292943565482
0.049238826317067365,223.449220122257
0.05117173007114603,22.70387305083926
0.05318051128214196,30.624074826310874
0.05526814857144601,218.84564024712532
0.057437737488265785,632.1175211563641
0.0596924950997073,1079.541045708854
0.0620357647610427,1532.9432989883098
0.06447102107323864,1776.4729757131374
0.06700187503509585,1777.9369896546134
0.06963207939763882,1383.583144459773
0.0723655342286965,1018.2835129340534
0.07520629269592405,585.9939638810323
0.07815856707684081,57.11391169589805
0.08122673500479707,17.862783392551908
0.08441534596012978,90.76842956989348
0.0877291280161335,288.0135517218636
0.09117299484984914,445.653601724154
0.09475205302806537,403.6512124637598
0.09847160957933764,310.6148917377032
0.1023371798632519,37.36806925224633
0.10635449574860109,14.141486043709804
0.11052951411260206,98.1965682474446
0.1148684256737553,307.8897156638444
0.1193776641714435,400.3366532322571
0.1240639159058831,336.6519320911357
0.12893412965257148,153.3899963554778
0.13399552696593373,6.117922030480715
0.1392556128874462,5.404287542463325
0.14472218707411338,86.72240676490763
0.15040335536380234,80.48053190498807
0.15630754179458153,47.093541908069305
0.16244350109588662,0.13050171420899045
0.16882033167003618,61.97061065870259
0.17544748908334581,103.62255010283907
0.1823348000868439,48.0996884817999
0.189492477187382,4.747611416553675
0.19693113379074215,0.9581316533719061
0.20466179993919872,16.426352462954885
0.21269593866686892,8.827322678524196
0.22104546299710207,2.0629716442450357
0.22972275360711503,25.498347340228513
0.23874067718606454,21.15190100311511
0.2481126055137766,1.5064098043992729
0.25785243528842716,1.7797742328373614
0.26797460873256895,1.8528131297665484
0.27849413500806414,1.5751881195745607
0.28942661247167484,8.246753502447243
0.3007882518043098,3.8847772421334104
0.31259590004822796,0.03546388090387745
0.324867065587837,0.06313615895539194
0.3376199441111335,0.9817222921197722
0.35087344559027084,2.726587569724322
0.36464722232127456,0.6896568302249739
0.37896169806447155,0.015018343160447917
0.3938380983288488,0.36259561032407395
0.4092984818452433,1.0870807869651848
0.4253657732750382,0.3678118696915475
0.44206379720285277,0.13067972222881918
0.45941731346364734,0.4184144253719032
0.47745205385661277,0.4142653395803742
0.4961947603002895,0.15486111365242905
0.5156732244854959,0.08803938839195434
0.5359163290848509,0.0762522126878223
0.556954090580013,0.08740498733196345
0.5788177037701272,0.11518497775113615
0.6015395880274836,0.1515998847819976
0.6251534353689703,0.17543724870347266
0.6496942604146115,0.17571039837389402
0.6751984523072497,0.15846895147334497
0.7017038286703824,0.13395377930338845
0.7292496916841444,0.11046452354613853
0.7578768863625915,0.09249253234601877
0.7876278611187046,0.08064525649877534
0.8185467307069019,0.07273655822455447
0.850679341636415,0.06713140708364293
0.8840733401525058,0.06271842708417633
0.9187782428863317,0.05867570176194556
0.9548455102782278,0.054412149944290264
0.9923286228832539,0.049900035326969
1.0312831606721837,0.04538628474318739
1.0717668854455022,0.04106378346950911
1.1138398264826193,0.03706769408569765
1.1575643695533022,0.03348311750704171
1.2030053494233226,0.03033030633499791
1.2502301459914542,0.027542616483713138
1.299308784200415,0.02505374591715687
1.3503140378698726,0.022810815172669932
1.4033215376054824,0.02077165940524687
1.4584098829439835,0.018903286346420474
1.5156607589006013,0.017188187506674314
1.575159057091621,0.015618185866240272
1.6369930016117014,0.014184901424456605
1.7012542798525885,0.01287967145924991
1.7680381784572046,0.011693741043578225
1.8374437246107238,0.010617979640827353
1.9095738328780953,0.009642002366970107
1.9845354578058014,0.008756056374599879
2.0624397525140905,0.007951423308550898
2.143402233514853,0.007220300132027021
2.227542951999554,0.006555700632608548
2.314986671851158,0.005951518967592271
2.405863054644063,0.005402396820360968
2.5003068519063225,0.0049034410251996945
2.598458104929248,0.004450175245181927
2.7004623524206774,0.0040385068029495045
2.806470846309834,0.0036646891922605894
2.916640776023701,0.0033252691453875454
3.031135501567576,0.003017094996972844
3.150124795755327,0.002737303120148115
3.2737850959485697,0.002483291629866346
3.4022997656780634,0.002252696504688099
3.5358593665351745,0.002043371149729054
3.6746619407366854,0.0018533666781730693
3.8189133047818515,0.0016809117390266816
3.968827354637162,0.0015243962844085648
4.1246263829013445,0.001382356980367352
4.286541408420921,0.0012534640562167766
4.4548125188449825,0.001136509938048643
4.629689226627261,0.001030397410604716
4.811430839003257,0.0009341291800269499
5.000306842491082,0.0008467988679479207
5.196597302486189,0.0007675828091065658
5.400593278542364,0.0006957325030937763
5.612597255954967,0.0006305677739212875
5.8329235942862,0.0005714707494388991
6.06189899349756,0.0005178802234173089
6.29986297838068,0.00046928650340788777
6.547168402004727,0.00042522664234471324
6.804181968927091,0.00038527948192425564
7.071284778942991,0.00034906241691550334
7.348872892180382,0.0003162284026727313
7.637357916378006,0.0002864626510270302
7.937167617217536,0.000259479627698038
8.248746552614573,0.00023502067521774167
8.572556731909314,0.00021285192588133727
8.909078300934132,0.00019276104516471486
9.258810253973934,0.00017455512246090335
9.622271173675122,0.0001580589251153614
9.999999999999984,0.00014311325802666345
