k [1/Mpc],P(k) [Mpc^3]
0.0001,209.35637623877847
0.00010392556829367125,218.19988062167823
0.00010800523745162529,227.4166100064738
0.00011224505680853065,237.02227916079195
0.00011665131316981963,247.03325266924094
0.00012123054013376525,257.4665603477521
0.00012598952777950273,268.3399414766183
0.00013093533273536104,279.6718967825799
0.00013607528864243335,291.481715785718
0.00014141701702890234,303.78948162955714
0.00014696843861124463,316.6160682023705
0.00015273778503907136,329.98320677222506
0.00015873361110102093,343.91355704480793
0.00016496480740980205,358.43074931499183
0.0001714406135851971,373.5593856496236
0.00017817063195457305,389.3250172313578
0.00018516484179121546,405.7542249728936
0.000192433614111598,422.87470776307373
0.00019998772705352857,440.71534443798436
0.0002078383818579757,459.3062012480245
0.00021599721947827182,478.67851564605667
0.0002244763378413224,498.8647698395866
0.0002332883097864157,519.898770414377
0.00024244620170823283,541.815701739257
0.0002519635929317015,564.6521751422274
0.0002618545958474233,588.4462290755865
0.0002721338768375308,613.2373930229963
0.0002828166780230032,639.066782955511
0.0002939188398646886,665.9771631051774
0.0003054568246515432,694.0130057091012
0.00031744774091091926,723.2204635271584
0.00032990936877709396,753.6474118766918
0.00034286018635565856,785.3436008678124
0.00035631939712285854,818.3607338424621
0.000370306958400514,852.7525342201307
0.00038484361094874304,888.5747194024975
0.0003999509097203664,925.8849970023955
0.00041565125582259895,964.7432572914656
0.00043196792973341727,1005.2116232133662
0.0004489251258218605,1047.3545411365303
0.0004665479882234472,1091.2387969505298
0.000484862648123908,1136.9334623060572
0.000503896262506515,1184.5101084178812
0.0005236770544204653,1234.0428027190333
0.0005442343548300266,1285.6081951390634
0.0005655986461065005,1339.28561378329
0.0005878016072274912,1395.1569659615905
0.0006108761607505036,1453.3069552656468
0.0006348565216305217,1513.8230934297462
0.0006597782479539537,1576.7957391845014
0.0006856782936641739,1642.3182150795114
0.0007125950633568407,1710.4865252922227
0.0007405684692262436,1781.3996247181287
0.0007696399902471156,1855.1594880353432
0.0007998527336796708,1931.87105195991
0.000831251498989063,2011.6423969514094
0.0008638828442740447,2094.5843335611185
0.000897795155303332,2180.8105981431727
0.0009330387172620361,2270.4379246413814
0.0009696657893145519,2363.585667892115
0.001007730682094461,2460.3762003562924
0.0010472898382363582,2560.934368780834
0.0010884019160690055,2665.3874903849683
0.0011311278765939214,2773.8655576203223
0.001175531073878369,2886.500388392803
0.0012216773489967915,3003.426180988943
0.0012696351276599736,3124.7790649951717
0.0013194755216767058,3250.696755458486
0.0013712724343984,3381.3188434461063
0.0014251026703029975,3516.7853555308243
0.0014810460488806749,3657.237291043912
0.0015391855229902056,3802.816357546662
0.001599607301861487,3953.6641143316792
0.0016624009789266115,4109.922432425743
0.0017276596646690358,4271.731517016279
0.0017954801246878305,4439.230074858835
0.0018659629231817451,4612.555568471147
0.001939212572065829,4791.842986874219
0.0020153376859417325,4977.22514500409
0.002094451143151469,5168.830142995884
0.002176670253153458,5366.780731445909
0.002262116930469025,5571.195320541421
0.002350917875457286,5782.186565118524
0.002443204762186487,5999.861341167406
0.0025391144336803463,6224.318492448553
0.002638789104828933,6455.647184417289
0.002742376573264949,6693.927894623924
0.0028500304385181063,6939.229837119031
0.0029619103297725525,7191.611062320122
0.0030781821425650787,7451.116769799219
0.003199018284775064,7717.77646971514
0.0033245979322709396,7991.605269876565
0.003455107294592217,8272.600190249208
0.0035907398910610534,8560.73983303365
0.0037316968377327513,8855.98306385593
0.0038781871456107214,9158.263207655351
0.0040304280305680515,9467.491361850225
0.00418864523543527,9783.555111101143
0.004353073364731888,10106.31727081948
0.00452395623253805,10435.611033399366
0.004701547224022131,10771.219599526614
0.004886109671160325,11112.889190761165
0.005077917243205399,11460.365519366262
0.005277254352483535,11813.410972676396
0.005484416576121017,12171.746400914411
0.005699711094326071,12534.90832664008
0.005923457145875801,12902.313766692387
0.006155986501483508,13273.392440716802
0.006397643955748424,13647.67481337822
0.0066487878384172625,14024.667518424889
0.0069097905457156435,14403.710865873329
0.007181039092537346,14784.004614597676
0.007462935686310132,15164.725559397059
0.007755898323389004,15545.114149397225
0.00806036140886134,15924.391452545275
0.008376776400682916,16301.648696069173
0.008705612479099857,16675.83636708068
0.009047357242349292,17045.844126297645
0.00940251742967013,17410.48073790707
0.009771619672696168,17768.49631116625
0.010155211276345676,18118.574289551587
0.010553861030365234,18459.322573529374
0.010968160052731372,18789.30325971673
0.011398722666160517,19107.00651869996
0.011846187309026826,19410.875247661534
0.012311217482038896,19699.292833409203
0.012794502732078732,19970.538822795344
0.013296759674662111,20222.870046108532
0.013818733056536317,20454.502289235268
0.014361196859990781,20663.633663573695
0.014924955450518284,20848.47267669995
0.015510844769528393,21007.205785619044
0.016119733573881575,21138.064591348833
0.01675252472408214,21239.33484684337
0.017410156523040152,21309.373048264162
0.018093604107387147,21346.655273667373
0.01880388089340914,21349.81128405251
0.019542040079740527,21317.635926357503
0.02030917620904734,21249.160884470508
0.021106426791015535,21143.708113452652
0.021934973989050584,21000.844094910048
0.02279604637318978,20820.589883259498
0.023690920741826323,20603.31152594252
0.02462092401494623,20349.779404189674
0.02558743520168586,20061.417540661132
0.02659188744512693,19739.928452352968
0.027635770147361564,19387.72633439031
0.028720631177978267,19007.750809986894
0.029848079169243254,18603.236399132536
0.03101978590138095,18178.343066937392
0.03223748878149028,17737.32502058721
0.0335029934197723,17284.840934763
0.03481817630688963,16825.947205194596
0.03618498759642746,16365.52660606476
0.037605453996581675,15909.130122933644
0.03908168177536263,15462.140941334574
0.04061585988376978,15028.742582034525
0.04221026320156896,14611.593654012338
0.04386725591048496,14213.105603628113
0.0455892949998106,13837.140142945354
0.047378933909631396,13488.064960116146
0.049238826317067365,13166.28420841139
0.05117173007114603,12865.245402520819
0.05318051128214196,12578.32891982409
0.05526814857144601,12300.165231677438
0.057437737488265785,12025.68436692978
0.0596924950997073,11748.509438771462
0.0620357647610427,11461.86162979648
0.06447102107323864,11157.892513577166
0.06700187503509585,10828.125643317173
0.06963207939763882,10462.955666114869
0.0723655342286965,10057.591629554363
0.07520629269592405,9613.306843929495
0.07815856707684081,9138.56696097505
0.08122673500479707,8646.667416719129
0.08441534596012978,8153.662838005775
0.0877291280161335,7675.50379799428
0.09117299484984914,7226.5731924722095
0.09475205302806537,6819.417036845331
0.09847160957933764,6463.881123592385
0.1023371798632519,6164.59529748961
0.10635449574860109,5917.907223202625
0.11052951411260206,5711.125200204584
0.1148684256737553,5523.808460747921
0.1193776641714435,5333.0341660509475
0.1240639159058831,5118.883609839402
0.12893412965257148,4869.83450315496
0.13399552696593373,4586.70700626676
0.1392556128874462,4282.261845466714
0.14472218707411338,3976.299028335485
0.15040335536380234,3690.9418161530825
0.15630754179458153,3446.5437587604765
0.16244350109588662,3252.84045128524
0.16882033167003618,3100.9245024181278
0.17544748908334581,2968.8148408716365
0.1823348000868439,2833.6660480947
0.189492477187382,2678.46499317211
0.19693113379074215,2500.28174599105
0.20466179993919872,2314.6343732305645
0.21269593866686892,2142.8785887000968
0.22104546299710207,1999.807429795917
0.22972275360711503,1885.7637950901674
0.23874067718606454,1786.2388051125836
0.2481126055137766,1684.1540904607434
0.25785243528842716,1570.942204964947
0.26797460873256895,1454.7496785185238
0.27849413500806414,1349.3779092585075
0.28942661247167484,1260.8442973557264
0.3007882518043098,1183.7972079295514
0.31259590004822796,1107.4908535286593
0.324867065587837,1028.7281688086375
0.3376199441111335,953.3171770234597
0.35087344559027084,886.8255673860808
0.36464722232127456,827.3694731320671
0.37896169806447155,769.952615663918
0.3938380983288488,713.7697856753426
0.4092984818452433,661.9583915410583
0.4253657732750382,615.0237137399606
0.44206379720285277,570.8679231921852
0.45941731346364734,528.7846250491943
0.47745205385661277,489.85898618946453
0.4961947603002895,453.9694935905224
0.5156732244854959,420.2444426107074
0.5359163290848509,388.76808855410496
0.556954090580013,359.6505704125902
0.5788177037701272,332.5083105481877
0.6015395880274836,307.2541658027347
0.6251534353689703,283.8490012674034
0.6496942604146115,262.09277608295383
0.6751984523072497,241.90670461904367
0.7017038286703824,223.1905479719292
0.7292496916841444,205.84465527949035
0.7578768863625915,189.775506841111
0.7876278611187046,174.89538825068715
0.8185467307069019,161.12209312058397
0.850679341636415,148.37899089226448
0.8840733401525058,136.59462119559439
0.9187782428863317,125.70194553238268
0.9548455102782278,115.63810519316908
0.9923286228832539,106.34421011900821
1.0312831606721837,97.76512507894073
1.0717668854455022,89.84917325212942
1.1138398264826193,82.54801380844202
1.1575643695533022,75.81654387891577
1.2030053494233226,69.61271054805569
1.2502301459914542,63.89732931420602
1.299308784200415,58.63390832217783
1.3503140378698726,53.78846719755635
1.4033215376054824,49.329398009945514
1.4584098829439835,45.227326813432406
1.5156607589006013,41.454970808804816
1.575159057091621,37.987003159803486
1.6369930016117014,34.79992224443872
1.7012542798525885,31.871921379923048
1.7680381784572046,29.18278934595633
1.8374437246107238,26.71380734564121
1.9095738328780953,24.447646951479644
1.9845354578058014,22.368274256722987
2.0624397525140905,20.460858489472507
2.143402233514853,18.711685473203342
2.227542951999554,17.10808331102115
2.314986671851158,15.638349009444966
2.405863054644063,14.291678885365974
2.5003068519063225,13.058103524195444
2.598458104929248,11.928424870982038
2.7004623524206774,10.89415847228985
2.806470846309834,9.94748554062626
2.916640776023701,9.081203886545502
3.031135501567576,8.288681664151675
3.150124795755327,7.563814339231218
3.2737850959485697,6.900984012334735
3.4022997656780634,6.295022380626716
3.5358593665351745,5.741177343240866
3.6746619407366854,5.235080969675847
3.8189133047818515,4.77271972723663
3.968827354637162,4.350406837625534
4.1246263829013445,3.9647558785704176
4.286541408420921,3.6126576165218074
4.4548125188449825,3.291259019441929
4.629689226627261,2.9979429156034167
4.811430839003257,2.730309166230432
5.000306842491082,2.4861572510195162
5.196597302486189,2.2634700139127766
5.400593278542364,2.06039903213777
5.612597255954967,1.8752510927903892
5.8329235942862,1.7064755599234445
6.06189899349756,1.552652728872003
6.29986297838068,1.4124829860769543
6.547168402004727,1.2847764493213918
6.804181968927091,1.1684444934436415
7.071284778942991,1.0624916164216538
7.348872892180382,0.9660076680850561
7.637357916378006,0.8781607079782974
7.937167617217536,0.7981906981070472
8.248746552614573,0.7254040344642319
8.572556731909314,0.6591669995959585
8.909078300934132,0.598900499437502
9.258810253973934,0.5440754933094903
9.622271173675122,0.49420878889617426
9.999999999999984,0.4488582260433289
