k [1/Mpc],P(k) [Mpc^3]
0.0001,918.3479688437616
0.00010392556829367125,948.8838581533753
0.00010800523745162529,980.4335654129545
0.00011224505680853065,1013.0306528006048
0.00011665131316981963,1046.7097489120401
0.00012123054013376525,1081.5064929766368
0.00012598952777950273,1117.45766007607
0.00013093533273536104,1154.6012835163788
0.00013607528864243335,1192.9767011182737
0.00014141701702890234,1232.6245118368192
0.00014696843861124463,1273.586497765676
0.00015273778503907136,1315.9057453040086
0.00015873361110102093,1359.6267583520148
0.00016496480740980205,1404.7955229471818
0.0001714406135851971,1451.459496388165
0.00017817063195457305,1499.667525392383
0.00018516484179121546,1549.469944989738
0.000192433614111598,1600.9186928887173
0.00019998772705352857,1654.0673678875226
0.0002078383818579757,1708.9712623189173
0.00021599721947827182,1765.6873170800407
0.0002244763378413224,1824.2741836842663
0.0002332883097864157,1884.7923025656328
0.00024244620170823283,1947.3038390355118
0.0002519635929317015,2011.872834737375
0.0002618545958474233,2078.565258106735
0.0002721338768375308,2147.449048137061
0.0002828166780230032,2218.5941709090253
0.0002939188398646886,2292.072487247318
0.0003054568246515432,2367.9579177613073
0.00031744774091091926,2446.326449830388
0.00032990936877709396,2527.2560749178697
0.00034286018635565856,2610.8270005703357
0.00035631939712285854,2697.1215284134073
0.000370306958400514,2786.2241680297334
0.00038484361094874304,2878.221709720656
0.0003999509097203664,2973.2030909522837
0.00041565125582259895,3071.2596204362167
0.00043196792973341727,3172.484743387328
0.0004489251258218605,3276.974072916902
0.0004665479882234472,3384.8255782768624
0.000484862648123908,3496.139167431305
0.000503896262506515,3611.017061899954
0.0005236770544204653,3729.5638049773293
0.0005442343548300266,3851.8861980401803
0.0005655986461065005,3978.093442723322
0.0005878016072274912,4108.296575014154
0.0006108761607505036,4242.608765365408
0.0006348565216305217,4381.145181899518
0.0006597782479539537,4524.022430865799
0.0006856782936641739,4671.359235627229
0.0007125950633568407,4823.276257015773
0.0007405684692262436,4979.896123142606
0.0007696399902471156,5141.343093002757
0.0007998527336796708,5307.74172226223
0.000831251498989063,5479.217940869197
0.0008638828442740447,5655.89873223404
0.000897795155303332,5837.911920931857
0.0009330387172620361,6025.386255105858
0.0009696657893145519,6218.449449895019
0.001007730682094461,6417.229223963433
0.0010472898382363582,6621.853005667289
0.0010884019160690055,6832.447077534473
0.0011311278765939214,7049.137213717017
0.001175531073878369,7272.045834134618
0.0012216773489967915,7501.292751712812
0.0012696351276599736,7736.995685380215
0.0013194755216767058,7979.268730402843
0.0013712724343984,8228.223235097905
0.0014251026703029975,8483.964878971408
0.0014810460488806749,8746.59337233146
0.0015391855229902056,9016.203505860609
0.001599607301861487,9292.88221999266
0.0016624009789266115,9576.710080667192
0.0017276596646690358,9867.759192472553
0.0017954801246878305,10166.09163763
0.0018659629231817451,10471.760843672999
0.001939212572065829,10784.80704989707
0.0020153376859417325,11105.258837029893
0.002094451143151469,11433.13270919848
0.002176670253153458,11768.430631422189
0.002262116930469025,12111.141372701537
0.002350917875457286,12461.235703931628
0.002443204762186487,12818.666697519531
0.0025391144336803463,13183.369973166105
0.002638789104828933,13555.25886039594
0.002742376573264949,13934.227374879349
0.0028500304385181063,14320.147373822321
0.0029619103297725525,14712.867329452214
0.0030781821425650787,15112.212778549236
0.003199018284775064,15517.979218881213
0.0033245979322709396,15929.93569989572
0.003455107294592217,16347.823677022992
0.0035907398910610534,16771.354487386063
0.0037316968377327513,17200.211009686194
0.0038781871456107214,17634.039317087096
0.0040304280305680515,18072.45152775142
0.00418864523543527,18515.029975534624
0.004353073364731888,18961.32768259565
0.00452395623253805,19410.86487633798
0.004701547224022131,19863.098824318116
0.004886109671160325,20317.427267900795
0.005077917243205399,20773.236172596215
0.005277254352483535,21229.977158105376
0.005484416576121017,21687.095149850662
0.005699711094326071,22143.829645571277
0.005923457145875801,22599.16173901294
0.006155986501483508,23052.0470896899
0.006397643955748424,23501.660864368627
0.0066487878384172625,23947.2543408001
0.0069097905457156435,24387.93354375662
0.007181039092537346,24822.543290995236
0.007462935686310132,25249.880173481335
0.007755898323389004,25668.901296822336
0.00806036140886134,26078.663529250603
0.008376776400682916,26478.14761607602
0.008705612479099857,26866.128326404894
0.009047357242349292,27241.32407425822
0.00940251742967013,27602.41471016206
0.009771619672696168,27948.046900396632
0.010155211276345676,28276.857311016036
0.010553861030365234,28587.477504478687
0.010968160052731372,28878.542138747158
0.011398722666160517,29148.69077867212
0.011846187309026826,29396.572471876203
0.012311217482038896,29620.851032984498
0.012794502732078732,29820.14418093019
0.013296759674662111,29993.07236138721
0.013818733056536317,30138.303257563337
0.014361196859990781,30254.560392075287
0.014924955450518284,30340.634441701266
0.015510844769528393,30395.38001337161
0.016119733573881575,30417.729834342823
0.01675252472408214,30406.719781731135
0.017410156523040152,30361.510124518496
0.018093604107387147,30281.38467875512
0.01880388089340914,30165.798306455574
0.019542040079740527,30014.38883011231
0.02030917620904734,29826.958961055905
0.021106426791015535,29603.578540489263
0.021934973989050584,29344.508338693096
0.02279604637318978,29050.267267410905
0.023690920741826323,28721.70312007564
0.02462092401494623,28359.838903535176
0.02558743520168586,27966.064815746497
0.02659188744512693,27542.009351151977
0.027635770147361564,27089.541337495433
0.028720631177978267,26610.99401341542
0.029848079169243254,26108.788876932187
0.03101978590138095,25585.394715213923
0.03223748878149028,25043.300570605352
0.0335029934197723,24485.219665613327
0.03481817630688963,23914.88847876844
0.03618498759642746,23336.08309467273
0.037605453996581675,22750.297199796176
0.03908168177536263,22156.36089704926
0.04061585988376978,21554.094423776336
0.04221026320156896,20949.816834993697
0.04386725591048496,20351.900249348637
0.0455892949998106,19763.55145253566
0.047378933909631396,19179.120566341797
0.049238826317067365,18592.857397381187
0.05117173007114603,18002.421804183796
0.05318051128214196,17407.619956995433
0.05526814857144601,16808.85443843165
0.057437737488265785,16207.812910524424
0.0596924950997073,15606.356210355445
0.0620357647610427,15006.094995908155
0.06447102107323864,14408.428013052926
0.06700187503509585,13813.29035629685
0.06963207939763882,13218.740591110885
0.0723655342286965,12625.834524201011
0.07520629269592405,12040.485127407212
0.07815856707684081,11469.355884065639
0.08122673500479707,10919.467233180301
0.08441534596012978,10394.26586307768
0.0877291280161335,9894.046747477454
0.09117299484984914,9416.810205893802
0.09475205302806537,8960.204170734045
0.09847160957933764,8522.230766724342
0.1023371798632519,8099.7915574069675
0.10635449574860109,7688.646203866455
0.11052951411260206,7284.445508375091
0.1148684256737553,6885.378571557091
0.1193776641714435,6493.15023269877
0.1240639159058831,6111.654161425713
0.12893412965257148,5746.12354840935
0.13399552696593373,5401.518182204024
0.1392556128874462,5079.315020961268
0.14472218707411338,4777.314109784669
0.15040335536380234,4492.1130452907055
0.15630754179458153,4221.669549752893
0.16244350109588662,3962.673321290633
0.16882033167003618,3712.2178480785055
0.17544748908334581,3471.5637632337343
0.1823348000868439,3243.1534123313227
0.189492477187382,3027.9713830857213
0.19693113379074215,2827.255793987168
0.20466179993919872,2639.661855548333
0.21269593866686892,2462.1232804602705
0.22104546299710207,2294.0919707777184
0.22972275360711503,2135.1384372914304
0.23874067718606454,1985.4726084658696
0.2481126055137766,1845.4851138958647
0.25785243528842716,1714.5735672725639
0.26797460873256895,1591.8767316921599
0.27849413500806414,1476.7828279623586
0.28942661247167484,1368.914750772009
0.3007882518043098,1268.1960564212986
0.31259590004822796,1174.2102614961193
0.324867065587837,1086.4722228876778
0.3376199441111335,1004.6630982968969
0.35087344559027084,928.4079072650621
0.36464722232127456,857.4717745174535
0.37896169806447155,791.4906706748308
0.3938380983288488,730.152799834326
0.4092984818452433,673.2265973013265
0.4253657732750382,620.3763350780523
0.44206379720285277,571.4027012031297
0.45941731346364734,526.019663205975
0.47745205385661277,483.9801170378162
0.4961947603002895,445.0878447961825
0.5156732244854959,409.1163065273744
0.5359163290848509,375.85533837144
0.556954090580013,345.1253969316935
0.5788177037701272,316.7575351139562
0.6015395880274836,290.5885881802831
0.6251534353689703,266.46775554398334
0.6496942604146115,244.23776875870539
0.6751984523072497,223.77113161250173
0.7017038286703824,204.93714754192695
0.7292496916841444,187.60970571851388
0.7578768863625915,171.6748408898533
0.7876278611187046,157.02695106544132
0.8185467307069019,143.57176596864247
0.850679341636415,131.2199634547174
0.8840733401525058,119.88610595518064
0.9187782428863317,109.49083035864085
0.9548455102782278,99.96051408367602
0.9923286228832539,91.22690292192428
1.0312831606721837,83.22677727846543
1.0717668854455022,75.90173777355184
1.1138398264826193,69.19776500246181
1.1575643695533022,63.064846002839815
1.2030053494233226,57.456709639590805
1.2502301459914542,52.33057665036998
1.299308784200415,47.646910845845014
1.3503140378698726,43.3691512343241
1.4033215376054824,39.463565427653286
1.4584098829439835,35.89907163899951
1.5156607589006013,32.647046147930986
1.575159057091621,29.68114314627526
1.6369930016117014,26.977120905936697
1.7012542798525885,24.512674461723144
1.7680381784572046,22.267308834979993
1.8374437246107238,20.222205267760838
1.9095738328780953,18.360092059206057
1.9845354578058014,16.665124570554827
2.0624397525140905,15.122777198623961
2.143402233514853,13.719742548795763
2.227542951999554,12.443826871256304
2.314986671851158,11.28386081068561
2.405863054644063,10.229617945234626
2.5003068519063225,9.271739210815543
2.598458104929248,8.401656869865969
2.7004623524206774,7.611529538343535
2.806470846309834,6.894193607995255
2.916640776023701,6.243107801848493
3.031135501567576,5.652301136258664
3.150124795755327,5.116325094230104
3.2737850959485697,4.630211077837836
3.4022997656780634,4.1894292605354755
3.5358593665351745,3.7898494052549196
3.6746619407366854,3.4277068229298027
3.8189133047818515,3.0995711829460295
3.968827354637162,2.802317760696275
4.1246263829013445,2.5330999696020684
4.286541408420921,2.2893261344788507
4.4548125188449825,2.0686384132289537
4.629689226627261,1.8688923344211108
4.811430839003257,1.6881380378349002
5.000306842491082,1.524603083527695
5.196597302486189,1.3766766004435056
5.400593278542364,1.2428950878852092
5.612597255954967,1.1219293811103748
5.8329235942862,1.0125726325785185
6.06189899349756,0.9137293348020193
6.29986297838068,0.824405230871508
6.547168402004727,0.7436979299011823
6.804181968927091,0.6707889176896467
7.071284778942991,0.6049360506779714
7.348872892180382,0.5454665777538551
7.637357916378006,0.49177078410264047
7.937167617217536,0.44329636209350276
8.248746552614573,0.39954342698945927
8.572556731909314,0.3600591315335708
8.909078300934132,0.3244332234918687
9.258810253973934,0.29229413612975985
9.622271173675122,0.26330542426671827
9.999999999999984,0.2371619778569094
