k [1/Mpc],P(k) [Mpc^3]
0.0001,114.74970255802079
0.00010392556829367125,118.56684350261251
0.00010800523745162529,122.51090049533384
0.00011224505680853065,126.58607990491905
0.00011665131316981963,130.79674045962986
0.00012123054013376525,135.14739167648946
0.00012598952777950273,139.6426862909264
0.00013093533273536104,144.28741720462617
0.00013607528864243335,149.08653393097958
0.00014141701702890234,154.0451538778566
0.00014696843861124463,159.1685664506495
0.00015273778503907136,164.4622353651032
0.00015873361110102093,169.93180335045344
0.00016496480740980205,175.58309879036852
0.0001714406135851971,181.42213731068995
0.00017817063195457305,187.45512784577053
0.00018516484179121546,193.68848387295614
0.000192433614111598,200.1288337902972
0.00019998772705352857,206.78302493292605
0.0002078383818579757,213.65812451347594
0.00021599721947827182,220.76142462479208
0.0002244763378413224,228.10045527189288
0.0002332883097864157,235.68299283824743
0.00024244620170823283,243.51706773209855
0.0002519635929317015,251.61096620205882
0.0002618545958474233,259.9732322422391
0.0002721338768375308,268.61268534953024
0.0002828166780230032,277.5384317412758
0.0002939188398646886,286.759872999421
0.0003054568246515432,296.28670894728987
0.00031744774091091926,306.1289360557214
0.00032990936877709396,316.2968681747826
0.00034286018635565856,326.80114469709605
0.00035631939712285854,337.65274067188494
0.000370306958400514,348.8629759569784
0.00038484361094874304,360.4435103330254
0.0003999509097203664,372.40636613533906
0.00041565125582259895,384.7639380983227
0.00043196792973341727,397.52900222642216
0.0004489251258218605,410.71472865190634
0.0004665479882234472,424.33466628460724
0.000484862648123908,438.4027695532868
0.000503896262506515,452.93341575510357
0.0005236770544204653,467.9414114862548
0.0005442343548300266,483.44200912607715
0.0005655986461065005,499.4508800716923
0.0005878016072274912,515.9841395785606
0.0006108761607505036,533.0583651558871
0.0006348565216305217,550.6905779108587
0.0006597782479539537,568.8982871389328
0.0006856782936641739,587.699501317484
0.0007125950633568407,607.1127408287591
0.0007405684692262436,627.1570375522452
0.0007696399902471156,647.8518836842412
0.0007998527336796708,669.2172927002938
0.000831251498989063,691.2737804032138
0.0008638828442740447,714.0423579248124
0.000897795155303332,737.5445852237301
0.0009330387172620361,761.8025345659554
0.0009696657893145519,786.8388291670879
0.001007730682094461,812.6766240125435
0.0010472898382363582,839.339569012958
0.0010884019160690055,866.8518719951929
0.0011311278765939214,895.2381708768188
0.001175531073878369,924.5235874660173
0.0012216773489967915,954.7337719206291
0.0012696351276599736,985.8948360235894
0.0013194755216767058,1018.0334207576578
0.0013712724343984,1051.1765178004728
0.0014251026703029975,1085.3514771872422
0.0014810460488806749,1120.5860932895912
0.0015391855229902056,1156.908419882859
0.001599607301861487,1194.3469056790584
0.0016624009789266115,1232.9302496879106
0.0017276596646690358,1272.6873251930456
0.0017954801246878305,1313.647291885904
0.0018659629231817451,1355.8392523723014
0.001939212572065829,1399.2924240818966
0.0020153376859417325,1444.0360570159671
0.002094451143151469,1490.0992384776198
0.002176670253153458,1537.5110724109868
0.002262116930469025,1586.3002724868115
0.002350917875457286,1636.4952574162214
0.002443204762186487,1688.1240739150946
0.0025391144336803463,1741.2139311290846
0.002638789104828933,1795.7915690736913
0.002742376573264949,1851.882898319791
0.0028500304385181063,1909.5129546202113
0.0029619103297725525,1968.705895248847
0.0030781821425650787,2029.4842988940127
0.003199018284775064,2091.869574420978
0.0033245979322709396,2155.88154703339
0.003455107294592217,2221.5382060362417
0.0035907398910610534,2288.855925111584
0.0037316968377327513,2357.8485790053974
0.0038781871456107214,2428.52789140602
0.0040304280305680515,2500.9030515679765
0.00418864523543527,2574.9801181307716
0.004353073364731888,2650.7624788754447
0.00452395623253805,2728.249576399684
0.004701547224022131,2807.4371982451016
0.004886109671160325,2888.3172482641216
0.005077917243205399,2970.876455523842
0.005277254352483535,3055.097378004825
0.005484416576121017,3140.957082499601
0.005699711094326071,3228.4270968183773
0.005923457145875801,3317.4735729437893
0.006155986501483508,3408.0552958867456
0.006397643955748424,3500.124956939379
0.0066487878384172625,3593.626616270283
0.0069097905457156435,3688.494791748829
0.007181039092537346,3784.657377320884
0.007462935686310132,3882.037053116981
0.007755898323389004,3980.5500327671302
0.00806036140886134,4080.0954066162994
0.008376776400682916,4180.547500879486
0.008705612479099857,4281.76971564525
0.009047357242349292,4383.619826289437
0.00940251742967013,4485.948189526363
0.009771619672696168,4588.595083786078
0.010155211276345676,4691.389961873604
0.010553861030365234,4794.151428077941
0.010968160052731372,4896.673602570241
0.011398722666160517,4998.728561540145
0.011846187309026826,5100.074186060326
0.012311217482038896,5200.447853107688
0.012794502732078732,5299.573126942129
0.013296759674662111,5397.154816668751
0.013818733056536317,5492.878387351646
0.014361196859990781,5586.415831299098
0.014924955450518284,5677.415576855943
0.015510844769528393,5765.511874563865
0.016119733573881575,5850.321337795885
0.01675252472408214,5931.438520157585
0.017410156523040152,6008.449000562778
0.018093604107387147,6080.919229554795
0.01880388089340914,6148.405840667427
0.019542040079740527,6210.459844531546
0.02030917620904734,6266.621674438847
0.021106426791015535,6316.435299841825
0.021934973989050584,6359.445688889963
0.02279604637318978,6395.204776747796
0.023690920741826323,6423.281876951787
0.02462092401494623,6443.268649500139
0.02558743520168586,6454.783503925907
0.02659188744512693,6457.4897877342855
0.027635770147361564,6451.10084862664
0.028720631177978267,6435.377530510729
0.029848079169243254,6410.164883437974
0.03101978590138095,6375.367444185421
0.03223748878149028,6330.999127456131
0.0335029934197723,6277.214586311404
0.03481817630688963,6214.22586758435
0.03618498759642746,6142.336032419231
0.037605453996581675,6061.910169283929
0.03908168177536263,5973.5533933554525
0.04061585988376978,5878.339698572128
0.04221026320156896,5777.357075408751
0.04386725591048496,5671.327955641175
0.0455892949998106,5560.7283315787145
0.047378933909631396,5446.234535946637
0.049238826317067365,5329.1728382376195
0.05117173007114603,5210.921795982766
0.05318051128214196,5092.77331542348
0.05526814857144601,4975.929737280468
0.057437737488265785,4861.415421211715
0.0596924950997073,4749.884900802347
0.0620357647610427,4641.808782666464
0.06447102107323864,4537.138992934483
0.06700187503509585,4435.554657984682
0.06963207939763882,4336.34003258336
0.0723655342286965,4238.541700058818
0.07520629269592405,4140.93538622678
0.07815856707684081,4042.164203446078
0.08122673500479707,3940.6910361081164
0.08441534596012978,3834.940391331953
0.0877291280161335,3723.331374131953
0.09117299484984914,3604.547177511014
0.09475205302806537,3477.78597288272
0.09847160957933764,3343.0882814147467
0.1023371798632519,3201.6666812331096
0.10635449574860109,3055.7648770856476
0.11052951411260206,2908.5094495408957
0.1148684256737553,2763.5330297845553
0.1193776641714435,2624.2156300735282
0.1240639159058831,2493.9588326168837
0.12893412965257148,2375.8398677734226
0.13399552696593373,2270.4427158314143
0.1392556128874462,2176.9878851032977
0.14472218707411338,2093.0538762142455
0.15040335536380234,2014.5417072576568
0.15630754179458153,1936.6657130142114
0.16244350109588662,1855.1002461023095
0.16882033167003618,1767.0678072275987
0.17544748908334581,1672.1209162260536
0.1823348000868439,1572.4578488017814
0.189492477187382,1472.4583784789454
0.19693113379074215,1377.4731842318522
0.20466179993919872,1292.3159233863812
0.21269593866686892,1219.6372450955319
0.22104546299710207,1158.3791883805436
0.22972275360711503,1103.7871328741044
0.23874067718606454,1049.770169098057
0.2481126055137766,991.7322326199607
0.25785243528842716,928.5170864926174
0.26797460873256895,863.4747098855329
0.27849413500806414,802.4914859783644
0.28942661247167484,749.7876273751535
0.3007882518043098,705.6207299506679
0.31259590004822796,666.3438628078836
0.324867065587837,626.9663020561472
0.3376199441111335,585.0345661316056
0.35087344559027084,542.3671140054199
0.36464722232127456,503.1423663370844
0.37896169806447155,469.6182019847464
0.3938380983288488,440.2060928176297
0.4092984818452433,411.28009681539623
0.4253657732750382,381.5471867097128
0.44206379720285277,353.07988878866274
0.45941731346364734,327.98320101161033
0.47745205385661277,305.5820762093922
0.4961947603002895,283.91867069580087
0.5156732244854959,262.58679911577747
0.5359163290848509,242.93950441883604
0.556954090580013,225.372656071218
0.5788177037701272,208.76404441781682
0.6015395880274836,192.8199659411892
0.6251534353689703,178.15541254776326
0.6496942604146115,164.74251103784135
0.6751984523072497,152.06909213750038
0.7017038286703824,140.2399534259446
0.7292496916841444,129.3857333323131
0.7578768863625915,119.25651962862474
0.7876278611187046,109.83376224080787
0.8185467307069019,101.15130197066185
0.850679341636415,93.07642246373126
0.8840733401525058,85.60383676067654
0.9187782428863317,78.70113076303545
0.9548455102782278,72.32337755189933
0.9923286228832539,66.42993702585862
1.0312831606721837,60.98628131816242
1.0717668854455022,55.9616997194466
1.1138398264826193,51.327192713791156
1.1575643695533022,47.05539636267849
1.2030053494233226,43.12053118071033
1.2502301459914542,39.498223474263824
1.299308784200415,36.16535964189928
1.3503140378698726,33.100330620434015
1.4033215376054824,30.282989498027842
1.4584098829439835,27.69456727786324
1.5156607589006013,25.317593600775723
1.575159057091621,23.135830673745804
1.6369930016117014,21.134188238041794
1.7012542798525885,19.298644995836057
1.7680381784572046,17.616182684539194
1.8374437246107238,16.074723288539488
1.9095738328780953,14.663066739675513
1.9845354578058014,13.370832993521867
2.0624397525140905,12.188413774395613
2.143402233514853,11.106921709376998
2.227542951999554,10.118141595613054
2.314986671851158,9.21448376445862
2.405863054644063,8.388936731322556
2.5003068519063225,7.635030851799787
2.598458104929248,6.946802538393691
2.7004623524206774,6.3187577591457105
2.806470846309834,5.745837825924213
2.916640776023701,5.223386160766562
3.031135501567576,4.74711812409214
3.150124795755327,4.313095567873482
3.2737850959485697,3.917700803672709
3.4022997656780634,3.5576121183450575
3.5358593665351745,3.2297809648710234
3.6746619407366854,2.9314106206956874
3.8189133047818515,2.6599367366440005
3.968827354637162,2.4130091852750786
4.1246263829013445,2.1884751124738178
4.286541408420921,1.9843632207581268
4.4548125188449825,1.798868638975034
4.629689226627261,1.63033944772293
4.811430839003257,1.4772652747893222
5.000306842491082,1.3382657664979376
5.196597302486189,1.212079863040539
5.400593278542364,1.0975559021560426
5.612597255954967,0.9936424729449955
5.8329235942862,0.899380069285815
6.06189899349756,0.8138933808999406
6.29986297838068,0.7363841798469978
6.547168402004727,0.6661247723913978
6.804181968927091,0.6024517220576779
7.071284778942991,0.5447603654870651
7.348872892180382,0.4925001643023469
7.637357916378006,0.44517003015679274
7.937167617217536,0.402314011186502
8.248746552614573,0.36351745652098516
8.572556731909314,0.3284037983799628
8.909078300934132,0.29663064724617133
9.258810253973934,0.26788659019575517
9.622271173675122,0.24188848611069952
9.999999999999984,0.2183789547626284
