k [1/Mpc],P(k) [Mpc^3]
0.0001,134.4166846847499
0.00010392556829367125,140.09570048009624
0.00010800523745162529,146.01452631771363
0.00011224505680853065,152.18326390173604
0.00011665131316981963,158.6124381205848
0.00012123054013376525,165.31302435592892
0.00012598952777950273,172.29646524828652
0.00013093533273536104,179.57468126828812
0.00013607528864243335,187.16008207088564
0.00014141701702890234,195.06559506379955
0.00014696843861124463,203.30469000025982
0.00015273778503907136,211.89140167341293
0.00015873361110102093,220.840351172377
0.00016496480740980205,230.16676431207418
0.0001714406135851971,239.886500611119
0.00017817063195457305,250.01607905558822
0.00018516484179121546,260.572703619049
0.000192433614111598,271.5742946661816
0.00019998772705352857,283.0395189138366
0.0002078383818579757,294.98782006292316
0.00021599721947827182,307.4394378771321
0.0002244763378413224,320.4154204918598
0.0002332883097864157,333.93768138952385
0.00024244620170823283,348.0290539335338
0.0002519635929317015,362.7133275224719
0.0002618545958474233,378.01526253178594
0.0002721338768375308,393.9605896972153
0.0002828166780230032,410.5760810414835
0.0002939188398646886,427.88959860390196
0.0003054568246515432,445.9301362886145
0.00031744774091091926,464.7278663163723
0.00032990936877709396,484.31417175951935
0.00034286018635565856,504.72170171956907
0.00035631939712285854,525.9843923052938
0.000370306958400514,548.1374801418079
0.00038484361094874304,571.2176035721166
0.0003999509097203664,595.2628610030755
0.00041565125582259895,620.3128668379967
0.00043196792973341727,646.4087750010569
0.0004489251258218605,673.5932599830115
0.0004665479882234472,701.9106463301549
0.000484862648123908,731.4069776932204
0.000503896262506515,762.1300781428004
0.0005236770544204653,794.1295990853986
0.0005442343548300266,827.456980097453
0.0005655986461065005,862.1655817747331
0.0005878016072274912,898.3107201374759
0.0006108761607505036,935.949689052796
0.0006348565216305217,975.141902971338
0.0006597782479539537,1015.948935668206
0.0006856782936641739,1058.4346058160359
0.0007125950633568407,1102.6649670147551
0.0007405684692262436,1148.7082248964014
0.0007696399902471156,1196.6349711785933
0.0007998527336796708,1246.5181956534097
0.000831251498989063,1298.4333629223604
0.0008638828442740447,1352.458472303354
0.000897795155303332,1408.673913929284
0.0009330387172620361,1467.1626968147932
0.0009696657893145519,1528.0103513100782
0.001007730682094461,1591.3049104826946
0.0010472898382363582,1657.137135853616
0.0010884019160690055,1725.6003160263294
0.0011311278765939214,1796.7904575149453
0.001175531073878369,1870.8060980064683
0.0012216773489967915,1947.7479973961267
0.0012696351276599736,2027.7196093162115
0.0013194755216767058,2110.826833697182
0.0013712724343984,2197.178113848736
0.0014251026703029975,2286.8842964449136
0.0014810460488806749,2380.057920346851
0.0015391855229902056,2476.81383486529
0.001599607301861487,2577.268849054934
0.0016624009789266115,2681.54163076009
0.0017276596646690358,2789.752783180761
0.0017954801246878305,2902.0237883364434
0.0018659629231817451,3018.4775549299543
0.001939212572065829,3139.237933389826
0.0020153376859417325,3264.429142353895
0.002094451143151469,3394.176250731178
0.002176670253153458,3528.6040374210734
0.002262116930469025,3667.8371896254484
0.002350917875457286,3811.999847694742
0.002443204762186487,3961.2143324363733
0.0025391144336803463,4115.60189236828
0.002638789104828933,4275.281351402262
0.002742376573264949,4440.368862723209
0.0028500304385181063,4610.977788774093
0.0029619103297725525,4787.216747447366
0.0030781821425650787,4969.190338530584
0.003199018284775064,5156.997591435929
0.0033245979322709396,5350.730952435512
0.003455107294592217,5550.476603557138
0.0035907398910610534,5756.311311935995
0.0037316968377327513,5968.303199371477
0.0038781871456107214,6186.510279944993
0.0040304280305680515,6410.978036759326
0.00418864523543527,6641.740655006256
0.004353073364731888,6878.816708416511
0.00452395623253805,7122.209365305289
0.004701547224022131,7371.906479511268
0.004886109671160325,7627.877463905404
0.005077917243205399,7890.073920675335
0.005277254352483535,8158.417989023615
0.005484416576121017,8432.800617593919
0.005699711094326071,8713.094650957622
0.005923457145875801,8999.173662435882
0.006155986501483508,9290.895832151777
0.006397643955748424,9588.043919638842
0.0066487878384172625,9890.294510991853
0.0069097905457156435,10197.288321781256
0.007181039092537346,10508.700276813282
0.007462935686310132,10824.207549078876
0.007755898323389004,11143.416035647895
0.00806036140886134,11465.803050045937
0.008376776400682916,11790.79129402949
0.008705612479099857,12117.808026483699
0.009047357242349292,12446.276647686751
0.00940251742967013,12775.557257887433
0.009771619672696168,13104.875480107554
0.010155211276345676,13433.386302525432
0.010553861030365234,13760.173717938489
0.010968160052731372,14084.247611016737
0.011398722666160517,14404.559340650781
0.011846187309026826,14719.971450385365
0.012311217482038896,15029.283090685278
0.012794502732078732,15331.223171201773
0.013296759674662111,15624.435264005113
0.013818733056536317,15907.511720396777
0.014361196859990781,16178.936885450506
0.014924955450518284,16437.12227323415
0.015510844769528393,16680.43388469535
0.016119733573881575,16907.163919152477
0.01675252472408214,17115.58784719749
0.017410156523040152,17303.936070814343
0.018093604107387147,17470.41359557862
0.01880388089340914,17613.251233326264
0.019542040079740527,17730.686683958702
0.02030917620904734,17821.019531852664
0.021106426791015535,17882.641211906906
0.021934973989050584,17914.055049440456
0.02279604637318978,17913.913694872706
0.023690920741826323,17881.098877331577
0.02462092401494623,17814.705126531273
0.02558743520168586,17714.120356225878
0.02659188744512693,17579.139964212663
0.027635770147361564,17409.830307905162
0.028720631177978267,17206.811272498955
0.029848079169243254,16971.139318035974
0.03101978590138095,16704.26839185861
0.03223748878149028,16408.483348067708
0.0335029934197723,16086.327178475933
0.03481817630688963,15740.955199284253
0.03618498759642746,15376.080000363323
0.037605453996581675,14995.585303463013
0.03908168177536263,14604.56750561645
0.04061585988376978,14208.22845643284
0.04221026320156896,13811.21041178972
0.04386725591048496,13417.524032811736
0.0455892949998106,13031.006598490745
0.047378933909631396,12657.395278509928
0.049238826317067365,12302.992785368227
0.05117173007114603,11972.07829087892
0.05318051128214196,11665.979323232978
0.05526814857144601,11385.11836013524
0.057437737488265785,11127.963743207425
0.0596924950997073,10892.251520514174
0.0620357647610427,10673.883348904268
0.06447102107323864,10467.959749021074
0.06700187503509585,10267.97223653412
0.06963207939763882,10066.480886051091
0.0723655342286965,9854.555948402865
0.07520629269592405,9622.594909760142
0.07815856707684081,9361.072414684553
0.08122673500479707,9062.456026003352
0.08441534596012978,8723.85482808867
0.0877291280161335,8347.167209626732
0.09117299484984914,7936.990225865426
0.09475205302806537,7503.805095231057
0.09847160957933764,7062.620749302228
0.1023371798632519,6630.043796475206
0.10635449574860109,6223.859584384769
0.11052951411260206,5860.278122099755
0.1148684256737553,5551.358019731352
0.1193776641714435,5301.904625914452
0.1240639159058831,5106.881115508734
0.12893412965257148,4952.037811059061
0.13399552696593373,4816.604035158309
0.1392556128874462,4677.205809826845
0.14472218707411338,4512.446242330072
0.15040335536380234,4308.041715761277
0.15630754179458153,4061.4473982294553
0.16244350109588662,3783.6074596600756
0.16882033167003618,3497.0733305903213
0.17544748908334581,3230.819630329009
0.1823348000868439,3010.417788375705
0.189492477187382,2845.965254190468
0.19693113379074215,2727.7691146649518
0.20466179993919872,2632.5487954966534
0.21269593866686892,2531.5067274090184
0.22104546299710207,2401.0663446074827
0.22972275360711503,2237.7067943380184
0.23874067718606454,2060.0335023679236
0.2481126055137766,1896.2533708637388
0.25785243528842716,1768.3870117822923
0.26797460873256895,1677.4006399013647
0.27849413500806414,1603.2796184908966
0.28942661247167484,1520.2481525971523
0.3007882518043098,1416.7499303020847
0.31259590004822796,1304.2950338982894
0.324867065587837,1204.82313693299
0.3376199441111335,1129.7624252645307
0.35087344559027084,1068.886053406917
0.36464722232127456,1004.4376249224958
0.37896169806447155,930.5180488370984
0.3938380983288488,858.6769812478358
0.4092984818452433,800.0442178755696
0.4253657732750382,750.8090000965609
0.44206379720285277,700.3748055219976
0.45941731346364734,647.564070711242
0.47745205385661277,600.1802511873486
0.4961947603002895,559.7594787860814
0.5156732244854959,520.7287210973734
0.5359163290848509,481.7112698637594
0.556954090580013,446.55308560520893
0.5788177037701272,414.9383802335294
0.6015395880274836,384.2440935973882
0.6251534353689703,355.51123290686036
0.6496942604146115,329.4704949350567
0.6751984523072497,304.8355160637059
0.7017038286703824,281.828375796966
0.7292496916841444,260.7017429224456
0.7578768863625915,240.98587706294686
0.7876278611187046,222.60054910308833
0.8185467307069019,205.50442306794267
0.850679341636415,189.64833033709115
0.8840733401525058,174.96447276300927
0.9187782428863317,161.36844605019147
0.9548455102782278,148.7807747506754
0.9923286228832539,137.1279642257657
1.0312831606721837,126.34201935207989
1.0717668854455022,116.36015014121551
1.1138398264826193,107.12608302707991
1.1575643695533022,98.5884964026351
1.2030053494233226,90.69911177321669
1.2502301459914542,83.412532407265
1.299308784200415,76.68612080448135
1.3503140378698726,70.47980930219353
1.4033215376054824,64.75568053873373
1.4584098829439835,59.478215802346206
1.5156607589006013,54.61432968142345
1.575159057091621,50.13322048249573
1.6369930016117014,46.00622798916849
1.7012542798525885,42.20670826931166
1.7680381784572046,38.70992035436398
1.8374437246107238,35.49287495816615
1.9095738328780953,32.53421651410104
1.9845354578058014,29.814117888141123
2.0624397525140905,27.31418075295312
2.143402233514853,25.017335971462437
2.227542951999554,22.90775431278633
2.314986671851158,20.970772969186406
2.405863054644063,19.192816866103783
2.5003068519063225,17.561323839965162
2.598458104929248,16.06467407485411
2.7004623524206774,14.692119470923341
2.806470846309834,13.43372485096812
2.916640776023701,12.280315028991966
3.031135501567576,11.223420245329056
3.150124795755327,10.255225051426194
3.2737850959485697,9.368520414569534
3.4022997656780634,8.556658222044051
3.5358593665351745,7.813510954005479
3.6746619407366854,7.13343360993477
3.8189133047818515,6.51122760219539
3.968827354637162,5.942107166857824
4.1246263829013445,5.421667559168456
4.286541408420921,4.9458549550855855
4.4548125188449825,4.5109416021367
4.629689226627261,4.113501137110341
4.811430839003257,3.7503852053591498
5.000306842491082,3.418701796986072
5.196597302486189,3.11579505514022
5.400593278542364,2.8392266688713335
5.612597255954967,2.5867589541676783
5.8329235942862,2.356338965112708
6.06189899349756,2.1460837800740657
6.29986297838068,1.9542668679389494
6.547168402004727,1.7793048283886241
6.804181968927091,1.61974616780763
7.071284778942991,1.4742614120933097
7.348872892180382,1.3416331679282565
7.637357916378006,1.2207469362029955
7.937167617217536,1.1105828147738346
8.248746552614573,1.0102087491049876
8.572556731909314,0.918772247369386
8.909078300934132,0.8354931145558596
9.258810253973934,0.7596575240103633
9.622271173675122,0.6906125585395377
9.999999999999984,0.6277602509379321
