k [1/Mpc],P(k) [Mpc^3]
0.0001,389.0653492820894
0.00010392556829367125,406.6648237105237
0.00010800523745162529,425.0591438597631
0.00011224505680853065,444.28403592500575
0.00011665131316981963,464.37678621724973
0.00012123054013376525,485.37634353152373
0.00012598952777950273,507.3234135684234
0.00013093533273536104,530.2605188332994
0.00013607528864243335,554.2320305895975
0.00014141701702890234,579.284231944244
0.00014696843861124463,605.4654460727986
0.00015273778503907136,632.8261312503112
0.00015873361110102093,661.4189708673564
0.00016496480740980205,691.2989282518413
0.0001714406135851971,722.5232999288698
0.00017817063195457305,755.15187504424
0.00018516484179121546,789.2470502771504
0.000192433614111598,824.8739398540378
0.00019998772705352857,862.1004473974203
0.0002078383818579757,900.9972863702761
0.00021599721947827182,941.6381837136415
0.0002244763378413224,984.0999642423975
0.0002332883097864157,1028.4626679340465
0.00024244620170823283,1074.809721045783
0.0002519635929317015,1123.2280168796767
0.0002618545958474233,1173.8080901915407
0.0002721338768375308,1226.6441492469826
0.0002828166780230032,1281.8341278072917
0.0002939188398646886,1339.4799749243966
0.0003054568246515432,1399.6876933923438
0.00031744774091091926,1462.56754238447
0.00032990936877709396,1528.234151583117
0.00034286018635565856,1596.8065130890595
0.00035631939712285854,1668.4083116715487
0.000370306958400514,1743.1679342345185
0.00038484361094874304,1821.2186452861204
0.0003999509097203664,1902.698763280529
0.00041565125582259895,1987.7514593637939
0.00043196792973341727,2076.525200145966
0.0004489251258218605,2169.1738191392965
0.0004665479882234472,2265.8566062274344
0.000484862648123908,2366.7385781932558
0.000503896262506515,2471.990200429409
0.0005236770544204653,2581.7877699203063
0.0005442343548300266,2696.313399571449
0.0005655986461065005,2815.7548039348717
0.0005878016072274912,2940.3058727108883
0.0006108761607505036,3070.16650594705
0.0006348565216305217,3205.5428163611273
0.0006597782479539537,3346.647021181165
0.0006856782936641739,3493.6966458269562
0.0007125950633568407,3646.9153851570454
0.0007405684692262436,3806.5327109965283
0.0007696399902471156,3972.7838301230227
0.0007998527336796708,4145.909851034097
0.000831251498989063,4326.15630502737
0.0008638828442740447,4513.7740541269495
0.000897795155303332,4709.018520216924
0.0009330387172620361,4912.148825899968
0.0009696657893145519,5123.428688002906
0.001007730682094461,5343.12430934402
0.0010472898382363582,5571.50493194845
0.0010884019160690055,5808.842253200075
0.0011311278765939214,6055.408312740015
0.001175531073878369,6311.476887863874
0.0012216773489967915,6577.321392330877
0.0012696351276599736,6853.214512178149
0.0013194755216767058,7139.427855291401
0.0013712724343984,7436.228390642013
0.0014251026703029975,7743.8799041632665
0.0014810460488806749,8062.640200348173
0.0015391855229902056,8392.759301528364
0.001599607301861487,8734.480381041463
0.0016624009789266115,9088.035810783622
0.0017276596646690358,9453.647582180714
0.0017954801246878305,9831.525409125148
0.0018659629231817451,10221.863741274505
0.001939212572065829,10624.842163514239
0.0020153376859417325,11040.6199886166
0.002094451143151469,11469.335793824415
0.002176670253153458,11911.106430039788
0.002262116930469025,12366.02230067344
0.002350917875457286,12834.14810234266
0.002443204762186487,13315.51693115664
0.0025391144336803463,13810.128007144012
0.002638789104828933,14317.946769855895
0.002742376573264949,14838.897693440216
0.0028500304385181063,15372.86567290726
0.0029619103297725525,15919.69089247862
0.0030781821425650787,16479.1641737943
0.003199018284775064,17051.028497229843
0.0033245979322709396,17634.96857651553
0.003455107294592217,18230.61265012739
0.0035907398910610534,18837.53191180788
0.0037316968377327513,19455.235523854073
0.0038781871456107214,20083.167915891165
0.0040304280305680515,20720.653102342807
0.00418864523543527,21366.9025577011
0.004353073364731888,22021.10047667643
0.00452395623253805,22682.53499735936
0.004701547224022131,23350.46562499282
0.004886109671160325,24023.74728595137
0.005077917243205399,24700.75851131562
0.005277254352483535,25379.812501482396
0.005484416576121017,26059.58664421604
0.005699711094326071,26738.85253106386
0.005923457145875801,27416.067512643946
0.006155986501483508,28089.176593382235
0.006397643955748424,28756.002683452014
0.0066487878384172625,29414.58582604644
0.0069097905457156435,30063.0712701886
0.007181039092537346,30699.38535472267
0.007462935686310132,31320.957041036625
0.007755898323389004,31925.053469428432
0.00806036140886134,32508.772836589025
0.008376776400682916,33069.065656483064
0.008705612479099857,33602.797332304326
0.009047357242349292,34106.69602891858
0.00940251742967013,34577.43341716178
0.009771619672696168,35011.48818092637
0.010155211276345676,35405.10820048975
0.010553861030365234,35754.52029200378
0.010968160052731372,36055.74234229994
0.011398722666160517,36304.774345360645
0.011846187309026826,36497.58460160763
0.012311217482038896,36629.982642369614
0.012794502732078732,36697.949977522665
0.013296759674662111,36697.429963461815
0.013818733056536317,36624.511925391984
0.014361196859990781,36475.58031500557
0.014924955450518284,36247.08479729235
0.015510844769528393,35935.986473830104
0.016119733573881575,35539.652378609244
0.01675252472408214,35055.95205512797
0.017410156523040152,34483.57592241852
0.018093604107387147,33821.88470536045
0.01880388089340914,33071.20895803409
0.019542040079740527,32232.996433429544
0.02030917620904734,31309.845014044546
0.021106426791015535,30305.59457654081
0.021934973989050584,29225.70509452543
0.02279604637318978,28076.925590529347
0.023690920741826323,26867.476317822344
0.02462092401494623,25607.524099862898
0.02558743520168586,24307.913075680142
0.02659188744512693,22981.58162718815
0.027635770147361564,21642.447199172726
0.028720631177978267,20304.427307626753
0.029848079169243254,18983.605013266315
0.03101978590138095,17694.512492243128
0.03223748878149028,16452.357297327762
0.0335029934197723,15272.627418951464
0.03481817630688963,14167.332990805055
0.03618498759642746,13148.316446019131
0.037605453996581675,12224.46851635483
0.03908168177536263,11403.360525125221
0.04061585988376978,10693.5833473343
0.04221026320156896,10100.127335692721
0.04386725591048496,9619.867937826692
0.0455892949998106,9247.47188679883
0.047378933909631396,8974.465166832766
0.049238826317067365,8790.323336709114
0.05117173007114603,8684.24569448395
0.05318051128214196,8644.110731958224
0.05526814857144601,8651.906065454044
0.057437737488265785,8682.640266806902
0.0596924950997073,8703.61510021326
0.0620357647610427,8677.736677012914
0.06447102107323864,8568.584734306385
0.06700187503509585,8347.55881917204
0.06963207939763882,7999.305437227936
0.0723655342286965,7525.772565447147
0.07520629269592405,6941.154018253441
0.07815856707684081,6272.713129261531
0.08122673500479707,5562.51701229202
0.08441534596012978,4862.612883286694
0.0877291280161335,4226.367254913312
0.09117299484984914,3698.0708538685167
0.09475205302806537,3304.2389825957616
0.09847160957933764,3050.6505128751637
0.1023371798632519,2928.1597155968793
0.10635449574860109,2915.7456337639314
0.11052951411260206,2978.815806913511
0.1148684256737553,3067.0373746175665
0.1193776641714435,3119.4586734285153
0.1240639159058831,3078.532281714972
0.12893412965257148,2908.552584215121
0.13399552696593373,2616.3304107259955
0.1392556128874462,2257.647519486908
0.14472218707411338,1910.1320256484175
0.15040335536380234,1635.7787745687158
0.15630754179458153,1468.354681799894
0.16244350109588662,1411.8007136624003
0.16882033167003618,1434.1593032775822
0.17544748908334581,1476.3897645407492
0.1823348000868439,1474.083325776539
0.189492477187382,1383.43490312287
0.19693113379074215,1215.9484793548245
0.20466179993919872,1032.010729145716
0.21269593866686892,894.8057164734857
0.22104546299710207,832.8137537881058
0.22972275360711503,827.5203512648812
0.23874067718606454,831.543594594374
0.2481126055137766,794.3885453646157
0.25785243528842716,708.6336353463788
0.26797460873256895,613.5949856798944
0.27849413500806414,552.1706215315253
0.28942661247167484,530.529845055424
0.3007882518043098,518.9250937173639
0.31259590004822796,485.46338384160805
0.324867065587837,432.08892874682635
0.3376199441111335,387.39228821114386
0.35087344559027084,364.5287750710574
0.36464722232127456,348.1567857383789
0.37896169806447155,320.8407424371695
0.3938380983288488,288.9176670465278
0.4092984818452433,266.63643503941154
0.4253657732750382,250.95698398354435
0.44206379720285277,231.50860600685706
0.45941731346364734,210.82669414193995
0.47745205385661277,195.25371328764686
0.4961947603002895,181.39294978735327
0.5156732244854959,166.2423701724554
0.5359163290848509,153.03172873713225
0.556954090580013,141.5478399873481
0.5788177037701272,130.33735385401116
0.6015395880274836,119.96635525012016
0.6251534353689703,110.39132096911754
0.6496942604146115,101.55548131006223
0.6751984523072497,93.40558663050797
0.7017038286703824,85.89175034741432
0.7292496916841444,78.96691658445648
0.7578768863625915,72.58565361228015
0.7876278611187046,66.7056241062697
0.8185467307069019,61.287841301689404
0.850679341636415,56.29639368569981
0.8840733401525058,51.69819768297742
0.9187782428863317,47.46310716007935
0.9548455102782278,43.56380575169698
0.9923286228832539,39.97494417836066
1.0312831606721837,36.67295004244412
1.0717668854455022,33.635917403360736
1.1138398264826193,30.84349505587142
1.1575643695533022,28.2767056559468
1.2030053494233226,25.917908349504533
1.2502301459914542,23.75078495490161
1.299308784200415,21.760247515685712
1.3503140378698726,19.93235012495544
1.4033215376054824,18.254209330807985
1.4584098829439835,16.713936001567262
1.5156607589006013,15.300551195747234
1.575159057091621,14.00391593067204
1.6369930016117014,12.814670226972943
1.7012542798525885,11.724176247048984
1.7680381784572046,10.724463210030711
1.8374437246107238,9.808177110488247
1.9095738328780953,8.96853930302099
1.9845354578058014,8.1993038779179
2.0624397525140905,7.494717528343973
2.143402233514853,6.8494822870424334
2.227542951999554,6.258721056476644
2.314986671851158,5.717945416993747
2.405863054644063,5.223025712833156
2.5003068519063225,4.770163453696098
2.598458104929248,4.355865739629018
2.7004623524206774,3.976921084305571
2.806470846309834,3.6303756950073027
2.916640776023701,3.313515640321088
3.031135501567576,3.023848866401389
3.150124795755327,2.759087578225978
3.2737850959485697,2.5171319734474475
3.4022997656780634,2.296055694927092
3.5358593665351745,2.0940922548134395
3.6746619407366854,1.9096211456665861
3.8189133047818515,1.7411560036430294
3.968827354637162,1.587333828773748
4.1246263829013445,1.4469050036898483
4.286541408420921,1.3187235324132065
4.4548125188449825,1.2017389186263352
4.629689226627261,1.0949890162421239
4.811430839003257,0.9975927876002311
5.000306842491082,0.9087436181143781
5.196597302486189,0.8277031938231084
5.400593278542364,0.7537959585742476
5.612597255954967,0.6864037695379
5.8329235942862,0.6249610647487603
6.06189899349756,0.5689504883982613
6.29986297838068,0.5178988702106408
6.547168402004727,0.4713734295087801
6.804181968927091,0.4289783024565719
7.071284778942991,0.3903516886129148
7.348872892180382,0.3551630051441258
7.637357916378006,0.3231102389259728
7.937167617217536,0.29391753016350347
8.248746552614573,0.2673331631573747
8.572556731909314,0.24312742095135403
8.909078300934132,0.22109046022824694
9.258810253973934,0.2010306211867454
9.622271173675122,0.1827728870074087
9.999999999999984,0.16615735611172344
