k [1/Mpc],P(k) [Mpc^3]
0.0001,57.53047465284911
0.00010392556829367125,59.96132285955973
0.00010800523745162529,62.494844494812746
0.00011224505680853065,65.13537154818809
0.00011665131316981963,67.88741836362333
0.00012123054013376525,70.75568908752787
0.00012598952777950273,73.74508576412713
0.00013093533273536104,76.8607151059772
0.00013607528864243335,80.10789683429839
0.00014141701702890234,83.49217444057199
0.00014696843861124463,87.01932647493213
0.00015273778503907136,90.69537506594541
0.00015873361110102093,94.52659274992041
0.00016496480740980205,98.51951116813636
0.0001714406135851971,102.68093563803049
0.00017817063195457305,107.01795977808388
0.00018516484179121546,111.53797622328256
0.000192433614111598,116.24868367867313
0.00019998772705352857,121.15809401417701
0.0002078383818579757,126.27455242337727
0.00021599721947827182,131.60675721154882
0.0002244763378413224,137.1637736421177
0.0002332883097864157,142.95504213443888
0.00024244620170823283,148.99038400691313
0.0002519635929317015,155.28002572915554
0.0002618545958474233,161.83461927508307
0.0002721338768375308,168.6652598039287
0.0002828166780230032,175.78350074013716
0.0002939188398646886,183.20136385824696
0.0003054568246515432,190.931363734404
0.00031744774091091926,198.98652767358632
0.00032990936877709396,207.3804140867841
0.00034286018635565856,216.12713620089895
0.00035631939712285854,225.24137121363867
0.000370306958400514,234.7383880962215
0.00038484361094874304,244.63407809850165
0.0003999509097203664,254.94497966866214
0.00041565125582259895,265.68830146633303
0.00043196792973341727,276.8819159877769
0.0004489251258218605,288.54438861656416
0.0004665479882234472,300.6950301474188
0.000484862648123908,313.35393336966786
0.000503896262506515,326.5419954953604
0.0005236770544204653,340.28090899638494
0.0005442343548300266,354.59318043539673
0.0005655986461065005,369.50219864016833
0.0005878016072274912,385.03227204369267
0.0006108761607505036,401.2086603513004
0.0006348565216305217,418.05756660182163
0.0006597782479539537,435.60613513701395
0.0006856782936641739,453.88254000128853
0.0007125950633568407,472.91601224020616
0.0007405684692262436,492.7368814564738
0.0007696399902471156,513.3765981105474
0.0007998527336796708,534.8677307888076
0.000831251498989063,557.2440419447995
0.0008638828442740447,580.5404581050921
0.000897795155303332,604.7931096627118
0.0009330387172620361,630.0394186337084
0.0009696657893145519,656.3181164870609
0.001007730682094461,683.6692974942316
0.0010472898382363582,712.1343341331426
0.0010884019160690055,741.7558630986931
0.0011311278765939214,772.5779390461917
0.001175531073878369,804.6459964278171
0.0012216773489967915,838.0069273519305
0.0012696351276599736,872.7090358280533
0.0013194755216767058,908.8019568679571
0.0013712724343984,946.3368208532853
0.0014251026703029975,985.3660906915986
0.0014810460488806749,1025.9436426862121
0.0015391855229902056,1068.1247985559132
0.001599607301861487,1111.9661400094706
0.0016624009789266115,1157.5257035267841
0.0017276596646690358,1204.8627516930203
0.0017954801246878305,1254.0377624911036
0.0018659629231817451,1305.1125591020088
0.001939212572065829,1358.1500214724217
0.0020153376859417325,1413.2142637863935
0.002094451143151469,1470.370292173763
0.002176670253153458,1529.6837772106733
0.002262116930469025,1591.221381607288
0.002350917875457286,1655.050415109584
0.002443204762186487,1721.238923660154
0.0025391144336803463,1789.8553434738872
0.002638789104828933,1860.967957181862
0.002742376573264949,1934.6453407505312
0.0028500304385181063,2010.955877773754
0.0029619103297725525,2089.967731458613
0.0030781821425650787,2171.7486185391012
0.003199018284775064,2256.364911811967
0.0033245979322709396,2343.88211777466
0.003455107294592217,2434.3642081934863
0.0035907398910610534,2527.8733394214596
0.0037316968377327513,2624.4698568964473
0.0038781871456107214,2724.210994377897
0.0040304280305680515,2827.151308407229
0.00418864523543527,2933.3416956584274
0.004353073364731888,3042.8285027854067
0.00452395623253805,3155.654078421234
0.004701547224022131,3271.854890304828
0.004886109671160325,3391.4618605313963
0.005077917243205399,3514.499596260527
0.005277254352483535,3640.9846284459686
0.005484416576121017,3770.926409723604
0.005699711094326071,3904.324930755843
0.005923457145875801,4041.170627912388
0.006155986501483508,4181.443305401458
0.006397643955748424,4325.107173195469
0.0066487878384172625,4472.114419213995
0.0069097905457156435,4622.408014130876
0.007181039092537346,4775.921463755955
0.007462935686310132,4932.570705019585
0.007755898323389004,5092.230511871409
0.00806036140886134,5254.749508364398
0.008376776400682916,5419.962220311924
0.008705612479099857,5587.69161579826
0.009047357242349292,5757.742203504014
0.00940251742967013,5929.897934336534
0.009771619672696168,6103.922216649465
0.010155211276345676,6279.546394398791
0.010553861030365234,6456.453594077958
0.010968160052731372,6634.297523173835
0.011398722666160517,6812.693728263052
0.011846187309026826,6991.2218982330905
0.012311217482038896,7169.429360020485
0.012794502732078732,7346.819382462524
0.013296759674662111,7522.862976672963
0.013818733056536317,7696.988989596554
0.014361196859990781,7868.583203305137
0.014924955450518284,8036.99811938692
0.015510844769528393,8201.5303571389
0.016119733573881575,8361.441191261816
0.01675252472408214,8515.955388300636
0.017410156523040152,8664.255876912552
0.018093604107387147,8805.504226758501
0.01880388089340914,8938.824813308074
0.019542040079740527,9063.321718544088
0.02030917620904734,9178.090593955201
0.021106426791015535,9282.216068221536
0.021934973989050584,9374.793167911643
0.02279604637318978,9454.936438630251
0.023690920741826323,9521.789421993513
0.02462092401494623,9574.546058411077
0.02558743520168586,9612.488407988834
0.02659188744512693,9634.968735363796
0.027635770147361564,9641.458252139599
0.028720631177978267,9631.561151210839
0.029848079169243254,9605.005831649058
0.03101978590138095,9561.821872734256
0.03223748878149028,9502.20190800694
0.0335029934197723,9426.472097912838
0.03481817630688963,9335.118790260743
0.03618498759642746,9228.810386785995
0.037605453996581675,9109.191111991488
0.03908168177536263,8978.39097089542
0.04061585988376978,8838.14209193983
0.04221026320156896,8689.255864835868
0.04386725591048496,8532.497865800624
0.0455892949998106,8369.939209381337
0.047378933909631396,8204.569675550627
0.049238826317067365,8039.1782432303935
0.05117173007114603,7876.2437741107115
0.05318051128214196,7718.002282876305
0.05526814857144601,7566.063294583723
0.057437737488265785,7421.499153555072
0.0596924950997073,7284.742846078031
0.0620357647610427,7155.227648726222
0.06447102107323864,7031.9206473398535
0.06700187503509585,6912.955162261418
0.06963207939763882,6796.044657182405
0.0723655342286965,6678.2713337137575
0.07520629269592405,6556.255308310377
0.07815856707684081,6426.191042988246
0.08122673500479707,6284.002372554179
0.08441534596012978,6125.829571063284
0.0877291280161335,5948.535751346938
0.09117299484984914,5750.785486138808
0.09475205302806537,5533.550998502951
0.09847160957933764,5300.417632936707
0.1023371798632519,5057.4393507861
0.10635449574860109,4812.904459355208
0.11052951411260206,4574.95428611403
0.1148684256737553,4350.354271496479
0.1193776641714435,4145.796900127899
0.1240639159058831,3966.2666975096445
0.12893412965257148,3813.540513470702
0.13399552696593373,3685.0746509294777
0.1392556128874462,3573.643584925935
0.14472218707411338,3468.6378768508657
0.15040335536380234,3358.3212148907746
0.15630754179458153,3232.5841765704436
0.16244350109588662,3085.8357471123813
0.16882033167003618,2919.2595296400445
0.17544748908334581,2741.065730555729
0.1823348000868439,2564.2219569267045
0.189492477187382,2402.7474321289246
0.19693113379074215,2267.188294649719
0.20466179993919872,2159.82697338303
0.21269593866686892,2073.0523695858406
0.22104546299710207,1993.2551396406604
0.22972275360711503,1906.5953016839107
0.23874067718606454,1804.0883781596146
0.2481126055137766,1687.4555886341766
0.25785243528842716,1569.1310318700066
0.26797460873256895,1463.6286522781193
0.27849413500806414,1379.0310443555297
0.28942661247167484,1311.8903145824256
0.3007882518043098,1249.3792733796604
0.31259590004822796,1179.586627537605
0.324867065587837,1100.8115147727265
0.3376199441111335,1022.355727852332
0.35087344559027084,954.6071727309543
0.36464722232127456,899.841631988737
0.37896169806447155,850.0721629689527
0.3938380983288488,796.7552971395855
0.4092984818452433,740.685156784784
0.4253657732750382,689.2599356457101
0.44206379720285277,645.724705517382
0.45941731346364734,605.8891663184986
0.47745205385661277,564.9606615441543
0.4961947603002895,524.8121471393224
0.5156732244854959,489.19781380995084
0.5359163290848509,456.97409776509414
0.556954090580013,425.3405288676838
0.5788177037701272,394.971871286052
0.6015395880274836,367.57984619620527
0.6251534353689703,341.97830857955535
0.6496942604146115,317.39663512051237
0.6751984523072497,294.6678753565406
0.7017038286703824,273.61059216799134
0.7292496916841444,253.6968082114885
0.7578768863625915,235.19761038362972
0.7876278611187046,217.98832495036498
0.8185467307069019,201.90904574644995
0.850679341636415,186.91945394252434
0.8840733401525058,172.96161429005028
0.9187782428863317,159.97784018422212
0.9548455102782278,147.90763139042093
0.9923286228832539,136.6918831607727
1.0312831606721837,126.27488639477686
1.0717668854455022,116.60417099427396
1.1138398264826193,107.63034985937087
1.1575643695533022,99.30715481193272
1.2030053494233226,91.5914355910821
1.2502301459914542,84.44256293803551
1.299308784200415,77.82225905346098
1.3503140378698726,71.69449696629232
1.4033215376054824,66.02539664620929
1.4584098829439835,60.78306410191375
1.5156607589006013,55.9375288567196
1.575159057091621,51.46071436290453
1.6369930016117014,47.32634013425279
1.7012542798525885,43.5098249687567
1.7680381784572046,39.9881884262709
1.8374437246107238,36.73994263241982
1.9095738328780953,33.74503180124072
1.9845354578058014,30.9847578999421
2.0624397525140905,28.44169949398144
2.143402233514853,26.099634412007966
2.227542951999554,23.943464311804213
2.314986671851158,21.959144062031815
2.405863054644063,20.1336193031308
2.5003068519063225,18.45476368405165
2.598458104929248,16.911319034108796
2.7004623524206774,15.492838430890853
2.806470846309834,14.189628510445942
2.916640776023701,12.992702276199712
3.031135501567576,11.893735489123241
3.150124795755327,10.885021538909408
3.2737850959485697,9.959428958011896
3.4022997656780634,9.110360759079827
3.5358593665351745,8.331715012053007
3.6746619407366854,7.617853094069963
3.8189133047818515,6.963567601351859
3.968827354637162,6.3640513489976644
4.1246263829013445,5.814868394604049
4.286541408420921,5.311926147482558
4.4548125188449825,4.851450080216853
4.629689226627261,4.429961717104463
4.811430839003257,4.044256703244758
5.000306842491082,3.691384265798574
5.196597302486189,3.3686280675932414
5.400593278542364,3.073488077461599
5.612597255954967,2.8036644152438064
5.8329235942862,2.5570423195082093
6.06189899349756,2.3316778874750383
6.29986297838068,2.1257848477939407
6.547168402004727,1.9377219421660556
6.804181968927091,1.7659809112131517
7.071284778942991,1.6091772725893285
7.348872892180382,1.4660407846781824
7.637357916378006,1.3354063321659684
7.937167617217536,1.216205539082127
8.248746552614573,1.1074600179937721
8.572556731909314,1.0082740111218222
8.909078300934132,0.9178262378389072
9.258810253973934,0.8353638612684763
9.622271173675122,0.7601970106705817
9.999999999999984,0.6916932080073896
