k [1/Mpc],P(k) [Mpc^3]
0.0001,2857.203605371741
0.00010392556829367125,2960.4372331392597
0.00010800523745162529,3067.3709381009808
0.00011224505680853065,3178.133831355454
0.00011665131316981963,3292.8592101762115
0.00012123054013376525,3411.6847272679993
0.00012598952777950273,3534.7522278891233
0.00013093533273536104,3662.2074748617842
0.00013607528864243335,3794.200785881682
0.00014141701702890234,3930.887134677189
0.00014696843861124463,4072.4263015686124
0.00015273778503907136,4218.9827217808825
0.00015873361110102093,4370.724834504086
0.00016496480740980205,4527.825909745431
0.0001714406135851971,4690.463975423109
0.00017817063195457305,4858.821887114926
0.00018516484179121546,5033.087497212744
0.000192433614111598,5213.452770547627
0.00019998772705352857,5400.114551778215
0.0002078383818579757,5593.27417929841
0.00021599721947827182,5793.137107034835
0.0002244763378413224,5999.9136866536755
0.0002332883097864157,6213.81803491833
0.00024244620170823283,6435.068642522799
0.0002519635929317015,6663.888152854759
0.0002618545958474233,6900.502365890856
0.0002721338768375308,7145.14129428103
0.0002828166780230032,7398.037253899685
0.0002939188398646886,7659.425208706117
0.0003054568246515432,7929.543375457756
0.00031744774091091926,8208.631801377915
0.00032990936877709396,8496.93331408587
0.00034286018635565856,8794.691287897132
0.00035631939712285854,9102.149116812609
0.000370306958400514,9419.55144093412
0.00038484361094874304,9747.141791260772
0.0003999509097203664,10085.163678260153
0.00041565125582259895,10433.85919764221
0.00043196792973341727,10793.467599186133
0.0004489251258218605,11164.2262836628
0.0004665479882234472,11546.366860854123
0.000484862648123908,11940.116210869446
0.000503896262506515,12345.69580742497
0.0005236770544204653,12763.318899947566
0.0005442343548300266,13193.192086328732
0.0005655986461065005,13635.51056399639
0.0005878016072274912,14090.45812825491
0.0006108761607505036,14558.206385702488
0.0006348565216305217,15038.907641107091
0.0006597782479539537,15532.699241412542
0.0006856782936641739,16039.698246809063
0.0007125950633568407,16559.99942935445
0.0007405684692262436,17093.676198929836
0.0007696399902471156,17640.768360465
0.0007998527336796708,18201.288140135242
0.000831251498989063,18775.21632500773
0.0008638828442740447,19362.497059052916
0.000897795155303332,19963.04180117167
0.0009330387172620361,20576.717824889667
0.0009696657893145519,21203.351216015468
0.001007730682094461,21842.72484396259
0.0010472898382363582,22494.570035600147
0.0010884019160690055,23158.572998729283
0.0011311278765939214,23834.373933314884
0.001175531073878369,24521.565317905846
0.0012216773489967915,25219.686174151848
0.0012696351276599736,25928.21031738822
0.0013194755216767058,26646.55379169824
0.0013712724343984,27374.063479260505
0.0014251026703029975,28110.014171701503
0.0014810460488806749,28853.61961426451
0.0015391855229902056,29604.03624235617
0.001599607301861487,30360.3593785795
0.0016624009789266115,31121.621689321786
0.0017276596646690358,31886.79317449456
0.0017954801246878305,32654.778644113012
0.0018659629231817451,33424.40440673261
0.001939212572065829,34194.42551703963
0.0020153376859417325,34963.534279049374
0.002094451143151469,35730.3628447821
0.002176670253153458,36493.48321292083
0.002262116930469025,37251.40789695689
0.002350917875457286,38002.592782602005
0.002443204762186487,38745.44293193558
0.0025391144336803463,39478.320728471466
0.002638789104828933,40199.54423420001
0.002742376573264949,40907.370121343476
0.0028500304385181063,41599.99658225236
0.0029619103297725525,42275.59187172064
0.0030781821425650787,42932.31797573112
0.003199018284775064,43568.320945678075
0.0033245979322709396,44181.56821503461
0.003455107294592217,44769.76556430561
0.0035907398910610534,45330.67976212019
0.0037316968377327513,45862.86139077954
0.0038781871456107214,46365.274391417035
0.0040304280305680515,46836.095539760216
0.00418864523543527,47271.6634353265
0.004353073364731888,47668.145866602514
0.00452395623253805,48022.99215838124
0.004701547224022131,48334.61507056304
0.004886109671160325,48601.5240382189
0.005077917243205399,48822.26628152157
0.005277254352483535,48995.46828133133
0.005484416576121017,49119.317523412305
0.005699711094326071,49191.55593731309
0.005923457145875801,49210.00265616758
0.006155986501483508,49172.42019344848
0.006397643955748424,49076.691388682164
0.0066487878384172625,48920.855761802835
0.0069097905457156435,48703.10549779565
0.007181039092537346,48421.85094172721
0.007462935686310132,48075.43528337389
0.007755898323389004,47662.36196757444
0.00806036140886134,47181.33556789915
0.008376776400682916,46631.099651456345
0.008705612479099857,46010.756111220355
0.009047357242349292,45319.2918628139
0.00940251742967013,44555.82902750318
0.009771619672696168,43719.93796384541
0.010155211276345676,42811.319153419805
0.010553861030365234,41830.28924388236
0.010968160052731372,40777.47976915482
0.011398722666160517,39653.907040413585
0.011846187309026826,38461.34275414552
0.012311217482038896,37201.72216686076
0.012794502732078732,35877.811246328194
0.013296759674662111,34493.14680900509
0.013818733056536317,33051.91267885019
0.014361196859990781,31559.39379136858
0.014924955450518284,30021.493946582323
0.015510844769528393,28445.064135213684
0.016119733573881575,26838.066170321996
0.01675252472408214,25209.398839311583
0.017410156523040152,23568.84164674042
0.018093604107387147,21927.127424351544
0.01880388089340914,20295.531432056618
0.019542040079740527,18685.860058250797
0.02030917620904734,17111.06611168028
0.021106426791015535,15583.30592030884
0.021934973989050584,14114.648987312632
0.02279604637318978,12716.346866019203
0.023690920741826323,11398.242493520775
0.02462092401494623,10172.751145345657
0.02558743520168586,9048.696333786243
0.02659188744512693,8031.116021856009
0.027635770147361564,7122.230119471037
0.028720631177978267,6320.795479217797
0.029848079169243254,5627.395341547941
0.03101978590138095,5040.640555241687
0.03223748878149028,4556.526536125498
0.0335029934197723,4170.842542035989
0.03481817630688963,3878.86908425763
0.03618498759642746,3672.3114919201457
0.037605453996581675,3542.8811722160185
0.03908168177536263,3482.5652335222894
0.04061585988376978,3477.45058728745
0.04221026320156896,3515.2032078855045
0.04386725591048496,3585.714875055814
0.0455892949998106,3677.770839459595
0.047378933909631396,3767.061074341262
0.049238826317067365,3822.7682622290413
0.05117173007114603,3820.5699942774854
0.05318051128214196,3742.624442173932
0.05526814857144601,3581.309045989761
0.057437737488265785,3336.5007714389953
0.0596924950997073,3016.173295789427
0.0620357647610427,2638.845218333891
0.06447102107323864,2234.559255822112
0.06700187503509585,1840.7108128991094
0.06963207939763882,1493.4224128575215
0.0723655342286965,1208.77854792759
0.07520629269592405,997.8719236338669
0.07815856707684081,869.6245776895458
0.08122673500479707,811.8287874549203
0.08441534596012978,810.6408677244369
0.0877291280161335,852.6976733326177
0.09117299484984914,918.3915263431651
0.09475205302806537,981.2119650731014
0.09847160957933764,1008.7025061149827
0.1023371798632519,973.4996701450938
0.10635449574860109,872.4282678197698
0.11052951411260206,730.6951183383719
0.1148684256737553,582.3666975784018
0.1193776641714435,457.49005364402154
0.1240639159058831,376.80967533347865
0.12893412965257148,342.9202612637039
0.13399552696593373,345.1013105313692
0.1392556128874462,366.88661325904394
0.14472218707411338,384.995803219251
0.15040335536380234,376.46203709199534
0.15630754179458153,335.368613375947
0.16244350109588662,276.2568304813249
0.16882033167003618,224.28882287409564
0.17544748908334581,193.54327639228288
0.1823348000868439,184.4753690558491
0.189492477187382,187.0755709106505
0.19693113379074215,185.26784056844426
0.20466179993919872,169.9396902979941
0.21269593866686892,145.37929637558722
0.22104546299710207,124.23444955816332
0.22972275360711503,112.95917014357683
0.23874067718606454,108.82525120390804
0.2481126055137766,103.8763168725103
0.25785243528842716,93.86529649815307
0.26797460873256895,82.31136629026427
0.27849413500806414,74.10831419976579
0.28942661247167484,69.28494343408659
0.3007882518043098,64.4176330622051
0.31259590004822796,58.0740753365338
0.324867065587837,52.14007989722082
0.3376199441111335,47.837576734305536
0.35087344559027084,44.0343571713561
0.36464722232127456,39.9256550274913
0.37896169806447155,36.172715070681
0.3938380983288488,33.07970711164718
0.4092984818452433,30.161640866374775
0.4253657732750382,27.370678470467766
0.44206379720285277,24.927417701080753
0.45941731346364734,22.700249294477185
0.47745205385661277,20.62510479481706
0.4961947603002895,18.760089538345575
0.5156732244854959,17.061412841783806
0.5359163290848509,15.51000130874564
0.556954090580013,14.094229947121235
0.5788177037701272,12.803470206560787
0.6015395880274836,11.627731920133769
0.6251534353689703,10.557654533988803
0.6496942604146115,9.584485921112227
0.6751984523072497,8.699825375336326
0.7017038286703824,7.895653052444665
0.7292496916841444,7.164663851329293
0.7578768863625915,6.500222996329654
0.7876278611187046,5.896303076460394
0.8185467307069019,5.347430094122032
0.850679341636415,4.848675959743265
0.8840733401525058,4.395584387079509
0.9187782428863317,3.9840824072855927
0.9548455102782278,3.610447601209163
0.9923286228832539,3.2712793800811597
1.0312831606721837,2.963471623747238
1.0717668854455022,2.6841815436056344
1.1138398264826193,2.4308136066429045
1.1575643695533022,2.2010036676103404
1.2030053494233226,1.9925988858390948
1.2502301459914542,1.803639276512486
1.299308784200415,1.6323409549641106
1.3503140378698726,1.4770812440416958
1.4033215376054824,1.336383817408084
1.4584098829439835,1.2089055057893727
1.5156607589006013,1.0934245758892
1.575159057091621,0.988830011622953
1.6369930016117014,0.8941116707697437
1.7012542798525885,0.8083512285367872
1.7680381784572046,0.7307141745131686
1.8374437246107238,0.6604423703865627
1.9095738328780953,0.5968472060749349
1.9845354578058014,0.5393033538749626
2.0624397525140905,0.4872430276804096
2.143402233514853,0.44015074348849365
2.227542951999554,0.39755870122778614
2.314986671851158,0.3590424721209859
2.405863054644063,0.324217049403571
2.5003068519063225,0.2927332510328998
2.598458104929248,0.26427443449156013
2.7004623524206774,0.23855351278697917
2.806470846309834,0.2153102589258012
2.916640776023701,0.19430883553579859
3.031135501567576,0.175335545682862
3.150124795755327,0.15819678687143635
3.2737850959485697,0.14271718089070545
3.4022997656780634,0.1287378862406606
3.5358593665351745,0.11611507515512096
3.6746619407366854,0.10471853578844344
3.8189133047818515,0.09443040165263891
3.968827354637162,0.08514399670766211
4.1246263829013445,0.07676277507415664
4.286541408420921,0.06919937892312579
4.4548125188449825,0.06237478722905313
4.629689226627261,0.05621753039704243
4.811430839003257,0.05066297752516755
5.000306842491082,0.04565269114975274
5.196597302486189,0.0411338490283979
5.400593278542364,0.037058704186967155
5.612597255954967,0.0333840977962053
5.8329235942862,0.030071023794477698
6.06189899349756,0.027084234275336388
6.29986297838068,0.02439187884726976
6.547168402004727,0.02196516923400206
6.804181968927091,0.019778102017751913
7.071284778942991,0.0178071978378593
7.348872892180382,0.01603125858208754
7.637357916378006,0.014431147706745109
7.937167617217536,0.012989595482349969
8.248746552614573,0.011691026856630166
8.572556731909314,0.010521383570470099
8.909078300934132,0.009467974950316886
9.258810253973934,0.008519346555326561
9.622271173675122,0.007665161208538621
9.999999999999984,0.006896080113806527
