k [1/Mpc],P(k) [Mpc^3]
0.0001,81.52784404067027
0.00010392556829367125,84.97234188934341
0.00010800523745162529,88.56228968428078
0.00011224505680853065,92.30381547704611
0.00011665131316981963,96.20330519657307
0.00012123054013376525,100.26741733549724
0.00012598952777950273,104.50309170432317
0.00013093533273536104,108.91755540639654
0.00013607528864243335,113.51833201042007
0.00014141701702890234,118.31326024825812
0.00014696843861124463,123.31051346322089
0.00015273778503907136,128.51861086474662
0.00015873361110102093,133.94642308014932
0.00016496480740980205,139.60317865584855
0.0001714406135851971,145.49848965268902
0.00017817063195457305,151.6423771050948
0.00018516484179121546,158.04528639757413
0.000192433614111598,164.71809452938268
0.00019998772705352857,171.6721155824836
0.0002078383818579757,178.91912996366662
0.00021599721947827182,186.47140665292304
0.0002244763378413224,194.3417231782278
0.0002332883097864157,202.54338514988095
0.00024244620170823283,211.0902432053635
0.0002519635929317015,219.9967180572651
0.0002618545958474233,229.27781396555486
0.0002721338768375308,238.94913535594586
0.0002828166780230032,249.02692453322663
0.0002939188398646886,259.52808925715505
0.0003054568246515432,270.470228780146
0.00031744774091091926,281.87164777690435
0.00032990936877709396,293.7513669445744
0.00034286018635565856,306.1291717441066
0.00035631939712285854,319.0256336449512
0.000370306958400514,332.4621428530531
0.00038484361094874304,346.4609399938921
0.0003999509097203664,361.04513054390844
0.00041565125582259895,376.23873343934025
0.00043196792973341727,392.0666951472142
0.0004489251258218605,408.5549207014437
0.0004665479882234472,425.73032348939006
0.000484862648123908,443.62083079809145
0.000503896262506515,462.25544207535273
0.0005236770544204653,481.66424184741174
0.0005442343548300266,501.8784157349982
0.0005655986461065005,522.9303289933096
0.0005878016072274912,544.8535448348151
0.0006108761607505036,567.6828768485736
0.0006348565216305217,591.4543956451006
0.0006597782479539537,616.2054080323167
0.0006856782936641739,641.9745717901911
0.0007125950633568407,668.8019180245138
0.0007405684692262436,696.7288999015374
0.0007696399902471156,725.7984086109384
0.0007998527336796708,756.054700872378
0.000831251498989063,787.5435396126671
0.0008638828442740447,820.3121800525801
0.000897795155303332,854.4093969316712
0.0009330387172620361,889.8855639576727
0.0009696657893145519,926.7925614781952
0.001007730682094461,965.1838991619703
0.0010472898382363582,1005.114639843393
0.0010884019160690055,1046.6413341561445
0.0011311278765939214,1089.8221917693595
0.001175531073878369,1134.716844683955
0.0012216773489967915,1181.3864884095524
0.0012696351276599736,1229.8939009915564
0.0013194755216767058,1280.3032923923734
0.0013712724343984,1332.6804750563545
0.0014251026703029975,1387.0924787896035
0.0014810460488806749,1443.6076165399095
0.0015391855229902056,1502.2955823230056
0.001599607301861487,1563.227075477969
0.0016624009789266115,1626.4740700178595
0.0017276596646690358,1692.1094670846828
0.0017954801246878305,1760.2069811858917
0.0018659629231817451,1830.8412554826116
0.001939212572065829,1904.0871484257775
0.0020153376859417325,1980.0200671355926
0.002094451143151469,2058.715670581428
0.002176670253153458,2140.2495006912354
0.002262116930469025,2224.697212671377
0.002350917875457286,2312.1337248642294
0.002443204762186487,2402.6333725672876
0.0025391144336803463,2496.2695254634104
0.002638789104828933,2593.113691105047
0.002742376573264949,2693.2360517457155
0.0028500304385181063,2796.7044628147946
0.0029619103297725525,2903.584341094437
0.0030781821425650787,3013.9384298044133
0.003199018284775064,3127.825325744888
0.0033245979322709396,3245.3001337626297
0.003455107294592217,3366.413269150762
0.0035907398910610534,3491.2099029388264
0.0037316968377327513,3619.730007803187
0.0038781871456107214,3752.0059798721027
0.0040304280305680515,3888.0634678191896
0.00418864523543527,4027.9200267067795
0.004353073364731888,4171.583701977534
0.00452395623253805,4319.053720950612
0.004701547224022131,4470.316648038392
0.004886109671160325,4625.347334471271
0.005077917243205399,4784.108242046864
0.005277254352483535,4946.546770343637
0.005484416576121017,5112.5964756591675
0.005699711094326071,5282.16864953622
0.005923457145875801,5455.153297148311
0.006155986501483508,5631.425864986558
0.006397643955748424,5810.851985565508
0.0066487878384172625,5993.280324628149
0.0069097905457156435,6178.50716931736
0.007181039092537346,6366.271913059656
0.007462935686310132,6556.2886155860115
0.007755898323389004,6748.258802674432
0.00806036140886134,6941.862372609558
0.008376776400682916,7136.751094638054
0.008705612479099857,7332.54724571131
0.009047357242349292,7528.840143204894
0.00940251742967013,7725.145550176285
0.009771619672696168,7920.926449129732
0.010155211276345676,8115.599314628869
0.010553861030365234,8308.518855194823
0.010968160052731372,8498.999331910154
0.011398722666160517,8686.290822137664
0.011846187309026826,8869.589137738769
0.012311217482038896,9048.041363013077
0.012794502732078732,9220.713261126513
0.013296759674662111,9386.62928140091
0.013818733056536317,9544.737033216506
0.014361196859990781,9693.911686461368
0.014924955450518284,9832.992807282697
0.015510844769528393,9960.729207688653
0.016119733573881575,10075.842134491542
0.01675252472408214,10177.003557355378
0.017410156523040152,10262.824018033352
0.018093604107387147,10331.927857969898
0.01880388089340914,10382.881643441031
0.019542040079740527,10414.272840710835
0.02030917620904734,10424.725655085078
0.021106426791015535,10412.867171786254
0.021934973989050584,10377.445565175374
0.02279604637318978,10317.278089614698
0.023690920741826323,10231.318186621387
0.02462092401494623,10118.724636111207
0.02558743520168586,9978.834460769387
0.02659188744512693,9811.266639706617
0.027635770147361564,9615.954873756811
0.028720631177978267,9393.170467884878
0.029848079169243254,9143.569759611522
0.03101978590138095,8868.274921625458
0.03223748878149028,8568.798379942726
0.0335029934197723,8247.219791849247
0.03481817630688963,7906.203163911155
0.03618498759642746,7548.692820007072
0.037605453996581675,7178.195835275526
0.03908168177536263,6798.400922065288
0.04061585988376978,6413.62074307588
0.04221026320156896,6029.227131391662
0.04386725591048496,5650.032591142141
0.0455892949998106,5280.090058658024
0.047378933909631396,4922.708060978804
0.049238826317067365,4581.773750252106
0.05117173007114603,4262.950468883408
0.05318051128214196,3970.539195498225
0.05526814857144601,3707.151404759214
0.057437737488265785,3474.279438471878
0.0596924950997073,3272.741233730416
0.0620357647610427,3102.7404165423454
0.06447102107323864,2963.415376646941
0.06700187503509585,2853.349343945855
0.06963207939763882,2770.173036584708
0.0723655342286965,2710.6100682626798
0.07520629269592405,2670.208758884764
0.07815856707684081,2642.8536695300695
0.08122673500479707,2621.3118239675864
0.08441534596012978,2597.3592253008287
0.0877291280161335,2562.015637687766
0.09117299484984914,2506.4543557811985
0.09475205302806537,2423.636500748933
0.09847160957933764,2309.6079304146056
0.1023371798632519,2164.373887773705
0.10635449574860109,1992.3206219970534
0.11052951411260206,1802.1101599081678
0.1148684256737553,1605.8779009915277
0.1193776641714435,1417.376372494397
0.1240639159058831,1249.4302639815464
0.12893412965257148,1111.8196932846927
0.13399552696593373,1010.2085343349839
0.1392556128874462,946.0515994279745
0.14472218707411338,916.7538013128903
0.15040335536380234,915.4420467651145
0.15630754179458153,930.5538196954677
0.16244350109588662,946.2781809494098
0.16882033167003618,944.9778719030672
0.17544748908334581,912.2161728107216
0.1823348000868439,843.2465919616244
0.189492477187382,746.6772159927681
0.19693113379074215,641.0796004064875
0.20466179993919872,547.0370564954262
0.21269593866686892,480.250527459114
0.22104546299710207,447.2954258735181
0.22972275360711503,443.9330262949671
0.23874067718606454,456.24366441768916
0.2481126055137766,463.9859921661989
0.25785243528842716,448.2300034885136
0.26797460873256895,403.7057577196244
0.27849413500806414,344.0735537801264
0.28942661247167484,292.0252402075113
0.3007882518043098,263.21943530393776
0.31259590004822796,258.204065950934
0.324867065587837,263.8988707763652
0.3376199441111335,260.17454288163947
0.35087344559027084,236.10871471047076
0.36464722232127456,201.50046758373995
0.37896169806447155,175.43407774051775
0.3938380983288488,166.6742552507041
0.4092984818452433,167.2336715585622
0.4253657732750382,160.91679856221077
0.44206379720285277,142.44752231818828
0.45941731346364734,123.65365968349762
0.47745205385661277,115.37630245869144
0.4961947603002895,113.32453350017822
0.5156732244854959,106.09232173279952
0.5359163290848509,93.36504262366368
0.556954090580013,84.72353570219798
0.5788177037701272,81.46357617375274
0.6015395880274836,76.03866078432503
0.6251534353689703,67.78480955356058
0.6496942604146115,62.5670217520127
0.6751984523072497,59.20349420516379
0.7017038286703824,53.89064184600905
0.7292496916841444,48.84125183077857
0.7578768863625915,44.891647261477644
0.7876278611187046,41.59739550688667
0.8185467307069019,38.56152675217163
0.850679341636415,35.628041045606324
0.8840733401525058,32.82475904065173
0.9187782428863317,30.178676310929596
0.9548455102782278,27.707990048991153
0.9923286228832539,25.423375568780653
1.0312831606721837,23.328510389497325
1.0717668854455022,21.412211887779105
1.1138398264826193,19.65623048423873
1.1575643695533022,18.044426859622536
1.2030053494233226,16.56265952945033
1.2502301459914542,15.198514965646341
1.299308784200415,13.941266783482705
1.3503140378698726,12.782830336107823
1.4033215376054824,11.716349114164332
1.4584098829439835,10.735320488474875
1.5156607589006013,9.833589929621652
1.575159057091621,9.005347601578721
1.6369930016117014,8.245074432752494
1.7012542798525885,7.547379538477538
1.7680381784572046,6.9072184752514145
1.8374437246107238,6.319947511772702
1.9095738328780953,5.781292033986302
1.9845354578058014,5.2873174301865955
2.0624397525140905,4.834413515799731
2.143402233514853,4.419286967343937
2.227542951999554,4.038901776984469
2.314986671851158,3.6904535426611518
2.405863054644063,3.3713530873975377
2.5003068519063225,3.0792110773070176
2.598458104929248,2.811819958152494
2.7004623524206774,2.56713865736029
2.806470846309834,2.3432882440061658
2.916640776023701,2.138540462047971
3.031135501567576,1.9513060973379919
3.150124795755327,1.7801242258984191
3.2737850959485697,1.6236531283374236
3.4022997656780634,1.4806609279738652
3.5358593665351745,1.3500156621672512
3.6746619407366854,1.230677425201397
3.8189133047818515,1.1216911840091548
3.968827354637162,1.0221800918461688
4.1246263829013445,0.9313388078575348
4.286541408420921,0.8484281047378631
4.4548125188449825,0.7727701614502912
4.629689226627261,0.7037436372481842
4.811430839003257,0.6407791078196285
5.000306842491082,0.5833548668346792
5.196597302486189,0.5309931293929341
5.400593278542364,0.48325637702870855
5.612597255954967,0.43974400095897076
5.8329235942862,0.4000892783540736
6.06189899349756,0.3639565881400885
6.29986297838068,0.3310388186512552
6.547168402004727,0.3010548834454815
6.804181968927091,0.27374771358849603
7.071284778942991,0.2488823235689458
7.348872892180382,0.226243957801379
7.637357916378006,0.2056363883551412
7.937167617217536,0.18688041040070136
8.248746552614573,0.16981253558580206
8.572556731909314,0.15428344332073393
8.909078300934132,0.14015673122834107
9.258810253973934,0.12730782869381854
9.622271173675122,0.11562299786619554
9.999999999999984,0.10499819615809172
