k [1/Mpc],P(k) [Mpc^3]
0.0001,116.40327476534502
0.00010392556829367125,120.97209129141685
0.00010800523745162529,125.72017489248839
0.00011224505680853065,130.6545588876363
0.00011665131316981963,135.78254887281003
0.00012123054013376525,141.11172961081633
0.00012598952777950273,146.64998145737982
0.00013093533273536104,152.40549307826402
0.00013607528864243335,158.38677331044494
0.00014141701702890234,164.60266445927817
0.00014696843861124463,171.06235806817992
0.00015273778503907136,177.7754056782397
0.00015873361110102093,184.75172620376367
0.00016496480740980205,192.00161898931245
0.0001714406135851971,199.53578459403192
0.00017817063195457305,207.365342562398
0.00018516484179121546,215.50184641014053
0.000192433614111598,223.9572964148022
0.00019998772705352857,232.74415383623642
0.0002078383818579757,241.87536360942295
0.00021599721947827182,251.3643756020796
0.0002244763378413224,261.2251634783887
0.0002332883097864157,271.47224119435936
0.00024244620170823283,282.12067827917036
0.0002519635929317015,293.18612584699184
0.0002618545958474233,304.68482496574563
0.0002721338768375308,316.6336267604826
0.0002828166780230032,329.0500333425075
0.0002939188398646886,341.9522416345062
0.0003054568246515432,355.35915751654846
0.00031744774091091926,369.2903944694112
0.00032990936877709396,383.76628206742544
0.00034286018635565856,398.80792332864144
0.00035631939712285854,414.43723358980225
0.000370306958400514,430.67696865267993
0.00038484361094874304,447.55073529761
0.0003999509097203664,465.08298756632246
0.00041565125582259895,483.29909405068025
0.00043196792973341727,502.22539489774164
0.0004489251258218605,521.8892389369613
0.0004665479882234472,542.3189916658529
0.000484862648123908,563.5440043002702
0.000503896262506515,585.5946943824545
0.0005236770544204653,608.50260696899
0.0005442343548300266,632.3004543180627
0.0005655986461065005,657.0221501385496
0.0005878016072274912,682.7027899096086
0.0006108761607505036,709.3787134141477
0.0006348565216305217,737.0875706750633
0.0006597782479539537,765.8683470100193
0.0006856782936641739,795.7614240819842
0.0007125950633568407,826.8085480221738
0.0007405684692262436,859.0528688958534
0.0007696399902471156,892.5390489046413
0.0007998527336796708,927.3132879519676
0.000831251498989063,963.4233881513649
0.0008638828442740447,1000.9187329444502
0.000897795155303332,1039.8502804131856
0.0009330387172620361,1080.2707004316949
0.0009696657893145519,1122.2343522237697
0.001007730682094461,1165.7973634609625
0.0010472898382363582,1211.017628334665
0.0010884019160690055,1257.9546878444412
0.0011311278765939214,1306.6699478029445
0.001175531073878369,1357.2266922617443
0.0012216773489967915,1409.6901271903423
0.0012696351276599736,1464.1273897456979
0.0013194755216767058,1520.6072451063794
0.0013712724343984,1579.2003655818403
0.0014251026703029975,1639.9793700200526
0.0014810460488806749,1703.0187905086245
0.0015391855229902056,1768.3951584032118
0.001599607301861487,1836.186492250765
0.0016624009789266115,1906.4725312437283
0.0017276596646690358,1979.3349127501713
0.0017954801246878305,2054.8570084080584
0.0018659629231817451,2133.1240807087133
0.001939212572065829,2214.2227274238335
0.0020153376859417325,2298.240871298957
0.002094451143151469,2385.2680654846445
0.002176670253153458,2475.3950634041653
0.002262116930469025,2568.7140655390394
0.002350917875457286,2665.318230340589
0.002443204762186487,2765.3012903111216
0.0025391144336803463,2868.758019454338
0.002638789104828933,2975.7834928741518
0.002742376573264949,3086.4732747791268
0.0028500304385181063,3200.9231501077124
0.0029619103297725525,3319.228254729118
0.0030781821425650787,3441.483688071988
0.003199018284775064,3567.783674951588
0.0033245979322709396,3698.221410715828
0.003455107294592217,3832.8890477268196
0.0035907398910610534,3971.8761897899803
0.0037316968377327513,4115.27058295507
0.0038781871456107214,4263.157272753359
0.0040304280305680515,4415.617833916685
0.00418864523543527,4572.730788043876
0.004353073364731888,4734.569484493222
0.00452395623253805,4901.202549427813
0.004701547224022131,5072.693410189267
0.004886109671160325,5249.098601345946
0.005077917243205399,5430.468605970993
0.005277254352483535,5616.845167477249
0.005484416576121017,5808.260999530779
0.005699711094326071,6004.740434743655
0.005923457145875801,6206.297349640766
0.006155986501483508,6412.935662952819
0.006397643955748424,6624.644695144582
0.0066487878384172625,6841.396632810374
0.0069097905457156435,7063.15184942027
0.007181039092537346,7289.866513908158
0.007462935686310132,7521.487819706093
0.007755898323389004,7757.932293007344
0.00806036140886134,7999.062508665452
0.008376776400682916,8244.717031075852
0.008705612479099857,8494.741598175664
0.009047357242349292,8748.98407418438
0.00940251742967013,9007.262452824853
0.009771619672696168,9269.327902150042
0.010155211276345676,9534.895525453276
0.010553861030365234,9803.676437019396
0.010968160052731372,10075.384997924273
0.011398722666160517,10349.708481370531
0.011846187309026826,10626.27039430973
0.012311217482038896,10904.649607394445
0.012794502732078732,11184.39047379296
0.013296759674662111,11464.997550611864
0.013818733056536317,11745.943126999851
0.014361196859990781,12026.668130029484
0.014924955450518284,12306.582780431654
0.015510844769528393,12585.061934420379
0.016119733573881575,12861.430993074919
0.01675252472408214,13134.981088316094
0.017410156523040152,13404.969105041095
0.018093604107387147,13670.618182801496
0.01880388089340914,13931.124690981418
0.019542040079740527,14185.655081834242
0.02030917620904734,14433.352599788834
0.021106426791015535,14673.341523828116
0.021934973989050584,14904.729202727505
0.02279604637318978,15126.613611474562
0.023690920741826323,15338.09945694984
0.02462092401494623,15538.299222657055
0.02558743520168586,15726.337323014379
0.02659188744512693,15901.371569370633
0.027635770147361564,16062.582158387773
0.028720631177978267,16209.20749046966
0.029848079169243254,16340.553872399732
0.03101978590138095,16455.974852427313
0.03223748878149028,16554.929202241936
0.0335029934197723,16636.945001810458
0.03481817630688963,16701.654975752936
0.03618498759642746,16748.845655072022
0.037605453996581675,16778.37012443154
0.03908168177536263,16790.147046095586
0.04061585988376978,16784.157489279583
0.04221026320156896,16760.524021939324
0.04386725591048496,16719.688349814987
0.0455892949998106,16662.173033247735
0.047378933909631396,16588.05422262201
0.049238826317067365,16496.95460928483
0.05117173007114603,16388.78649656822
0.05318051128214196,16264.893096364598
0.05526814857144601,16127.090584179783
0.057437737488265785,15976.223718606838
0.0596924950997073,15811.518865956788
0.0620357647610427,15632.118445538474
0.06447102107323864,15437.191667224046
0.06700187503509585,15225.978218408785
0.06963207939763882,14998.102157311037
0.0723655342286965,14754.060653068436
0.07520629269592405,14494.582866853649
0.07815856707684081,14220.769398508895
0.08122673500479707,13933.964442846313
0.08441534596012978,13635.282798482893
0.0877291280161335,13325.530259738794
0.09117299484984914,13005.843320557362
0.09475205302806537,12677.914539057025
0.09847160957933764,12344.03370676514
0.1023371798632519,12007.160344386184
0.10635449574860109,11669.599696349827
0.11052951411260206,11332.776058118585
0.1148684256737553,10996.392640534068
0.1193776641714435,10659.884108107912
0.1240639159058831,10323.240736013324
0.12893412965257148,9987.462618459502
0.13399552696593373,9651.572967249525
0.1392556128874462,9312.73242258567
0.14472218707411338,8970.365265224747
0.15040335536380234,8626.035924385413
0.15630754179458153,8282.987681538056
0.16244350109588662,7945.663623730429
0.16882033167003618,7617.301946807879
0.17544748908334581,7299.051803963922
0.1823348000868439,6989.832163634449
0.189492477187382,6687.221148034274
0.19693113379074215,6389.593547237399
0.20466179993919872,6097.137228980443
0.21269593866686892,5810.53662663757
0.22104546299710207,5530.919173458052
0.22972275360711503,5260.465095298503
0.23874067718606454,5000.145025054911
0.2481126055137766,4748.578774604839
0.25785243528842716,4504.995523804394
0.26797460873256895,4269.542609225701
0.27849413500806414,4042.288466037986
0.28942661247167484,3823.850600506196
0.3007882518043098,3614.132696332942
0.31259590004822796,3412.798006049574
0.324867065587837,3219.953872827734
0.3376199441111335,3035.6730113443355
0.35087344559027084,2859.404968467137
0.36464722232127456,2690.734633437993
0.37896169806447155,2530.0915704933905
0.3938380983288488,2377.4278765360104
0.4092984818452433,2232.0935466185
0.4253657732750382,2093.8032718192003
0.44206379720285277,1962.8164671493168
0.45941731346364734,1838.668435000084
0.47745205385661277,1720.9531047211588
0.4961947603002895,1609.7935946839673
0.5156732244854959,1504.7205577447016
0.5359163290848509,1405.445255938458
0.556954090580013,1311.9529444983423
0.5788177037701272,1223.7296829759875
0.6015395880274836,1140.7549251154885
0.6251534353689703,1062.6695424720895
0.6496942604146115,989.3047263935516
0.6751984523072497,920.4418217302068
0.7017038286703824,855.8456413301863
0.7292496916841444,795.3230578780298
0.7578768863625915,738.6589383653787
0.7876278611187046,685.6214263938938
0.8185467307069019,636.0570856982627
0.850679341636415,589.7099214730398
0.8840733401525058,546.4576656018746
0.9187782428863317,506.10477776791765
0.9548455102782278,468.4939233613903
0.9923286228832539,433.45005633069695
1.0312831606721837,400.827716543653
1.0717668854455022,370.4781030749119
1.1138398264826193,342.26083300442434
1.1575643695533022,316.04249988382367
1.2030053494233226,291.69646639688585
1.2502301459914542,269.1026719157228
1.299308784200415,248.14743249921398
1.3503140378698726,228.72324507436633
1.4033215376054824,210.72855409737502
1.4584098829439835,194.0675213805947
1.5156607589006013,178.64980355909026
1.575159057091621,164.39032813829408
1.6369930016117014,151.2090198177644
1.7012542798525885,139.03042993308716
1.7680381784572046,127.78373738037011
1.8374437246107238,117.40259060126927
1.9095738328780953,107.8248763708176
1.9845354578058014,98.9924956718687
2.0624397525140905,90.85115604892145
2.143402233514853,83.3501751539411
2.227542951999554,76.4422510853705
2.314986671851158,70.08326537729695
2.405863054644063,64.23209944771203
2.5003068519063225,58.85045831445071
2.598458104929248,53.90266987196052
2.7004623524206774,49.35550995910481
2.806470846309834,45.17811796356009
2.916640776023701,41.341852880939214
3.031135501567576,37.82014901006047
3.150124795755327,34.588379675586566
3.2737850959485697,31.623732194625752
3.4022997656780634,28.905085776757133
3.5358593665351745,26.412891535773763
3.6746619407366854,24.129065000268177
3.8189133047818515,22.03688535059549
3.968827354637162,20.120899921684664
4.1246263829013445,18.366823480166534
4.286541408420921,16.761461972607464
4.4548125188449825,15.292646682414968
4.629689226627261,13.949159818946422
4.811430839003257,12.720664657651575
5.000306842491082,11.597640402453539
5.196597302486189,10.571321626149354
5.400593278542364,9.63364152760999
5.612597255954967,8.777179141780504
5.8329235942862,7.995110371817422
6.06189899349756,7.28116246429567
6.29986297838068,6.629570812684528
6.547168402004727,6.035035918731581
6.804181968927091,5.492691934722036
7.071284778942991,4.998074724737364
7.348872892180382,4.547090022111905
7.637357916378006,4.1359839789673165
7.937167617217536,3.7613175569650843
8.248746552614573,3.4199448145964007
8.572556731909314,3.1089833529172837
8.909078300934132,2.8257917588331227
9.258810253973934,2.5679503862084245
9.622271173675122,2.333243552064009
9.999999999999984,2.119636997591639
