k [1/Mpc],P(k) [Mpc^3]
0.0001,357.6243672214348
0.00010392556829367125,369.5185105686992
0.00010800523745162529,381.8079180489472
0.00011224505680853065,394.505657962103
0.00011665131316981963,407.6252278033818
0.00012123054013376525,421.1805940836571
0.00012598952777950273,435.18619521167915
0.00013093533273536104,449.6569361421349
0.00013607528864243335,464.6081917675035
0.00014141701702890234,480.0558380227297
0.00014696843861124463,496.01626633412525
0.00015273778503907136,512.5064012440489
0.00015873361110102093,529.5437182961953
0.00016496480740980205,547.146257178686
0.0001714406135851971,565.3326441583673
0.00017817063195457305,584.1221078998925
0.00018516484179121546,603.5344982267881
0.000192433614111598,623.590299346921
0.00019998772705352857,644.3106062268776
0.0002078383818579757,665.7171751317643
0.00021599721947827182,687.8324743112995
0.0002244763378413224,710.679715457762
0.0002332883097864157,734.2828522906939
0.00024244620170823283,758.666558409579
0.0002519635929317015,783.856269300128
0.0002618545958474233,809.87820992198
0.0002721338768375308,836.75939400172
0.0002828166780230032,864.5276769127727
0.0002939188398646886,893.2117629450876
0.0003054568246515432,922.8412341128815
0.00031744774091091926,953.4465721679055
0.00032990936877709396,985.0591311890563
0.00034286018635565856,1017.7112098326589
0.00035631939712285854,1051.4360566623748
0.000370306958400514,1086.2678884974805
0.00038484361094874304,1122.2419325612268
0.0003999509097203664,1159.3943595014355
0.00041565125582259895,1197.7623700567253
0.00043196792973341727,1237.3842157458428
0.0004489251258218605,1278.299191991993
0.0004665479882234472,1320.547707879428
0.000484862648123908,1364.171195876575
0.000503896262506515,1409.212183739611
0.0005236770544204653,1455.7143366696616
0.0005442343548300266,1503.7224004697125
0.0005655986461065005,1553.282309051521
0.0005878016072274912,1604.4410794329992
0.0006108761607505036,1657.246843697482
0.0006348565216305217,1711.7489219222966
0.0006597782479539537,1767.9976619035494
0.0006856782936641739,1826.04460411499
0.0007125950633568407,1885.942454686532
0.0007405684692262436,1947.745066909477
0.0007696399902471156,2011.5074804739731
0.0007998527336796708,2077.2855174587175
0.000831251498989063,2145.136028184386
0.0008638828442740447,2215.11702037329
0.000897795155303332,2287.2876175918454
0.0009330387172620361,2361.7080584104533
0.0009696657893145519,2438.439037857504
0.001007730682094461,2517.541897812128
0.0010472898382363582,2599.07885261211
0.0010884019160690055,2683.112701622315
0.0011311278765939214,2769.707045865541
0.001175531073878369,2858.925666197237
0.0012216773489967915,2950.832466715922
0.0012696351276599736,3045.491762283909
0.0013194755216767058,3142.9675633743404
0.0013712724343984,3243.3240012262013
0.0014251026703029975,3346.6247097334185
0.0014810460488806749,3452.932378736216
0.0015391855229902056,3562.309356354065
0.001599607301861487,3674.8166969261697
0.0016624009789266115,3790.514497502526
0.0017276596646690358,3909.4615070360146
0.0017954801246878305,4031.7142190881964
0.0018659629231817451,4157.327618244166
0.001939212572065829,4286.353809873134
0.0020153376859417325,4418.84214818994
0.002094451143151469,4554.839259332859
0.002176670253153458,4694.387462382965
0.002262116930469025,4837.5258009363515
0.002350917875457286,4984.289140089986
0.002443204762186487,5134.707789413345
0.0025391144336803463,5288.807522671792
0.002638789104828933,5446.607044149631
0.002742376573264949,5608.119248295718
0.0028500304385181063,5773.350544199775
0.0029619103297725525,5942.299841216233
0.0030781821425650787,6114.959122012179
0.003199018284775064,6291.310206776773
0.0033245979322709396,6471.325732748051
0.003455107294592217,6654.968941646377
0.0035907398910610534,6842.191587699421
0.0037316968377327513,7032.935380286861
0.0038781871456107214,7227.128497447112
0.0040304280305680515,7424.685765583881
0.00418864523543527,7625.5090258224645
0.004353073364731888,7829.482804582524
0.00452395623253805,8036.477404232154
0.004701547224022131,8246.346865013884
0.004886109671160325,8458.928055203458
0.005077917243205399,8674.03969682764
0.005277254352483535,8891.467565892257
0.005484416576121017,9110.974129609764
0.005699711094326071,9332.317581200472
0.005923457145875801,9555.261752921486
0.006155986501483508,9779.547336298272
0.006397643955748424,10004.810009033607
0.0066487878384172625,10230.614387401865
0.0069097905457156435,10456.527428247256
0.007181039092537346,10682.167131824795
0.007462935686310132,10907.139385786366
0.007755898323389004,11130.953614407332
0.00806036140886134,11353.033200884292
0.008376776400682916,11572.786687722219
0.008705612479099857,11789.652165480586
0.009047357242349292,12003.05915359578
0.00940251742967013,12212.360133349948
0.009771619672696168,12416.817364312774
0.010155211276345676,12615.661328607412
0.010553861030365234,12808.06886349231
0.010968160052731372,12993.185028532149
0.011398722666160517,13170.11561680968
0.011846187309026826,13337.912206728784
0.012311217482038896,13495.607312872226
0.012794502732078732,13642.178600960355
0.013296759674662111,13776.57438517279
0.013818733056536317,13897.717382677514
0.014361196859990781,14004.459285938712
0.014924955450518284,14095.653889033238
0.015510844769528393,14170.124720654077
0.016119733573881575,14226.683436235297
0.01675252472408214,14264.169247775826
0.017410156523040152,14281.393501740738
0.018093604107387147,14277.220330484934
0.01880388089340914,14250.555822583736
0.019542040079740527,14200.35056554272
0.02030917620904734,14125.670919996885
0.021106426791015535,14025.668610335208
0.021934973989050584,13899.636816522869
0.02279604637318978,13747.045208075398
0.023690920741826323,13567.549031696568
0.02462092401494623,13361.025704296173
0.02558743520168586,13127.647750990085
0.02659188744512693,12867.863274935573
0.027635770147361564,12582.422065714672
0.028720631177978267,12272.48969604053
0.029848079169243254,11939.49282477382
0.03101978590138095,11585.406014233462
0.03223748878149028,11212.66052565981
0.0335029934197723,10823.851119194533
0.03481817630688963,10421.975271343883
0.03618498759642746,10010.098485136954
0.037605453996581675,9592.227784769631
0.03908168177536263,9173.461940479585
0.04061585988376978,8758.27396773408
0.04221026320156896,8349.657876901008
0.04386725591048496,7949.812720272946
0.0455892949998106,7562.052165670512
0.047378933909631396,7192.020722518641
0.049238826317067365,6844.486699334744
0.05117173007114603,6522.319025269402
0.05318051128214196,6227.231398174327
0.05526814857144601,5959.9437111370235
0.057437737488265785,5720.372363120778
0.0596924950997073,5507.468611425561
0.0620357647610427,5319.17773541379
0.06447102107323864,5152.602681262807
0.06700187503509585,5004.004344882676
0.06963207939763882,4868.547845276501
0.0723655342286965,4740.597115621993
0.07520629269592405,4613.41059788492
0.07815856707684081,4479.587695771807
0.08122673500479707,4331.81299707912
0.08441534596012978,4165.183362057984
0.0877291280161335,3975.9165142530424
0.09117299484984914,3762.4086297779477
0.09475205302806537,3527.285928310916
0.09847160957933764,3276.6577293698924
0.1023371798632519,3019.3053707637355
0.10635449574860109,2765.932245890732
0.11052951411260206,2528.131187846773
0.1148684256737553,2316.541653406437
0.1193776641714435,2138.9916472699597
0.1240639159058831,1999.0709456968061
0.12893412965257148,1895.402010780345
0.13399552696593373,1821.9110758836573
0.1392556128874462,1768.6356990079314
0.14472218707411338,1722.7239858086245
0.15040335536380234,1670.1571557572918
0.15630754179458153,1598.7586460338448
0.16244350109588662,1501.8535112136324
0.16882033167003618,1381.144085363188
0.17544748908334581,1247.429357867558
0.1823348000868439,1117.6131390312096
0.189492477187382,1007.851077589068
0.19693113379074215,927.1229995397925
0.20466179993919872,875.4685668245021
0.21269593866686892,844.8239816709099
0.22104546299710207,820.1133355490423
0.22972275360711503,784.8554171867252
0.23874067718606454,730.2304038968463
0.2481126055137766,660.0200139776523
0.25785243528842716,588.4202754220562
0.26797460873256895,530.773553929347
0.27849413500806414,493.7887119031216
0.28942661247167484,472.40230323484764
0.3007882518043098,452.92785892987763
0.31259590004822796,423.34585734160726
0.324867065587837,383.09742799361567
0.3376199441111335,342.91347068174105
0.35087344559027084,313.48864788366404
0.36464722232127456,295.4976590476851
0.37896169806447155,279.87607607178705
0.3938380983288488,258.35738377227943
0.4092984818452433,232.96099004055597
0.4253657732750382,211.72425442105293
0.44206379720285277,197.48160654717742
0.45941731346364734,184.75015082894146
0.47745205385661277,169.06050051682146
0.4961947603002895,153.23031610232175
0.5156732244854959,141.2495046228205
0.5359163290848509,131.22716342045854
0.556954090580013,120.1126446469095
0.5788177037701272,109.4021277675146
0.6015395880274836,100.83949250938744
0.6251534353689703,92.80318498038078
0.6496942604146115,84.64849837239993
0.6751984523072497,77.6125347730784
0.7017038286703824,71.2689973928833
0.7292496916841444,65.09969412886211
0.7578768863625915,59.517441029381295
0.7876278611187046,54.463558801666146
0.8185467307069019,49.84508128520369
0.850679341636415,45.59252511945071
0.8840733401525058,41.67423795957181
0.9187782428863317,38.06985191231343
0.9548455102782278,34.75930965357097
0.9923286228832539,31.723015823081568
1.0312831606721837,28.941970487639164
1.0717668854455022,26.397355313827145
1.1138398264826193,24.06980376145341
1.1575643695533022,21.941189849601766
1.2030053494233226,19.994888196556204
1.2502301459914542,18.215648982398243
1.299308784200415,16.58948464146765
1.3503140378698726,15.1036586437458
1.4033215376054824,13.746617380355925
1.4584098829439835,12.507711700426215
1.5156607589006013,11.377114586957765
1.575159057091621,10.345764122251984
1.6369930016117014,9.405308756678224
1.7012542798525885,8.548035374829839
1.7680381784572046,7.766830554605644
1.8374437246107238,7.055163019104686
1.9095738328780953,6.407039712918
1.9845354578058014,5.816963726583386
2.0624397525140905,5.279895537016106
2.143402233514853,4.791219100275265
2.227542951999554,4.346706334362172
2.314986671851158,3.9424843564427223
2.405863054644063,3.575007113830164
2.5003068519063225,3.241029153282251
2.598458104929248,2.9375811276152115
2.7004623524206774,2.661946463294945
2.806470846309834,2.4116418870872987
2.916640776023701,2.1843987183568703
3.031135501567576,1.978145076614921
3.150124795755327,1.790989486074077
3.2737850959485697,1.6212056393931122
3.4022997656780634,1.4672182893631138
3.5358593665351745,1.3275909266733734
3.6746619407366854,1.2010140754407954
3.8189133047818515,1.0862944418593221
3.968827354637162,0.9823449486857077
4.1246263829013445,0.88817547747378
4.286541408420921,0.8028844476506316
4.4548125188449825,0.7256513540583474
4.629689226627261,0.6557297133039022
4.811430839003257,0.5924405787754341
5.000306842491082,0.5351666020584902
5.196597302486189,0.4833465652845255
5.400593278542364,0.4364704257043084
5.612597255954967,0.3940748143977652
5.8329235942862,0.3557388772689707
6.06189899349756,0.3210804730293914
6.29986297838068,0.2897526883973731
6.547168402004727,0.26144055791782705
6.804181968927091,0.2358582728449541
7.071284778942991,0.21274662843715664
7.348872892180382,0.19187059998270473
7.637357916378006,0.17301713303298694
7.937167617217536,0.1559931652282177
8.248746552614573,0.140623929172805
8.572556731909314,0.1267510922303173
8.909078300934132,0.11423117436966025
9.258810253973934,0.10293418906737273
9.622271173675122,0.09274240477676221
9.999999999999984,0.08354906645751366
