k [1/Mpc],P(k) [Mpc^3]
0.0001,142.10888374391726
0.00010392556829367125,148.1088813100873
0.00010800523745162529,154.36174391613895
0.00011224505680853065,160.87806759962515
0.00011665131316981963,167.66887627221735
0.00012123054013376525,174.74565146125613
0.00012598952777950273,182.12035862526017
0.00013093533273536104,189.8054605942813
0.00013607528864243335,197.81392073724783
0.00014141701702890234,206.15921708588604
0.00014696843861124463,214.85537926102586
0.00015273778503907136,223.9170129439023
0.00015873361110102093,233.3593220791296
0.00016496480740980205,243.19811823328672
0.0001714406135851971,253.44982916167106
0.00017817063195457305,264.131544276501
0.00018516484179121546,275.2610437198051
0.000192433614111598,286.8568251388321
0.00019998772705352857,298.9381166694692
0.0002078383818579757,311.5248718231552
0.00021599721947827182,324.6378275192243
0.0002244763378413224,338.2985200218786
0.0002332883097864157,352.5293117684437
0.00024244620170823283,367.35343602092865
0.0002519635929317015,382.7950098392415
0.0002618545958474233,398.8790785316556
0.0002721338768375308,415.6316109798885
0.0002828166780230032,433.0795016505629
0.0002939188398646886,451.25065255829026
0.0003054568246515432,470.1739692523609
0.00031744774091091926,489.8794117267311
0.00032990936877709396,510.3980147502325
0.00034286018635565856,531.7618669975727
0.00035631939712285854,554.0042027400525
0.000370306958400514,577.1593855917786
0.00038484361094874304,601.2629471828179
0.0003999509097203664,626.3516252926574
0.00041565125582259895,652.4632772179573
0.00043196792973341727,679.6370052575573
0.0004489251258218605,707.9131586826597
0.0004665479882234472,737.3333413658959
0.000484862648123908,767.9404778514682
0.000503896262506515,799.7787005428187
0.0005236770544204653,832.8934519847267
0.0005442343548300266,867.3314569674044
0.0005655986461065005,903.140631226104
0.0005878016072274912,940.370243484411
0.0006108761607505036,979.0708390780313
0.0006348565216305217,1019.2942814444993
0.0006597782479539537,1061.0936942684423
0.0006856782936641739,1104.5231868781225
0.0007125950633568407,1149.6381067334833
0.0007405684692262436,1196.4948933181236
0.0007696399902471156,1245.1510442178949
0.0007998527336796708,1295.6651468695466
0.000831251498989063,1348.0963967778935
0.0008638828442740447,1402.5048655364374
0.000897795155303332,1458.9512439800424
0.0009330387172620361,1517.4965623714488
0.0009696657893145519,1578.2024552000958
0.001007730682094461,1641.130499347583
0.0010472898382363582,1706.3423786989085
0.0010884019160690055,1773.899698645391
0.0011311278765939214,1843.8633380963954
0.001175531073878369,1916.2938779326714
0.0012216773489967915,1991.2509635307094
0.0012696351276599736,2068.79320267537
0.0013194755216767058,2148.9780694646106
0.0013712724343984,2231.86084644655
0.0014251026703029975,2317.4950864897687
0.0014810460488806749,2405.9317974075166
0.0015391855229902056,2497.2189377305413
0.001599607301861487,2591.401732600604
0.0016624009789266115,2688.521539235607
0.0017276596646690358,2788.616022400893
0.0017954801246878305,2891.7186455053707
0.0018659629231817451,2997.8578513724055
0.001939212572065829,3107.057247914981
0.0020153376859417325,3219.3340979995
0.002094451143151469,3334.6992734661903
0.002176670253153458,3453.1570578244346
0.002262116930469025,3574.7038748008704
0.002350917875457286,3699.3286140286855
0.002443204762186487,3827.0110452811086
0.0025391144336803463,3957.7212979712685
0.002638789104828933,4091.420028371822
0.002742376573264949,4228.056510704537
0.0028500304385181063,4367.569197603148
0.0029619103297725525,4509.884425855714
0.0030781821425650787,4654.915281458157
0.003199018284775064,4802.562224549567
0.0033245979322709396,4952.710350037468
0.003455107294592217,5105.230118371115
0.0035907398910610534,5259.97741640967
0.0037316968377327513,5416.792389254094
0.0038781871456107214,5575.498928665612
0.0040304280305680515,5735.889506085622
0.00418864523543527,5897.72781350758
0.004353073364731888,6060.772660964725
0.00452395623253805,6224.814077949688
0.004701547224022131,6389.636604685621
0.004886109671160325,6554.916810930592
0.005077917243205399,6720.205331648837
0.005277254352483535,6885.040223129926
0.005484416576121017,7049.063365282903
0.005699711094326071,7211.946183617431
0.005923457145875801,7373.279405918373
0.006155986501483508,7532.521128435374
0.006397643955748424,7689.103112422875
0.0066487878384172625,7842.5216540575475
0.0069097905457156435,7992.30694565109
0.007181039092537346,8137.936711199719
0.007462935686310132,8278.763398124891
0.007755898323389004,8414.10446639349
0.00806036140886134,8543.241075991155
0.008376776400682916,8665.424239374932
0.008705612479099857,8779.891666280731
0.009047357242349292,8885.85443840191
0.00940251742967013,8982.518434072239
0.009771619672696168,9069.04911485013
0.010155211276345676,9144.562408870997
0.010553861030365234,9208.179512707422
0.010968160052731372,9258.978648244249
0.011398722666160517,9296.04467397481
0.011846187309026826,9318.46554522743
0.012311217482038896,9325.299997639577
0.012794502732078732,9315.662006850967
0.013296759674662111,9288.666886246998
0.013818733056536317,9243.477814783706
0.014361196859990781,9179.342760958509
0.014924955450518284,9095.535641563261
0.015510844769528393,8991.467663048647
0.016119733573881575,8866.659085100247
0.01675252472408214,8720.761727146742
0.017410156523040152,8553.636086805582
0.018093604107387147,8365.311123983127
0.01880388089340914,8156.055717365938
0.019542040079740527,7926.4114475564065
0.02030917620904734,7677.196722518501
0.021106426791015535,7409.525206524781
0.021934973989050584,7124.893677066345
0.02279604637318978,6825.095940110116
0.023690920741826323,6512.262585516316
0.02462092401494623,6188.970868844218
0.02558743520168586,5857.932221669549
0.02659188744512693,5522.33058467238
0.027635770147361564,5185.54817387536
0.028720631177978267,4850.928468231182
0.029848079169243254,4522.292349254728
0.03101978590138095,4203.04816170011
0.03223748878149028,3896.7246313392598
0.0335029934197723,3606.8755733456796
0.03481817630688963,3336.1942130619927
0.03618498759642746,3087.3025401334257
0.037605453996581675,2862.1002930088157
0.03908168177536263,2662.1562149079273
0.04061585988376978,2489.25712734415
0.04221026320156896,2344.332288134144
0.04386725591048496,2226.4207935020377
0.0455892949998106,2134.061733655416
0.047378933909631396,2065.0870077728537
0.049238826317067365,2016.8818031880148
0.05117173007114603,1986.7971070367928
0.05318051128214196,1971.912127383142
0.05526814857144601,1967.9989000363178
0.057437737488265785,1969.2945687905083
0.0596924950997073,1968.359277443218
0.0620357647610427,1956.847498369496
0.06447102107323864,1926.6615446634974
0.06700187503509585,1871.5508898238324
0.06963207939763882,1788.2994866720392
0.0723655342286965,1677.5863393682123
0.07520629269592405,1542.8059036546758
0.07815856707684081,1390.2114358071533
0.08122673500479707,1229.2567506102591
0.08441534596012978,1071.486652755312
0.0877291280161335,928.6030833621329
0.09117299484984914,810.1845102897564
0.09475205302806537,721.8151247161554
0.09847160957933764,664.4966621538688
0.1023371798632519,635.9762939542541
0.10635449574860109,631.4538557543642
0.11052951411260206,643.2524583345308
0.1148684256737553,660.3933518454328
0.1193776641714435,669.7437664684967
0.1240639159058831,659.0509267890818
0.12893412965257148,620.8661784385529
0.13399552696593373,556.8772692605204
0.1392556128874462,479.1470944504915
0.14472218707411338,404.22384314917514
0.15040335536380234,345.1667303914882
0.15630754179458153,308.94498637526675
0.16244350109588662,296.1893208931827
0.16882033167003618,300.0124052409517
0.17544748908334581,307.9559952873651
0.1823348000868439,306.5882388773845
0.189492477187382,286.9049260025523
0.19693113379074215,251.44341694657567
0.20466179993919872,212.7919172969864
0.21269593866686892,183.96935452790703
0.22104546299710207,170.73023689711096
0.22972275360711503,169.15586358388006
0.23874067718606454,169.48810164224082
0.2481126055137766,161.4481175162562
0.25785243528842716,143.6043494714388
0.26797460873256895,123.98622947493544
0.27849413500806414,111.25275298822419
0.28942661247167484,106.58426878545461
0.3007882518043098,103.95222314417578
0.31259590004822796,96.9686629502557
0.324867065587837,86.0585227243438
0.3376199441111335,76.93386276716086
0.35087344559027084,72.18454163131055
0.36464722232127456,68.74372642251063
0.37896169806447155,63.16747807465321
0.3938380983288488,56.71839651267601
0.4092984818452433,52.19334830165745
0.4253657732750382,48.98248003959325
0.44206379720285277,45.05618778415739
0.45941731346364734,40.912754653575625
0.47745205385661277,37.781417153568945
0.4961947603002895,34.99815616850025
0.5156732244854959,31.98249222353512
0.5359163290848509,29.356067967934646
0.556954090580013,27.07481302073594
0.5788177037701272,24.858615593789228
0.6015395880274836,22.814624381974053
0.6251534353689703,20.933151089033668
0.6496942604146115,19.202106142983325
0.6751984523072497,17.61019516109823
0.7017038286703824,16.146878937149143
0.7292496916841444,14.802263667759616
0.7578768863625915,13.56686697420024
0.7876278611187046,12.431886773776004
0.8185467307069019,11.38923983338094
0.850679341636415,10.431501097528892
0.8840733401525058,9.551849152730734
0.9187782428863317,8.744078293473162
0.9548455102782278,8.002570412484415
0.9923286228832539,7.322129010366738
1.0312831606721837,6.697938828097247
1.0717668854455022,6.125540656839568
1.1138398264826193,5.600806302971035
1.1575643695533022,5.119901423065695
1.2030053494233226,4.6792748710213505
1.2502301459914542,4.275652434960437
1.299308784200415,3.9060165347347215
1.3503140378698726,3.567587002374586
1.4033215376054824,3.2578036960508427
1.4584098829439835,2.974311425961673
1.5156607589006013,2.7149422766748748
1.575159057091621,2.477700670040068
1.6369930016117014,2.260750300725338
1.7012542798525885,2.062401997483404
1.7680381784572046,1.881102087113264
1.8374437246107238,1.7154217824165574
1.9095738328780953,1.5640482837986025
1.9845354578058014,1.425775809758738
2.0624397525140905,1.2994972007743022
2.143402233514853,1.1841961518262154
2.227542951999554,1.0789400491412715
2.314986671851158,0.9828733116344202
2.405863054644063,0.895211228010216
2.5003068519063225,0.8152342870588839
2.598458104929248,0.7422829424034051
2.7004623524206774,0.6757526976757996
2.806470846309834,0.6150893469649833
2.916640776023701,0.5597852857276707
3.031135501567576,0.5093758540285068
3.150124795755327,0.4634357988032725
3.2737850959485697,0.42157601874965367
3.4022997656780634,0.3834406478598075
3.5358593665351745,0.34870434688343555
3.6746619407366854,0.3170695857285228
3.8189133047818515,0.2882643089785136
3.968827354637162,0.262039812991281
4.1246263829013445,0.23816878811948117
4.286541408420921,0.21644342813871142
4.4548125188449825,0.1966738381478352
4.629689226627261,0.17868662635517185
4.811430839003257,0.16232350306234636
5.000306842491082,0.14743999220100765
5.196597302486189,0.1339042544255806
5.400593278542364,0.12159602242172127
5.612597255954967,0.11040558502804264
5.8329235942862,0.10023286967357757
6.06189899349756,0.09098661263401783
6.29986297838068,0.08258359895523497
6.547168402004727,0.07494795020130679
6.804181968927091,0.068010474801396
7.071284778942991,0.06170812666375851
7.348872892180382,0.05598347356551137
7.637357916378006,0.05078420510914658
7.937167617217536,0.04606268480514327
8.248746552614573,0.041775572916435647
8.572556731909314,0.03788343406032332
8.909078300934132,0.03435035423201923
9.258810253973934,0.031143631374973668
9.622271173675122,0.028233493991722175
9.999999999999984,0.025592826210035426
