k [1/Mpc],P(k) [Mpc^3]
0.0001,2496.3289629873348
0.00010392556829367125,2579.3341843476683
0.00010800523745162529,2665.095590593096
0.00011224505680853065,2753.7039613568177
0.00011665131316981963,2845.2530733794506
0.00012123054013376525,2939.8400842250658
0.00012598952777950273,3037.565443578091
0.00013093533273536104,3138.5326924826145
0.00013607528864243335,3242.8484163297016
0.00014141701702890234,3350.622619914681
0.00014696843861124463,3461.968877666343
0.00015273778503907136,3577.0044398960276
0.00015873361110102093,3695.8503899577804
0.00016496480740980205,3818.6318491253396
0.0001714406135851971,3945.477977588948
0.00017817063195457305,4076.5215762003513
0.00018516484179121546,4211.899222156558
0.000192433614111598,4351.751862170465
0.00019998772705352857,4496.225227138042
0.0002078383818579757,4645.469756101772
0.00021599721947827182,4799.64038377206
0.0002244763378413224,4958.896547643492
0.0002332883097864157,5123.402577981619
0.00024244620170823283,5293.327473971156
0.0002519635929317015,5468.845236459902
0.0002618545958474233,5650.135175762747
0.0002721338768375308,5837.382041021337
0.0002828166780230032,6030.776144809543
0.0002939188398646886,6230.512804176448
0.0003054568246515432,6436.792601261656
0.00031744774091091926,6649.82199795481
0.00032990936877709396,6869.813444724651
0.00034286018635565856,7096.985551457564
0.00035631939712285854,7331.562366654768
0.000370306958400514,7573.7732600403815
0.00038484361094874304,7823.853877419144
0.0003999509097203664,8082.045952976942
0.00041565125582259895,8348.597661307687
0.00043196792973341727,8623.763277596256
0.0004489251258218605,8907.802682499681
0.0004665479882234472,9200.982310371315
0.000484862648123908,9503.574500591792
0.000503896262506515,9815.857843623719
0.0005236770544204653,10138.117240803036
0.0005442343548300266,10470.642772439396
0.0005655986461065005,10813.730909895692
0.0005878016072274912,11167.683818147725
0.0006108761607505036,11532.809270757516
0.0006348565216305217,11909.421209398
0.0006597782479539537,12297.83810177815
0.0006856782936641739,12698.384053547737
0.0007125950633568407,13111.387941161745
0.0007405684692262436,13537.182330274843
0.0007696399902471156,13976.104968770245
0.0007998527336796708,14428.496672298084
0.000831251498989063,14894.702029773269
0.0008638828442740447,15375.068615571818
0.000897795155303332,15869.943772885768
0.0009330387172620361,16379.67749005729
0.0009696657893145519,16904.619543011046
0.001007730682094461,17445.119239494932
0.0010472898382363582,18001.525943747387
0.0010884019160690055,18574.183259163405
0.0011311278765939214,19163.432598092495
0.001175531073878369,19769.609910849988
0.0012216773489967915,20393.042919037347
0.0012696351276599736,21034.05436807078
0.0013194755216767058,21692.9552493307
0.0013712724343984,22370.04702155946
0.0014251026703029975,23065.61896627896
0.0014810460488806749,23779.941122396507
0.0015391855229902056,24513.27033457236
0.001599607301861487,25265.843939196155
0.0016624009789266115,26037.879502178454
0.0017276596646690358,26829.573865435297
0.0017954801246878305,27641.091098021818
0.0018659629231817451,28472.570032181928
0.001939212572065829,29324.11924049637
0.0020153376859417325,30195.813524473946
0.002094451143151469,31087.695949191668
0.002176670253153458,31999.76357447004
0.002262116930469025,32931.97294325168
0.002350917875457286,33884.236998673754
0.002443204762186487,34856.41700092772
0.0025391144336803463,35848.327897518364
0.002638789104828933,36859.722207063074
0.002742376573264949,37890.29211846857
0.0028500304385181063,38939.67044109599
0.0029619103297725525,40007.415964410684
0.0030781821425650787,41093.022785489076
0.003199018284775064,42195.90329060696
0.0033245979322709396,43315.384075116905
0.003455107294592217,44450.71569617009
0.0035907398910610534,45601.054934509964
0.0037316968377327513,46765.473806784576
0.0038781871456107214,47942.938766926534
0.0040304280305680515,49132.29199170595
0.00418864523543527,50332.280384233425
0.004353073364731888,51541.542724067884
0.00452395623253805,52758.61466491283
0.004701547224022131,53981.883453940216
0.004886109671160325,55209.500622628184
0.005077917243205399,56439.494045301326
0.005277254352483535,57669.95699300407
0.005484416576121017,58899.03781701952
0.005699711094326071,60124.62252207176
0.005923457145875801,61343.70630075506
0.006155986501483508,62552.92564506433
0.006397643955748424,63749.1663633465
0.0066487878384172625,64929.7442321583
0.0069097905457156435,66091.83195242271
0.007181039092537346,67231.7723730885
0.007462935686310132,68345.45252086839
0.007755898323389004,69428.83469379912
0.00806036140886134,70478.22373659437
0.008376776400682916,71489.8796103274
0.008705612479099857,72459.43687905332
0.009047357242349292,73382.05349015782
0.00940251742967013,74252.72135246645
0.009771619672696168,75066.0332987664
0.010155211276345676,75816.47942135685
0.010553861030365234,76498.44830647604
0.010968160052731372,77106.24610382093
0.011398722666160517,77634.16320908123
0.011846187309026826,78076.02243340215
0.012311217482038896,78425.59261914888
0.012794502732078732,78676.58730824733
0.013296759674662111,78822.49532458263
0.013818733056536317,78857.06062669215
0.014361196859990781,78773.87515455864
0.014924955450518284,78566.70253759397
0.015510844769528393,78229.68632222836
0.016119733573881575,77756.9718036782
0.01675252472408214,77143.40614280172
0.017410156523040152,76384.2632592306
0.018093604107387147,75475.40102963854
0.01880388089340914,74413.77971587372
0.019542040079740527,73197.08558738534
0.02030917620904734,71824.32624372297
0.021106426791015535,70295.93831638951
0.021934973989050584,68613.78091180189
0.02279604637318978,66781.54090915777
0.023690920741826323,64804.96057343879
0.02462092401494623,62691.72482754545
0.02558743520168586,60451.74514502511
0.02659188744512693,58097.61996777982
0.027635770147361564,55643.588136414306
0.028720631177978267,53107.0958925323
0.029848079169243254,50507.755208117625
0.03101978590138095,47866.12353835066
0.03223748878149028,45206.041296928255
0.0335029934197723,42550.73392981139
0.03481817630688963,39926.00213698005
0.03618498759642746,37359.97845854341
0.037605453996581675,34876.58445268462
0.03908168177536263,32497.961567372982
0.04061585988376978,30242.057326381782
0.04221026320156896,28127.796500652705
0.04386725591048496,26180.2226383146
0.0455892949998106,24416.873190158833
0.047378933909631396,22845.913275182815
0.049238826317067365,21469.694019366463
0.05117173007114603,20284.626263291346
0.05318051128214196,19283.168241262974
0.05526814857144601,18453.488027372194
0.057437737488265785,17779.515263450725
0.0596924950997073,17242.427311991243
0.0620357647610427,16820.051618134636
0.06447102107323864,16482.198213487714
0.06700187503509585,16191.798202989798
0.06963207939763882,15901.370527580308
0.0723655342286965,15562.083940582892
0.07520629269592405,15128.51393503321
0.07815856707684081,14565.538327401542
0.08122673500479707,13853.846122810446
0.08441534596012978,12992.71910035055
0.0877291280161335,12000.373577368156
0.09117299484984914,10912.924979087622
0.09475205302806537,9782.119978222832
0.09847160957933764,8670.720339012018
0.1023371798632519,7646.5817913117235
0.10635449574860109,6768.631898963216
0.11052951411260206,6075.522325694265
0.1148684256737553,5580.851734674439
0.1193776641714435,5273.745191008547
0.1240639159058831,5122.386691986584
0.12893412965257148,5076.629414684683
0.13399552696593373,5070.24788099323
0.1392556128874462,5027.748558695771
0.14472218707411338,4878.720411077863
0.15040335536380234,4579.491268579573
0.15630754179458153,4136.818351378254
0.16244350109588662,3614.8380691145726
0.16882033167003618,3107.0382824470926
0.17544748908334581,2692.905885307702
0.1823348000868439,2416.9187784242345
0.189492477187382,2284.5236632270926
0.19693113379074215,2257.3218193388116
0.20466179993919872,2259.9012880372093
0.21269593866686892,2210.31144657585
0.22104546299710207,2057.6755228107418
0.22972275360711503,1814.7159297968826
0.23874067718606454,1553.515952191691
0.2481126055137766,1352.9069903250304
0.25785243528842716,1248.5964756158066
0.26797460873256895,1218.3232677909195
0.27849413500806414,1200.4649648556892
0.28942661247167484,1132.5406591455903
0.3007882518043098,1005.466863780171
0.31259590004822796,869.7214568331021
0.324867065587837,779.3155673586915
0.3376199441111335,741.6436106111985
0.35087344559027084,716.7773268693775
0.36464722232127456,663.1316599242132
0.37896169806447155,584.8974949512105
0.3938380983288488,520.6971862513099
0.4092984818452433,487.1299821061564
0.4253657732750382,461.55867377823154
0.44206379720285277,420.4311814595766
0.45941731346364734,374.31422471594266
0.47745205385661277,343.2224326982706
0.4961947603002895,321.1763776275937
0.5156732244854959,292.9478711169569
0.5359163290848509,263.64713583303364
0.556954090580013,242.66982671835478
0.5788177037701272,223.6811328522164
0.6015395880274836,202.51094534842508
0.6251534353689703,184.81834008918528
0.6496942604146115,169.9418648658944
0.6751984523072497,155.4821453227928
0.7017038286703824,141.6294523547786
0.7292496916841444,128.7197367251498
0.7578768863625915,116.97121964468191
0.7876278611187046,106.42775970258951
0.8185467307069019,96.93426478170636
0.850679341636415,88.34068921089259
0.8840733401525058,80.52298614590822
0.9187782428863317,73.3785543515121
0.9548455102782278,66.82435267799391
0.9923286228832539,60.81073785422691
1.0312831606721837,55.30435258252189
1.0717668854455022,50.27210463293343
1.1138398264826193,45.68132841954275
1.1575643695533022,41.50013016461801
1.2030053494233226,37.6963340123886
1.2502301459914542,34.2360001437738
1.299308784200415,31.087689579248764
1.3503140378698726,28.222967677116813
1.4033215376054824,25.616099086920503
1.4584098829439835,23.24380340922881
1.5156607589006013,21.085428182822774
1.575159057091621,19.12246813511735
1.6369930016117014,17.337931562576387
1.7012542798525885,15.716215204636812
1.7680381784572046,14.243001533795988
1.8374437246107238,12.90513769958259
1.9095738328780953,11.690490156962923
1.9845354578058014,10.58796064674736
2.0624397525140905,9.58742546938249
2.143402233514853,8.679652381878771
2.227542951999554,7.856224577819326
2.314986671851158,7.109476777622692
2.405863054644063,6.43242890441869
2.5003068519063225,5.818719077187866
2.598458104929248,5.262550335208835
2.7004623524206774,4.758642164589178
2.806470846309834,4.302185706564735
2.916640776023701,3.888801864927871
3.031135501567576,3.514505449532486
3.150124795755327,3.175671342692468
3.2737850959485697,2.869002890736696
3.4022997656780634,2.5915029664090334
3.5358593665351745,2.340447179526748
3.6746619407366854,2.113359673369168
3.8189133047818515,1.9079915492667037
3.968827354637162,1.7223006178004312
4.1246263829013445,1.5544328603879325
4.286541408420921,1.4027054772966154
4.4548125188449825,1.265591289564898
4.629689226627261,1.1417048298302506
4.811430839003257,1.0297895796340557
5.000306842491082,0.9287062273349835
5.196597302486189,0.8374219674529045
5.400593278542364,0.7550007646315151
5.612597255954967,0.6805944807149846
5.8329235942862,0.6134347630895399
6.06189899349756,0.5528256866128093
6.29986297838068,0.49813706106648936
6.547168402004727,0.44879831740552306
6.804181968927091,0.4042927565187715
7.071284778942991,0.36415272048397807
7.348872892180382,0.32795518106814875
7.637357916378006,0.29531754814337163
7.937167617217536,0.2658938628837574
8.248746552614573,0.23937147030114755
8.572556731909314,0.2154680197175719
8.909078300934132,0.19392824321000737
9.258810253973934,0.17452135147462539
9.622271173675122,0.15703873352655137
9.999999999999984,0.14129182956196215
