k [1/Mpc],P(k) [Mpc^3]
0.0001,924.9413460374694
0.00010392556829367125,958.460382662296
0.00010800523745162529,993.1926025444707
0.00011224505680853065,1029.181784044555
0.00011665131316981963,1066.4732503707237
0.00012123054013376525,1105.1138456281578
0.00012598952777950273,1145.1520590296225
0.00013093533273536104,1186.6381590139586
0.00013607528864243335,1229.6242709944047
0.00014141701702890234,1274.1643652035223
0.00014696843861124463,1320.3142040526227
0.00015273778503907136,1368.1314742311351
0.00015873361110102093,1417.6759131973686
0.00016496480740980205,1469.00939353441
0.0001714406135851971,1522.195967232838
0.00017817063195457305,1577.3018562770146
0.00018516484179121546,1634.3955533064563
0.000192433614111598,1693.547932327825
0.00019998772705352857,1754.8323012232968
0.0002078383818579757,1818.3245098473496
0.00021599721947827182,1884.102965688238
0.0002244763378413224,1952.248715814179
0.0002332883097864157,2022.845574511013
0.00024244620170823283,2095.9801234933702
0.0002519635929317015,2171.7418689515794
0.0002618545958474233,2250.2232715330497
0.0002721338768375308,2331.5197869448134
0.0002828166780230032,2415.7300487717407
0.0002939188398646886,2502.955786525879
0.0003054568246515432,2593.3020098345064
0.00031744774091091926,2686.8771248777944
0.00032990936877709396,2783.79293195295
0.00034286018635565856,2884.164841121308
0.00035631939712285854,2988.1117959899443
0.000370306958400514,3095.756405033286
0.00038484361094874304,3207.225024037586
0.0003999509097203664,3322.647404836429
0.00041565125582259895,3442.1571797317138
0.00043196792973341727,3565.892019955098
0.0004489251258218605,3693.99371867205
0.0004665479882234472,3826.608224541664
0.000484862648123908,3963.8850454327476
0.000503896262506515,4105.97774129649
0.0005236770544204653,4253.044074569432
0.0005442343548300266,4405.245897876651
0.0005655986461065005,4562.749476767795
0.0005878016072274912,4725.725056579912
0.0006108761607505036,4894.347095377429
0.0006348565216305217,5068.794239781528
0.0006597782479539537,5249.248570776648
0.0006856782936641739,5435.8964353399
0.0007125950633568407,5628.928229290469
0.0007405684692262436,5828.538395775119
0.0007696399902471156,6034.925480067541
0.0007998527336796708,6248.290885243887
0.000831251498989063,6468.839731565179
0.0008638828442740447,6696.780294585626
0.000897795155303332,6932.323403376123
0.0009330387172620361,7175.683178095541
0.0009696657893145519,7427.074911210446
0.001007730682094461,7686.715876464605
0.0010472898382363582,7954.825299557985
0.0010884019160690055,8231.622943420147
0.0011311278765939214,8517.330143639272
0.001175531073878369,8812.166569402269
0.0012216773489967915,9116.350346079507
0.0012696351276599736,9430.099324063453
0.0013194755216767058,9753.629003356713
0.0013712724343984,10087.153494343218
0.0014251026703029975,10430.882085550964
0.0014810460488806749,10785.01769598549
0.0015391855229902056,11149.759066573399
0.001599607301861487,11525.296904908912
0.0016624009789266115,11911.815180629002
0.0017276596646690358,12309.489087257223
0.0017954801246878305,12718.481744734147
0.0018659629231817451,13138.946679782686
0.001939212572065829,13571.023152080854
0.0020153376859417325,14014.83645212304
0.002094451143151469,14470.496927595763
0.002176670253153458,14938.094155304154
0.002262116930469025,15417.700318323818
0.002350917875457286,15909.364649760464
0.002443204762186487,16413.11183914276
0.0025391144336803463,16928.943760105816
0.002638789104828933,17456.83262724702
0.002742376573264949,17996.723529364066
0.0028500304385181063,18548.52902656555
0.0029619103297725525,19112.124324918997
0.0030781821425650787,19687.351372982932
0.003199018284775064,20274.00890324038
0.0033245979322709396,20871.85496027481
0.003455107294592217,21480.60427910606
0.0035907398910610534,22099.919293380623
0.0037316968377327513,22729.416493877397
0.0038781871456107214,23368.649239129143
0.0040304280305680515,24017.10883555021
0.00418864523543527,24674.232318566388
0.004353073364731888,25339.39362869436
0.00452395623253805,26011.907668313794
0.004701547224022131,26690.98567138323
0.004886109671160325,27375.721874585335
0.005077917243205399,28065.15711239633
0.005277254352483535,28758.375211976712
0.005484416576121017,29454.44235617597
0.005699711094326071,30152.16562179755
0.005923457145875801,30849.90862846048
0.006155986501483508,31545.920729757196
0.006397643955748424,32238.6508676847
0.0066487878384172625,32926.65428445167
0.0069097905457156435,33608.28655792101
0.007181039092537346,34281.42232514968
0.007462935686310132,34943.77678389988
0.007755898323389004,35593.14058580749
0.00806036140886134,36227.38737636324
0.008376776400682916,36844.26065190035
0.008705612479099857,37441.06997509264
0.009047357242349292,38014.94493108008
0.00940251742967013,38562.82680452676
0.009771619672696168,39081.42114296913
0.010155211276345676,39567.360188126106
0.010553861030365234,40017.11303115785
0.010968160052731372,40427.07826486354
0.011398722666160517,40793.50902094775
0.011846187309026826,41112.33059261158
0.012311217482038896,41379.465718038184
0.012794502732078732,41590.61024859304
0.013296759674662111,41741.36237324229
0.013818733056536317,41827.37004634413
0.014361196859990781,41844.0121702189
0.014924955450518284,41786.85877235212
0.015510844769528393,41651.453435759024
0.016119733573881575,41433.34278326645
0.01675252472408214,41128.506859080335
0.017410156523040152,40732.8814482364
0.018093604107387147,40242.939877565426
0.01880388089340914,39655.651330604305
0.019542040079740527,38968.29623311204
0.02030917620904734,38179.222008586665
0.021106426791015535,37287.331076422335
0.021934973989050584,36292.58914868957
0.02279604637318978,35196.31563438931
0.023690920741826323,34000.789101154194
0.02462092401494623,32710.04576972235
0.02558743520168586,31329.60987677965
0.02659188744512693,29866.605785146287
0.027635770147361564,28330.1195750005
0.028720631177978267,26730.968852479487
0.029848079169243254,25081.660107167918
0.03101978590138095,23396.573270605884
0.03223748878149028,21691.644126800747
0.0335029934197723,19983.57491194249
0.03481817630688963,18290.86362485304
0.03618498759642746,16631.676565919093
0.037605453996581675,15024.069267508272
0.03908168177536263,13486.693738947184
0.04061585988376978,12034.61740496485
0.04221026320156896,10682.397125702902
0.04386725591048496,9441.3121548826
0.0455892949998106,8320.002753022412
0.047378933909631396,7328.515980337587
0.049238826317067365,6469.804837967322
0.05117173007114603,5742.515463216783
0.05318051128214196,5141.320492934283
0.05526814857144601,4659.263532744459
0.057437737488265785,4288.696050094714
0.0596924950997073,4020.729629522535
0.0620357647610427,3847.2077827302082
0.06447102107323864,3758.885093272482
0.06700187503509585,3744.592307302056
0.06963207939763882,3789.0768580432664
0.0723655342286965,3873.721208341469
0.07520629269592405,3976.0572359176044
0.07815856707684081,4069.4305464086674
0.08122673500479707,4125.624010333482
0.08441534596012978,4117.3044098522
0.0877291280161335,4021.5619528558377
0.09117299484984914,3823.8801283863227
0.09475205302806537,3522.6343049872207
0.09847160957933764,3132.7890583512635
0.1023371798632519,2685.9300822627856
0.10635449574860109,2225.4760779827266
0.11052951411260206,1796.3754382991522
0.1148684256737553,1434.1921350764253
0.1193776641714435,1159.1803151635872
0.1240639159058831,976.9307912225039
0.12893412965257148,883.2619871704857
0.13399552696593373,868.9971349868196
0.1392556128874462,920.9228063140371
0.14472218707411338,1017.8825439392789
0.15040335536380234,1125.4279335149627
0.15630754179458153,1197.1859567961358
0.16244350109588662,1189.9760153292905
0.16882033167003618,1086.6983250735288
0.17544748908334581,908.1255970888722
0.1823348000868439,703.4728127716375
0.189492477187382,526.8893338853916
0.19693113379074215,412.9447670562965
0.20466179993919872,368.7886493883712
0.21269593866686892,384.84173769429185
0.22104546299710207,439.83372884338877
0.22972275360711503,493.9214892685035
0.23874067718606454,499.8604020038921
0.2481126055137766,438.3392740343741
0.25785243528842716,338.10854069378445
0.26797460873256895,250.68037791408688
0.27849413500806414,207.61757964636558
0.28942661247167484,210.66110406060497
0.3007882518043098,239.28074829410346
0.31259590004822796,255.0293958839763
0.324867065587837,229.32535456232858
0.3376199441111335,177.34414200351492
0.35087344559027084,137.95000850699805
0.36464722232127456,129.58110404319027
0.37896169806447155,141.42461371219886
0.3938380983288488,144.35336366485186
0.4092984818452433,122.84488739595693
0.4253657732750382,96.56946203013327
0.44206379720285277,87.40007931229668
0.45941731346364734,91.34901009655424
0.47745205385661277,88.16894594587644
0.4961947603002895,73.16268166177615
0.5156732244854959,62.77123675608272
0.5359163290848509,62.241795410230445
0.556954090580013,59.56436298945919
0.5788177037701272,50.6572788639669
0.6015395880274836,45.434707617227026
0.6251534353689703,43.9947199445092
0.6496942604146115,40.03617132107591
0.6751984523072497,36.13538883278857
0.7017038286703824,32.666821638416955
0.7292496916841444,29.591995817883646
0.7578768863625915,26.87334866024509
0.7876278611187046,24.462000540868843
0.8185467307069019,22.305039091547343
0.850679341636415,20.35938725833125
0.8840733401525058,18.590324882436516
0.9187782428863317,16.96991559445991
0.9548455102782278,15.477597375689323
0.9923286228832539,14.104278039200441
1.0312831606721837,12.843393092533452
1.0717668854455022,11.688221644786964
1.1138398264826193,10.632000827892043
1.1575643695533022,9.668010764933657
1.2030053494233226,8.789235635322477
1.2502301459914542,7.988478557378011
1.299308784200415,7.259071056593139
1.3503140378698726,6.594882370750669
1.4033215376054824,5.990279913489746
1.4584098829439835,5.440086057864433
1.5156607589006013,4.93951125595491
1.575159057091621,4.484160346237571
1.6369930016117014,4.070020673301108
1.7012542798525885,3.693429429314886
1.7680381784572046,3.3510436884291437
1.8374437246107238,3.0398167682408617
1.9095738328780953,2.756974996923175
1.9845354578058014,2.4999859388290555
2.0624397525140905,2.266537111303717
2.143402233514853,2.054517502281371
2.227542951999554,1.8620006137343368
2.314986671851158,1.6872291945270783
2.405863054644063,1.5286005899397532
2.5003068519063225,1.3846532760336303
2.598458104929248,1.2540548127505868
2.7004623524206774,1.1355907898413906
2.806470846309834,1.0281543875156147
2.916640776023701,0.9307366289729636
3.031135501567576,0.8424188434437508
3.150124795755327,0.7623649598891166
3.2737850959485697,0.689814249736483
3.4022997656780634,0.6240746887579925
3.5358593665351745,0.5645168651266342
3.6746619407366854,0.5105684458127447
3.8189133047818515,0.46170913794573387
3.968827354637162,0.417466056813271
4.1246263829013445,0.37740949490382686
4.286541408420921,0.3411490689279203
4.4548125188449825,0.30833022448784836
4.629689226627261,0.27863097301945144
4.811430839003257,0.25175894553533673
5.000306842491082,0.2274487217063103
5.196597302486189,0.2054593934433236
5.400593278542364,0.18557231029456475
5.612597255954967,0.16758905701044532
5.8329235942862,0.15132966761227035
6.06189899349756,0.13663094293721434
6.29986297838068,0.12334491436506724
6.547168402004727,0.11133744443464348
6.804181968927091,0.10048694760429325
7.071284778942991,0.09068324098234899
7.348872892180382,0.08182649592868908
7.637357916378006,0.07382627972633386
7.937167617217536,0.06660068448154997
8.248746552614573,0.06007555238776326
8.572556731909314,0.05418376713858976
8.909078300934132,0.048864557752655184
9.258810253973934,0.044062903538309627
9.622271173675122,0.039728999057047513
9.999999999999984,0.035817758305772586
