k [1/Mpc],P(k) [Mpc^3]
0.0001,235.9800774889088
0.00010392556829367125,246.65470558929587
0.00010800523745162529,257.81141155157366
0.00011224505680853065,269.471870888224
0.00011665131316981963,281.65872531916284
0.00012123054013376525,294.395615426987
0.00012598952777950273,307.7072113896475
0.00013093533273536104,321.61927535576234
0.00013607528864243335,336.1587121468667
0.00014141701702890234,351.3536189660084
0.00014696843861124463,367.2333254284051
0.00015273778503907136,383.8284212093695
0.00015873361110102093,401.17083478410956
0.00016496480740980205,419.293895971071
0.0001714406135851971,438.23239592466217
0.00017817063195457305,458.0226374747458
0.00018516484179121546,478.7024483301816
0.000192433614111598,500.311281076667
0.00019998772705352857,522.8902836174667
0.0002078383818579757,546.4823620684311
0.00021599721947827182,571.1322625419978
0.0002244763378413224,596.8865993486476
0.0002332883097864157,623.7939543894773
0.00024244620170823283,651.9049366045723
0.0002519635929317015,681.2722111794363
0.0002618545958474233,711.9506438327658
0.0002721338768375308,743.9973480250728
0.0002828166780230032,777.4717829009488
0.0002939188398646886,812.4358247941244
0.0003054568246515432,848.9537455157465
0.00031744774091091926,887.0924048894467
0.00032990936877709396,926.921309771543
0.00034286018635565856,968.5127022718852
0.00035631939712285854,1011.9416630958192
0.000370306958400514,1057.28601737036
0.00038484361094874304,1104.626560642836
0.0003999509097203664,1154.047121903488
0.00041565125582259895,1205.634603742715
0.00043196792973341727,1259.4791643946596
0.0004489251258218605,1315.6741156524215
0.0004665479882234472,1374.3161123296723
0.000484862648123908,1435.5052063773269
0.000503896262506515,1499.344764266282
0.0005236770544204653,1565.9417510622866
0.0005442343548300266,1635.406601185012
0.0005655986461065005,1707.8533473643647
0.0005878016072274912,1783.3997298572044
0.0006108761607505036,1862.1669708457498
0.0006348565216305217,1944.280093518143
0.0006597782479539537,2029.867635570766
0.0006856782936641739,2119.0616324687953
0.0007125950633568407,2211.997899365345
0.0007405684692262436,2308.8155915331276
0.0007696399902471156,2409.6575298766907
0.0007998527336796708,2514.6697601994706
0.000831251498989063,2624.0011570557294
0.0008638828442740447,2737.8039502643273
0.000897795155303332,2856.232749954826
0.0009330387172620361,2979.4448823848647
0.0009696657893145519,3107.6000876246653
0.001007730682094461,3240.8595311064028
0.0010472898382363582,3379.386557220852
0.0010884019160690055,3523.3454372404303
0.0011311278765939214,3672.9013366486433
0.001175531073878369,3828.220315044018
0.0012216773489967915,3989.467817416622
0.0012696351276599736,4156.809341274366
0.0013194755216767058,4330.409046972711
0.0013712724343984,4510.429097104259
0.0014251026703029975,4697.029755342456
0.0014810460488806749,4890.36660415611
0.0015391855229902056,5090.59142517015
0.001599607301861487,5297.851161096218
0.0016624009789266115,5512.286472329492
0.0017276596646690358,5734.032061593236
0.0017954801246878305,5963.21389385512
0.0018659629231817451,6199.949222675896
0.001939212572065829,6444.345183271291
0.0020153376859417325,6696.495829136869
0.002094451143151469,6956.483311829145
0.002176670253153458,7224.375171400621
0.002262116930469025,7500.223527938342
0.002350917875457286,7784.064103422302
0.002443204762186487,8075.912308451964
0.0025391144336803463,8375.76426751496
0.002638789104828933,8683.59368689309
0.002742376573264949,8999.350074569546
0.0028500304385181063,9322.95829467581
0.0029619103297725525,9654.311690613691
0.0030781821425650787,9993.274279967445
0.003199018284775064,10339.676776059649
0.0033245979322709396,10693.312253452932
0.003455107294592217,11053.93993576683
0.0035907398910610534,11421.282521117395
0.0037316968377327513,11795.025595522338
0.0038781871456107214,12174.797903794091
0.0040304280305680515,12560.143568496625
0.00418864523543527,12950.56002257611
0.004353073364731888,13345.58496784244
0.00452395623253805,13744.781246618428
0.004701547224022131,14147.587005127358
0.004886109671160325,14553.077180591914
0.005077917243205399,14960.188966243384
0.005277254352483535,15367.984758245211
0.005484416576121017,15775.68519206731
0.005699711094326071,16182.423550682288
0.005923457145875801,16586.98128870801
0.006155986501483508,16987.970910503773
0.006397643955748424,17384.039435863902
0.0066487878384172625,17773.94104641164
0.0069097905457156435,18156.36945510634
0.007181039092537346,18529.71927914186
0.007462935686310132,18892.203001138365
0.007755898323389004,19241.927164190685
0.00806036140886134,19576.83827054492
0.008376776400682916,19894.81454064863
0.008705612479099857,20193.59879434255
0.009047357242349292,20470.83711559592
0.00940251742967013,20724.09807848946
0.009771619672696168,20950.72887259274
0.010155211276345676,21148.043942356537
0.010553861030365234,21313.18615423148
0.010968160052731372,21443.142805281685
0.011398722666160517,21534.9278893627
0.011846187309026826,21585.318315450735
0.012311217482038896,21591.16144745478
0.012794502732078732,21549.28362440765
0.013296759674662111,21456.41041828634
0.013818733056536317,21309.56117606973
0.014361196859990781,21105.615276751425
0.014924955450518284,20841.74501302745
0.015510844769528393,20515.483258544475
0.016119733573881575,20124.42212163219
0.01675252472408214,19666.981577529863
0.017410156523040152,19141.824249324625
0.018093604107387147,18548.316117994415
0.01880388089340914,17886.931065084857
0.019542040079740527,17158.528458219207
0.02030917620904734,16365.591610693069
0.021106426791015535,15511.525251848609
0.021934973989050584,14600.888363815116
0.02279604637318978,13640.298181059288
0.023690920741826323,12637.032921772958
0.02462092401494623,11600.556664771355
0.02558743520168586,10541.657884539789
0.02659188744512693,9471.93642041522
0.027635770147361564,8405.253792337027
0.028720631177978267,7355.455769265521
0.029848079169243254,6337.531116912183
0.03101978590138095,5366.424888311417
0.03223748878149028,4455.2465284806885
0.0335029934197723,3617.450670410467
0.03481817630688963,2864.407862145652
0.03618498759642746,2204.9737584713616
0.037605453996581675,1643.8936991932567
0.03908168177536263,1179.9757374459168
0.04061585988376978,810.4147516089346
0.04221026320156896,531.0410031593254
0.04386725591048496,331.97982956956815
0.0455892949998106,198.44758156475268
0.047378933909631396,114.13640519530979
0.049238826317067365,65.60149246908887
0.05117173007114603,41.74465106752198
0.05318051128214196,32.82704268010216
0.05526814857144601,35.36962670598889
0.057437737488265785,50.829651966241144
0.0596924950997073,84.1324530377947
0.0620357647610427,143.33208267915649
0.06447102107323864,233.98145353689935
0.06700187503509585,357.62974474590493
0.06963207939763882,508.25004843784313
0.0723655342286965,670.8984049064194
0.07520629269592405,822.391587033018
0.07815856707684081,935.2190631390092
0.08122673500479707,982.7887920465602
0.08441534596012978,948.2217072247374
0.0877291280161335,832.3133864178991
0.09117299484984914,656.3234942401834
0.09475205302806537,456.23936304689727
0.09847160957933764,271.59539825740006
0.1023371798632519,132.13381791684796
0.10635449574860109,48.694572778894155
0.11052951411260206,12.532054949715432
0.1148684256737553,2.462812061993768
0.1193776641714435,2.1617254393815215
0.1240639159058831,9.152024272435893
0.12893412965257148,37.12375465039057
0.13399552696593373,96.65735823375466
0.1392556128874462,178.82100673323433
0.14472218707411338,249.3049837523499
0.15040335536380234,269.18638201902934
0.15630754179458153,223.48311381487832
0.16244350109588662,137.57647962323833
0.16882033167003618,58.70981009054024
0.17544748908334581,15.846100555183934
0.1823348000868439,3.393673955652594
0.189492477187382,3.661603457554372
0.19693113379074215,15.972590954924906
0.20466179993919872,49.1024186500474
0.21269593866686892,88.38603743350485
0.22104546299710207,98.00794142730902
0.22972275360711503,67.41255643607366
0.23874067718606454,27.607692270902835
0.2481126055137766,7.486955411402084
0.25785243528842716,4.409210022819722
0.26797460873256895,12.178457775996257
0.27849413500806414,31.21967336108063
0.28942661247167484,42.884841201273055
0.3007882518043098,30.667459912983897
0.31259590004822796,12.133137258417404
0.324867065587837,5.11989907831516
0.3376199441111335,7.95403729042022
0.35087344559027084,17.34944533776928
0.36464722232127456,20.30702001166911
0.37896169806447155,11.63706116667206
0.3938380983288488,5.346249860261532
0.4092984818452433,6.216782506472843
0.4253657732750382,10.755778639447529
0.44206379720285277,10.197940553105667
0.45941731346364734,5.580990503056576
0.47745205385661277,4.553317967527754
0.4961947603002895,6.609244758213401
0.5156732244854959,6.328620761853054
0.5359163290848509,4.170884363157255
0.556954090580013,3.594691495208605
0.5788177037701272,3.2977000759200767
0.6015395880274836,3.103752831150508
0.6251534353689703,2.965142067487086
0.6496942604146115,2.8447378156969525
0.6751984523072497,2.7116479591130416
0.7017038286703824,2.5450125226492086
0.7292496916841444,2.3532785002668044
0.7578768863625915,2.152612150205118
0.7876278611187046,1.9559228414013667
0.8185467307069019,1.772619550087155
0.850679341636415,1.6089434417275998
0.8840733401525058,1.4667325282942056
0.9187782428863317,1.3419860527076508
0.9548455102782278,1.23077354092195
0.9923286228832539,1.1300235859382843
1.0312831606721837,1.0373425938725316
1.0717668854455022,0.9509017684031255
1.1138398264826193,0.869931648432718
1.1575643695533022,0.7945765230058125
1.2030053494233226,0.7249050844503855
1.2502301459914542,0.6608685399031254
1.299308784200415,0.602325461890248
1.3503140378698726,0.5490510134288173
1.4033215376054824,0.5006211783767784
1.4584098829439835,0.456540383926565
1.5156607589006013,0.4163698582770809
1.575159057091621,0.3797223041334723
1.6369930016117014,0.3462552082688084
1.7012542798525885,0.3156698952077249
1.7680381784572046,0.2877236696469212
1.8374437246107238,0.26220107842528295
1.9095738328780953,0.23890250782137462
1.9845354578058014,0.21764324363183918
2.0624397525140905,0.19825255928220825
2.143402233514853,0.1805715039249171
2.227542951999554,0.16445081026469088
2.314986671851158,0.14975369657222298
2.405863054644063,0.13635534241709193
2.5003068519063225,0.12414184048977878
2.598458104929248,0.11300925044434536
2.7004623524206774,0.10286302474063708
2.806470846309834,0.09361714536998506
2.916640776023701,0.08519296485231093
3.031135501567576,0.07751856671175741
3.150124795755327,0.07052820435585651
3.2737850959485697,0.06416177056173067
3.4022997656780634,0.05836419159168523
3.5358593665351745,0.05308510905050996
3.6746619407366854,0.04827858468340384
3.8189133047818515,0.04390271665593938
3.968827354637162,0.03991928739757844
4.1246263829013445,0.03629346427172717
4.286541408420921,0.03299357589018818
4.4548125188449825,0.029990737009057813
4.629689226627261,0.02725857484719782
4.811430839003257,0.024773015758333353
5.000306842491082,0.022512089383082298
5.196597302486189,0.020455729059476777
5.400593278542364,0.01858559211140881
5.612597255954967,0.01688495970466262
5.8329235942862,0.015338601008221495
6.06189899349756,0.013932641907300935
6.29986297838068,0.012654445209957808
6.547168402004727,0.01149250160866621
6.804181968927091,0.010436329850748037
7.071284778942991,0.009476385363421429
7.348872892180382,0.00860397727045612
7.637357916378006,0.0078111927138407485
7.937167617217536,0.007090829122458114
8.248746552614573,0.006436341675129319
8.572556731909314,0.005841775828000381
8.909078300934132,0.005301707184773242
9.258810253973934,0.0048111951188446675
9.622271173675122,0.00436574044787245
9.999999999999984,0.003961242037497112
