k [1/Mpc],P(k) [Mpc^3]
0.0001,190.5485601357509
0.00010392556829367125,197.45651196380464
0.00010800523745162529,204.61480786833494
0.00011224505680853065,212.03252267089397
0.00011665131316981963,219.71905047265116
0.00012123054013376525,227.68410787998133
0.00012598952777950273,235.93776015092442
0.00013093533273536104,244.4904429110517
0.00013607528864243335,253.3529728545733
0.00014141701702890234,262.53655779528185
0.00014696843861124463,272.05281234605394
0.00015273778503907136,281.91377009488536
0.00015873361110102093,292.13188279678405
0.00016496480740980205,302.72003396819275
0.0001714406135851971,313.69157414414707
0.00017817063195457305,325.06036527630795
0.00018516484179121546,336.8407797263264
0.000192433614111598,349.04768146362295
0.00019998772705352857,361.6964235210196
0.0002078383818579757,374.80290503719846
0.00021599721947827182,388.3836216830387
0.0002244763378413224,402.4556762473169
0.0002332883097864157,417.0367713250652
0.00024244620170823283,432.14520492019955
0.0002519635929317015,447.7999200394082
0.0002618545958474233,464.02055171598806
0.0002721338768375308,480.8274516514754
0.0002828166780230032,498.241685359152
0.0002939188398646886,516.2850078142345
0.0003054568246515432,534.9799235134701
0.00031744774091091926,554.3497439497967
0.00032990936877709396,574.4186250618372
0.00034286018635565856,595.2115703266638
0.00035631939712285854,616.7544079488978
0.000370306958400514,639.0738403043605
0.00038484361094874304,662.1975021704687
0.0003999509097203664,686.1539973746336
0.00041565125582259895,710.9729224369439
0.00043196792973341727,736.6848478407019
0.0004489251258218605,763.3213524711845
0.0004665479882234472,790.915089694665
0.000484862648123908,819.4998000927145
0.000503896262506515,849.1103640701116
0.0005236770544204653,879.7828115438855
0.0005442343548300266,911.5543407093732
0.0005655986461065005,944.4633888554364
0.0005878016072274912,978.5496306406368
0.0006108761607505036,1013.854036467222
0.0006348565216305217,1050.4188797725653
0.0006597782479539537,1088.287698575973
0.0006856782936641739,1127.5054263514182
0.0007125950633568407,1168.118442998541
0.0007405684692262436,1210.174617021413
0.0007696399902471156,1253.723298576673
0.0007998527336796708,1298.815190270002
0.000831251498989063,1345.5025213314223
0.0008638828442740447,1393.8390945960039
0.000897795155303332,1443.88030859524
0.0009330387172620361,1495.6832116906496
0.0009696657893145519,1549.3063317811288
0.001007730682094461,1604.809818797889
0.0010472898382363582,1662.2555265436213
0.0010884019160690055,1721.7069842861908
0.0011311278765939214,1783.2294888962626
0.001175531073878369,1846.8898061116054
0.0012216773489967915,1912.7562483202466
0.0012696351276599736,1980.8988690510196
0.0013194755216767058,2051.389298568407
0.0013712724343984,2124.3009182119927
0.0014251026703029975,2199.7085985632953
0.0014810460488806749,2277.688593367874
0.0015391855229902056,2358.3188075219673
0.001599607301861487,2441.678339795105
0.0016624009789266115,2527.847732801108
0.0017276596646690358,2616.9087996180165
0.0017954801246878305,2708.9441827117594
0.0018659629231817451,2804.0378490656544
0.001939212572065829,2902.274672689214
0.0020153376859417325,3003.7404804547505
0.002094451143151469,3108.5219767940407
0.002176670253153458,3216.705852486478
0.002262116930469025,3328.379410186637
0.002350917875457286,3443.62993384376
0.002443204762186487,3562.544376765854
0.0025391144336803463,3685.209794966683
0.002638789104828933,3811.712313998183
0.002742376573264949,3942.137512837167
0.0028500304385181063,4076.5698845340457
0.0029619103297725525,4215.091895985558
0.0030781821425650787,4357.784743092537
0.003199018284775064,4504.726943971167
0.0033245979322709396,4655.994423473751
0.003455107294592217,4811.660459066768
0.0035907398910610534,4971.7940265922
0.0037316968377327513,5136.460706043515
0.0038781871456107214,5305.72098723589
0.0040304280305680515,5479.629584884555
0.00418864523543527,5658.236119309157
0.004353073364731888,5841.582395393083
0.00452395623253805,6029.703432562975
0.004701547224022131,6222.625963200822
0.004886109671160325,6420.366246726162
0.005077917243205399,6622.931895315516
0.005277254352483535,6830.318484142933
0.005484416576121017,7042.509955609973
0.005699711094326071,7259.4780957385
0.005923457145875801,7481.17829095299
0.006155986501483508,7707.552196384806
0.006397643955748424,7938.520494012568
0.0066487878384172625,8173.981403886024
0.0069097905457156435,8413.817970557455
0.007181039092537346,8657.904073286069
0.007462935686310132,8906.099018174533
0.007755898323389004,9158.216359784616
0.00806036140886134,9414.002034073827
0.008376776400682916,9673.174625973037
0.008705612479099857,9935.458751022774
0.009047357242349292,10200.573169779904
0.00940251742967013,10468.191395670965
0.009771619672696168,10737.899573156037
0.010155211276345676,11009.242337560878
0.010553861030365234,11281.753031969269
0.010968160052731372,11554.954047925517
0.011398722666160517,11828.325972717446
0.011846187309026826,12101.254918006189
0.012311217482038896,12373.072010020325
0.012794502732078732,12643.053039993803
0.013296759674662111,12910.408227814723
0.013818733056536317,13174.30514861097
0.014361196859990781,13433.85049540115
0.014924955450518284,13688.102801655345
0.015510844769528393,13936.066324811276
0.016119733573881575,14176.660912702197
0.01675252472408214,14408.765559585194
0.017410156523040152,14631.190262665476
0.018093604107387147,14842.685901229625
0.01880388089340914,15041.972813852395
0.019542040079740527,15227.707250300817
0.02030917620904734,15398.526597745951
0.021106426791015535,15553.042480359649
0.021934973989050584,15689.83818252405
0.02279604637318978,15807.516764038051
0.023690920741826323,15904.688110430228
0.02462092401494623,15980.000414393375
0.02558743520168586,16032.173979023968
0.02659188744512693,16060.020921098032
0.027635770147361564,16062.458043977073
0.028720631177978267,16038.558495438348
0.029848079169243254,15987.558159413651
0.03101978590138095,15908.899159343699
0.03223748878149028,15802.419515289654
0.0335029934197723,15668.177453306474
0.03481817630688963,15506.44428667347
0.03618498759642746,15317.71825785765
0.037605453996581675,15102.841071728428
0.03908168177536263,14864.08242097007
0.04061585988376978,14604.306914603385
0.04221026320156896,14325.929539520104
0.04386725591048496,14030.4454842617
0.0455892949998106,13719.397424361321
0.047378933909631396,13396.049597195459
0.049238826317067365,13064.720592931371
0.05117173007114603,12729.539962711435
0.05318051128214196,12394.626970381552
0.05526814857144601,12063.810330752525
0.057437737488265785,11740.783486236509
0.0596924950997073,11429.052979210326
0.0620357647610427,11131.225644045171
0.06447102107323864,10848.724010275462
0.06700187503509585,10582.14545153526
0.06963207939763882,10330.793871911197
0.0723655342286965,10093.102130544235
0.07520629269592405,9866.27185935515
0.07815856707684081,9646.616776336237
0.08122673500479707,9429.580832383435
0.08441534596012978,9209.617538135759
0.0877291280161335,8980.642759106482
0.09117299484984914,8736.241315527903
0.09475205302806537,8470.596450217554
0.09847160957933764,8179.513387440909
0.1023371798632519,7861.414045879818
0.10635449574860109,7518.163144736327
0.11052951411260206,7155.523355130649
0.1148684256737553,6781.9197345210305
0.1193776641714435,6408.052225918565
0.1240639159058831,6046.530234405548
0.12893412965257148,5709.519291742267
0.13399552696593373,5406.711134754301
0.1392556128874462,5143.808461623093
0.14472218707411338,4921.870244473929
0.15040335536380234,4735.758480752922
0.15630754179458153,4574.542957918713
0.16244350109588662,4423.281256496741
0.16882033167003618,4265.738585246967
0.17544748908334581,4087.9080249746553
0.1823348000868439,3881.974234072797
0.189492477187382,3649.4296773402953
0.19693113379074215,3401.5825770455085
0.20466179993919872,3157.017710284336
0.21269593866686892,2936.2351446932803
0.22104546299710207,2754.026806429076
0.22972275360711503,2612.676503632666
0.23874067718606454,2501.0057853528806
0.2481126055137766,2399.2874598423355
0.25785243528842716,2286.433974683352
0.26797460873256895,2150.171944690794
0.27849413500806414,1995.245654735948
0.28942661247167484,1839.8476453685469
0.3007882518043098,1704.1907211759662
0.31259590004822796,1598.9142689379014
0.324867065587837,1517.8685898856343
0.3376199441111335,1442.3156633625697
0.35087344559027084,1354.7313110758944
0.36464722232127456,1253.6840625661046
0.37896169806447155,1154.1182237348899
0.3938380983288488,1071.8786213984988
0.4092984818452433,1008.2739602366123
0.4253657732750382,949.9933197936551
0.44206379720285277,884.9721772866252
0.45941731346364734,815.6146995825974
0.47745205385661277,753.9499982368724
0.4961947603002895,704.4793808594039
0.5156732244854959,658.9030969175153
0.5359163290848509,610.0827929121548
0.556954090580013,562.4844133146069
0.5788177037701272,522.0776913303735
0.6015395880274836,486.0630140222909
0.6251534353689703,449.4504612575728
0.6496942604146115,414.58891488162243
0.6751984523072497,384.25425631698965
0.7017038286703824,355.7605701390454
0.7292496916841444,328.0229491071419
0.7578768863625915,303.0176852594341
0.7876278611187046,280.00891399522783
0.8185467307069019,258.06437382222146
0.850679341636415,238.0156764458129
0.8840733401525058,219.39592168995952
0.9187782428863317,202.07331730744278
0.9548455102782278,186.04797358949904
0.9923286228832539,171.23531847863217
1.0312831606721837,157.54368269976484
1.0717668854455022,144.88876249778528
1.1138398264826193,133.19296673214504
1.1575643695533022,122.38496475994536
1.2030053494233226,112.40174135595763
1.2502301459914542,103.18691724047862
1.299308784200415,94.68729751328502
1.3503140378698726,86.85266507017114
1.4033215376054824,79.63569608428772
1.4584098829439835,72.99169970795295
1.5156607589006013,66.87797005709719
1.575159057091621,61.254481360367464
1.6369930016117014,56.08401536340514
1.7012542798525885,51.33198388400404
1.7680381784572046,46.96626192399422
1.8374437246107238,42.95708904483186
1.9095738328780953,39.2769230739821
1.9845354578058014,35.90019300975848
2.0624397525140905,32.80316629058378
2.143402233514853,29.96383174969704
2.227542951999554,27.36178511908026
2.314986671851158,24.978101398638934
2.405863054644063,22.79525857287901
2.5003068519063225,20.797058128872642
2.598458104929248,18.968533447900803
2.7004623524206774,17.29586360630398
2.806470846309834,15.766291049934695
2.916640776023701,14.368044447692107
3.031135501567576,13.09027143679927
3.150124795755327,11.922972369922826
3.2737850959485697,10.856937793272571
3.4022997656780634,9.883689888467774
3.5358593665351745,8.995425620883761
3.6746619407366854,8.184967548744748
3.8189133047818515,7.445718887423638
3.968827354637162,6.771619198844716
4.1246263829013445,6.157103137736866
4.286541408420921,5.5970616834544415
4.4548125188449825,5.086805500038817
4.629689226627261,4.622033822079822
4.811430839003257,4.1988042439941955
5.000306842491082,3.8135042153456395
5.196597302486189,3.46282465589597
5.400593278542364,3.1437351996969065
5.612597255954967,2.853461729855648
5.8329235942862,2.589466108863285
6.06189899349756,2.349426926831917
6.29986297838068,2.131221707011748
6.547168402004727,1.9329103336904794
6.804181968927091,1.7527191061540566
7.071284778942991,1.589027839472566
7.348872892180382,1.4403575025547501
7.637357916378006,1.3053583028713172
7.937167617217536,1.1827987425888487
8.248746552614573,1.0715563159617763
8.572556731909314,0.9706086443520627
8.909078300934132,0.879023276502263
9.258810253973934,0.7959498765539152
9.622271173675122,0.7206132544398856
9.999999999999984,0.6523066468220298
