k [1/Mpc],P(k) [Mpc^3]
0.0001,1130.9956534468665
0.00010392556829367125,1168.6155930162006
0.00010800523745162529,1207.4860775826696
0.00011224505680853065,1247.648588114418
0.00011665131316981963,1289.1459818515827
0.00012123054013376525,1332.0225641506447
0.00012598952777950273,1376.3241233278834
0.00013093533273536104,1422.0979231373476
0.00013607528864243335,1469.3926872723466
0.00014141701702890234,1518.2587271420766
0.00014696843861124463,1568.7480432576506
0.00015273778503907136,1620.914376313137
0.00015873361110102093,1674.8132260954224
0.00016496480740980205,1730.5018743621638
0.0001714406135851971,1788.039470979554
0.00017817063195457305,1847.4871028769583
0.00018516484179121546,1908.90785617116
0.000192433614111598,1972.3668710370805
0.00019998772705352857,2037.93133854147
0.0002078383818579757,2105.6706044704747
0.00021599721947827182,2175.656243868575
0.0002244763378413224,2247.9621028671654
0.0002332883097864157,2322.664414795375
0.00024244620170823283,2399.841923273679
0.0002519635929317015,2479.5759522853805
0.0002618545958474233,2561.9503930539345
0.0002721338768375308,2647.05161432201
0.0002828166780230032,2734.96869652346
0.0002939188398646886,2825.7935077494312
0.0003054568246515432,2919.620778028382
0.00031744774091091926,3016.548241417907
0.00032990936877709396,3116.6767486915287
0.00034286018635565856,3220.1103475443065
0.00035631939712285854,3326.956165158592
0.000370306958400514,3437.3243176300734
0.00038484361094874304,3551.32829520656
0.0003999509097203664,3669.08510023063
0.00041565125582259895,3790.7153459987117
0.00043196792973341727,3916.343214982
0.0004489251258218605,4046.0962735894764
0.0004665479882234472,4180.105857638317
0.000484862648123908,4318.507117555164
0.000503896262506515,4461.439113228298
0.0005236770544204653,4609.044910648771
0.0005442343548300266,4761.471222397946
0.0005655986461065005,4918.868835340738
0.0005878016072274912,5081.392777552954
0.0006108761607505036,5249.202361447485
0.0006348565216305217,5422.461316722498
0.0006597782479539537,5601.337230166958
0.0006856782936641739,5786.001917060935
0.0007125950633568407,5976.631683332327
0.0007405684692262436,6173.407144598256
0.0007696399902471156,6376.513577821697
0.0007998527336796708,6586.140255239186
0.000831251498989063,6802.480566763794
0.0008638828442740447,7025.732620834699
0.000897795155303332,7256.099068632344
0.0009330387172620361,7493.787346564717
0.0009696657893145519,7739.008624820587
0.001007730682094461,7991.977314797499
0.0010472898382363582,8252.912308514686
0.0010884019160690055,8522.036448620802
0.0011311278765939214,8799.576857857275
0.001175531073878369,9085.764046447584
0.0012216773489967915,9380.830405619801
0.0012696351276599736,9685.011973972452
0.0013194755216767058,9998.547396723336
0.0013712724343984,10321.678068407848
0.0014251026703029975,10654.647864405462
0.0014810460488806749,10997.700326208136
0.0015391855229902056,11351.08080889284
0.001599607301861487,11715.035210738213
0.0016624009789266115,12089.809269698351
0.0017276596646690358,12475.649428462262
0.0017954801246878305,12872.799340706759
0.0018659629231817451,13281.501472798558
0.001939212572065829,13701.995548617258
0.0020153376859417325,14134.515760144672
0.002094451143151469,14579.293497986753
0.002176670253153458,15036.553537844928
0.002262116930469025,15506.5145570402
0.002350917875457286,15989.388967094299
0.002443204762186487,16485.378531136965
0.0025391144336803463,16994.677086098654
0.002638789104828933,17517.465053956228
0.002742376573264949,18053.90799547817
0.0028500304385181063,18604.15948586567
0.0029619103297725525,19168.35566656746
0.0030781821425650787,19746.617369732412
0.003199018284775064,20339.045977836842
0.0033245979322709396,20945.71900347621
0.003455107294592217,21566.693986584578
0.0035907398910610534,22202.000271391844
0.0037316968377327513,22851.64068187622
0.0038781871456107214,23515.590449581403
0.0040304280305680515,24193.789688101187
0.00418864523543527,24886.148190718206
0.004353073364731888,25592.53477018299
0.00452395623253805,26312.776127729845
0.004701547224022131,27046.659886214806
0.004886109671160325,27793.921030882277
0.005077917243205399,28554.249617170604
0.005277254352483535,29327.282464009524
0.005484416576121017,30112.596590944864
0.005699711094326071,30909.714059065296
0.005923457145875801,31718.064845619607
0.006155986501483508,32537.003802571333
0.006397643955748424,33365.85247433474
0.0066487878384172625,34203.932243287054
0.0069097905457156435,35050.50338788995
0.007181039092537346,35904.56451608645
0.007462935686310132,36764.88630028452
0.007755898323389004,37630.20087006785
0.00806036140886134,38499.359096010405
0.008376776400682916,39371.18463756261
0.008705612479099857,40244.26338384159
0.009047357242349292,41116.89939064075
0.00940251742967013,41987.316099816635
0.009771619672696168,42853.80776549643
0.010155211276345676,43714.65378424328
0.010553861030365234,44567.950437637235
0.010968160052731372,45411.50563327041
0.011398722666160517,46243.01028782071
0.011846187309026826,47059.990235492114
0.012311217482038896,47859.83723843347
0.012794502732078732,48639.85457065636
0.013296759674662111,49397.245682427674
0.013818733056536317,50129.14238431656
0.014361196859990781,50832.51802949224
0.014924955450518284,51504.1939173595
0.015510844769528393,52140.933200599946
0.016119733573881575,52739.37789704851
0.01675252472408214,53296.13137330455
0.017410156523040152,53807.759653700836
0.018093604107387147,54270.78040163911
0.01880388089340914,54681.75476120032
0.019542040079740527,55037.2741291571
0.02030917620904734,55334.010126391906
0.021106426791015535,55568.780209742865
0.021934973989050584,55738.59345554916
0.02279604637318978,55840.66594543983
0.023690920741826323,55872.56151888757
0.02462092401494623,55832.20353769767
0.02558743520168586,55717.88531011223
0.02659188744512693,55528.57941955236
0.027635770147361564,55263.68793460664
0.028720631177978267,54923.301134403046
0.029848079169243254,54508.32623094143
0.03101978590138095,54020.16712110025
0.03223748878149028,53461.62032381136
0.0335029934197723,52836.22178396393
0.03481817630688963,52147.927759537626
0.03618498759642746,51401.334588357306
0.037605453996581675,50601.41406160508
0.03908168177536263,49756.333192939004
0.04061585988376978,48876.33750104701
0.04221026320156896,47969.8014414178
0.04386725591048496,47039.3606502525
0.0455892949998106,46086.59709984439
0.047378933909631396,45118.82372766077
0.049238826317067365,44149.4904098166
0.05117173007114603,43190.358891109645
0.05318051128214196,42245.83507137966
0.05526814857144601,41317.43610804387
0.057437737488265785,40404.1606230708
0.0596924950997073,39501.82833766828
0.0620357647610427,38605.191716062836
0.06447102107323864,37706.135826607686
0.06700187503509585,36796.43937888205
0.06963207939763882,35867.637674693906
0.0723655342286965,34911.68268484484
0.07520629269592405,33920.61009506864
0.07815856707684081,32887.18708332472
0.08122673500479707,31805.172215702318
0.08441534596012978,30671.93364095859
0.0877291280161335,29489.711464197357
0.09117299484984914,28268.68793531976
0.09475205302806537,27027.071487411635
0.09847160957933764,25788.06357870512
0.1023371798632519,24576.561157511696
0.10635449574860109,23422.103240250934
0.11052951411260206,22340.748062765888
0.1148684256737553,21336.69744082722
0.1193776641714435,20412.93561757575
0.1240639159058831,19563.117048978496
0.12893412965257148,18769.999004571233
0.13399552696593373,18006.896600740263
0.1392556128874462,17243.407332590636
0.14472218707411338,16455.269870068543
0.15040335536380234,15631.47923762178
0.15630754179458153,14777.321956837728
0.16244350109588662,13913.592846862122
0.16882033167003618,13071.463371598607
0.17544748908334581,12282.743567428739
0.1823348000868439,11569.875630581124
0.189492477187382,10939.387985706699
0.19693113379074215,10376.729337391329
0.20466179993919872,9847.415903847806
0.21269593866686892,9315.574024225823
0.22104546299710207,8765.98822159266
0.22972275360711503,8205.917401630148
0.23874067718606454,7658.104696892234
0.2481126055137766,7151.675873671595
0.25785243528842716,6701.08124542631
0.26797460873256895,6297.818646142986
0.27849413500806414,5920.495208078065
0.28942661247167484,5546.928618125349
0.3007882518043098,5171.7050904414245
0.31259590004822796,4809.350976605235
0.324867065587837,4478.471695349636
0.3376199441111335,4181.02330315443
0.35087344559027084,3903.9877245440475
0.36464722232127456,3635.926027929874
0.37896169806447155,3376.229529115347
0.3938380983288488,3133.211406190727
0.4092984818452433,2911.592501022143
0.4253657732750382,2705.843648367207
0.44206379720285277,2509.448644269242
0.45941731346364734,2324.141662139973
0.47745205385661277,2152.6525499284016
0.4961947603002895,1993.8806333559382
0.5156732244854959,1844.77031688782
0.5359163290848509,1705.041727456884
0.556954090580013,1575.7299229337923
0.5788177037701272,1455.3979787140447
0.6015395880274836,1343.2067445014256
0.6251534353689703,1238.9813252840288
0.6496942604146115,1142.3774522153337
0.6751984523072497,1052.6090244862387
0.7017038286703824,969.3906682574233
0.7292496916841444,892.3580292132575
0.7578768863625915,820.9624218460672
0.7876278611187046,754.9254463706332
0.8185467307069019,693.846920596457
0.850679341636415,637.4069685199786
0.8840733401525058,585.283404346354
0.9187782428863317,537.1735134059669
0.9548455102782278,492.79326299595635
0.9923286228832539,451.8769194500892
1.0312831606721837,414.1755601347802
1.0717668854455022,379.45595635879874
1.1138398264826193,347.49980374219933
1.1575643695533022,318.10296720992613
1.2030053494233226,291.07462857075393
1.2502301459914542,266.2365309098937
1.299308784200415,243.4225199776943
1.3503140378698726,222.4778758457975
1.4033215376054824,203.2586441083854
1.4584098829439835,185.6309868794563
1.5156607589006013,169.47050977899073
1.575159057091621,154.66173110621622
1.6369930016117014,141.0975656971172
1.7012542798525885,128.67878543591573
1.7680381784572046,117.31350678835535
1.8374437246107238,106.91668619084412
1.9095738328780953,97.40964038066683
1.9845354578058014,88.71966711872801
2.0624397525140905,80.77964047990156
2.143402233514853,73.52762063205458
2.227542951999554,66.90648547257936
2.314986671851158,60.8635633368452
2.405863054644063,55.350325521893545
2.5003068519063225,50.32210733413757
2.598458104929248,45.737822603098856
2.7004623524206774,41.55969645203884
2.806470846309834,37.75301279589046
2.916640776023701,34.28587486946767
3.031135501567576,31.129001975703382
3.150124795755327,28.255530624068037
3.2737850959485697,25.640826256505726
3.4022997656780634,23.26230830576125
3.5358593665351745,21.099283247887957
3.6746619407366854,19.132795889571135
3.8189133047818515,17.345496909218234
3.968827354637162,15.721513579637703
4.1246263829013445,14.24632988600373
4.286541408420921,12.906675247722475
4.4548125188449825,11.69042015843222
4.629689226627261,10.586484772913508
4.811430839003257,9.584752916360822
5.000306842491082,8.67599158107891
5.196597302486189,7.851776786067679
5.400593278542364,7.104424273464362
5.612597255954967,6.4269266150973925
5.8329235942862,5.812897616349279
6.06189899349756,5.25651928130361
6.29986297838068,4.75249292962293
6.547168402004727,4.295994100764018
6.804181968927091,3.8826297589294216
7.071284778942991,3.5084023623288316
7.348872892180382,3.1696764287431614
7.637357916378006,2.8631466411339423
7.937167617217536,2.585808665718743
8.248746552614573,2.3349338858457194
8.572556731909314,2.1080461501101255
8.909078300934132,1.902895680389279
9.258810253973934,1.717438522427708
9.622271173675122,1.5498183114674282
9.999999999999984,1.3983490456947578
