k [1/Mpc],P(k) [Mpc^3]
0.0001,254.17098030817058
0.00010392556829367125,263.3848881813929
0.00010800523745162529,272.932658026114
0.00011224505680853065,282.8263536757019
0.00011665131316981963,293.07847086851064
0.00012123054013376525,303.70196818071213
0.00012598952777950273,314.71028212656324
0.00013093533273536104,326.1173316453815
0.00013607528864243335,337.9375253434084
0.00014141701702890234,350.18578702663217
0.00014696843861124463,362.877571540161
0.00015273778503907136,376.0288813841596
0.00015873361110102093,389.65629318520797
0.00016496480740980205,403.7769844235904
0.0001714406135851971,418.40875177062355
0.00017817063195457305,433.5700262511998
0.00018516484179121546,449.2798902507018
0.000192433614111598,465.55810644425765
0.00019998772705352857,482.4251256526189
0.0002078383818579757,499.90211364193743
0.00021599721947827182,518.010991136927
0.0002244763378413224,536.7744687024463
0.0002332883097864157,556.2160668779102
0.00024244620170823283,576.3601216945735
0.0002519635929317015,597.2318055151683
0.0002618545958474233,618.857173506207
0.0002721338768375308,641.2631673632975
0.0002828166780230032,664.4776609640985
0.0002939188398646886,688.5295215325192
0.0003054568246515432,713.4486644055918
0.00031744774091091926,739.2660531843001
0.00032990936877709396,766.0136313817408
0.00034286018635565856,793.7243736296248
0.00035631939712285854,822.4323988997728
0.000370306958400514,852.1730408123351
0.00038484361094874304,882.982858486999
0.0003999509097203664,914.899609677889
0.00041565125582259895,947.96227121639
0.00043196792973341727,982.2111278681565
0.0004489251258218605,1017.6877526625926
0.0004665479882234472,1054.4350838869332
0.000484862648123908,1092.4974712572177
0.000503896262506515,1131.9206926798843
0.0005236770544204653,1172.7520271488547
0.0005442343548300266,1215.0402102772484
0.0005655986461065005,1258.8354978068587
0.0005878016072274912,1304.189747819042
0.0006108761607505036,1351.156404976076
0.0006348565216305217,1399.7905977228454
0.0006597782479539537,1450.1490714374672
0.0006856782936641739,1502.2901970204925
0.0007125950633568407,1556.274125209077
0.0007405684692262436,1612.1627425441964
0.0007696399902471156,1670.0197706036404
0.0007998527336796708,1729.91074689735
0.000831251498989063,1791.9029598008162
0.0008638828442740447,1856.065621566925
0.000897795155303332,1922.4696867518223
0.0009330387172620361,1991.1879461486187
0.0009696657893145519,2062.2951368638996
0.001007730682094461,2135.8677908229683
0.0010472898382363582,2211.984426394864
0.0010884019160690055,2290.725306425196
0.0011311278765939214,2372.17238764899
0.001175531073878369,2456.409556018526
0.0012216773489967915,2543.5222182562593
0.0012696351276599736,2633.5975687634245
0.0013194755216767058,2726.724392798604
0.0013712724343984,2822.9927021192107
0.0014251026703029975,2922.494199594438
0.0014810460488806749,3025.321772190414
0.0015391855229902056,3131.5696070528434
0.001599607301861487,3241.3331385016795
0.0016624009789266115,3354.7082074361197
0.0017276596646690358,3471.7917152003934
0.0017954801246878305,3592.681026305149
0.0018659629231817451,3717.4737463200936
0.001939212572065829,3846.2680598866887
0.0020153376859417325,3979.1616236560108
0.002094451143151469,4116.252055763436
0.002176670253153458,4257.636247046854
0.002262116930469025,4403.409371830023
0.002350917875457286,4553.66586544799
0.002443204762186487,4708.498411720351
0.0025391144336803463,4867.997993184081
0.002638789104828933,5032.253398052322
0.002742376573264949,5201.349254607131
0.0028500304385181063,5375.367318465677
0.0029619103297725525,5554.385148903281
0.0030781821425650787,5738.475565818809
0.003199018284775064,5927.707015459571
0.0033245979322709396,6122.141012856968
0.003455107294592217,6321.833124150123
0.0035907398910610534,6526.831450957015
0.0037316968377327513,6737.174647094852
0.0038781871456107214,6952.893579111052
0.0040304280305680515,7174.008367805744
0.00418864523543527,7400.528704702128
0.004353073364731888,7632.452939676489
0.00452395623253805,7869.763865527074
0.004701547224022131,8112.431548443987
0.004886109671160325,8360.409577679598
0.005077917243205399,8613.63403793597
0.005277254352483535,8872.024801489737
0.005484416576121017,9135.479314434711
0.005699711094326071,9403.875591650361
0.005923457145875801,9677.064984584238
0.006155986501483508,9954.865308410646
0.006397643955748424,10237.07227219455
0.0066487878384172625,10523.470219340827
0.0069097905457156435,10813.827514990842
0.007181039092537346,11107.863875156172
0.007462935686310132,11405.200877005034
0.007755898323389004,11705.415152411357
0.00806036140886134,12008.068554038724
0.008376776400682916,12312.70817882794
0.008705612479099857,12618.846041402881
0.009047357242349292,12925.94429373541
0.00940251742967013,13233.425174835871
0.009771619672696168,13540.644647134683
0.010155211276345676,13846.87318242036
0.010553861030365234,14151.332811333355
0.010968160052731372,14453.168789812373
0.011398722666160517,14751.465677734941
0.011846187309026826,15045.249165985713
0.012311217482038896,15333.458734537431
0.012794502732078732,15614.983901562946
0.013296759674662111,15888.62708123931
0.013818733056536317,16153.111118324068
0.014361196859990781,16407.107140325126
0.014924955450518284,16649.177763230713
0.015510844769528393,16877.837370911362
0.016119733573881575,17091.52749059854
0.01675252472408214,17288.59898712563
0.017410156523040152,17467.385051854904
0.018093604107387147,17626.137190118243
0.01880388089340914,17763.084960206237
0.019542040079740527,17876.453480791624
0.02030917620904734,17964.416465829654
0.021106426791015535,18025.20431623108
0.021934973989050584,18057.069838159474
0.02279604637318978,18058.325581898585
0.023690920741826323,18027.415183816112
0.02462092401494623,17962.886241084303
0.02558743520168586,17863.472288257755
0.02659188744512693,17728.147328882184
0.027635770147361564,17556.15441152255
0.028720631177978267,17347.03222144327
0.029848079169243254,17100.71767613796
0.03101978590138095,16817.506685239485
0.03223748878149028,16498.205082100973
0.0335029934197723,16144.356030166566
0.03481817630688963,15757.842014844386
0.03618498759642746,15340.962837677644
0.037605453996581675,14896.356082659073
0.03908168177536263,14427.41429550135
0.04061585988376978,13939.902064236347
0.04221026320156896,13439.807916947017
0.04386725591048496,12931.686736496873
0.0455892949998106,12418.519087192806
0.047378933909631396,11903.577751644716
0.049238826317067365,11393.70045212745
0.05117173007114603,10896.417081624655
0.05318051128214196,10418.09999445135
0.05526814857144601,9964.062336338084
0.057437737488265785,9538.579395717721
0.0596924950997073,9144.972465219458
0.0620357647610427,8785.545294544592
0.06447102107323864,8460.887846662743
0.06700187503509585,8170.574608190335
0.06963207939763882,7912.474185724715
0.0723655342286965,7683.374838344116
0.07520629269592405,7478.531561583267
0.07815856707684081,7291.641770791858
0.08122673500479707,7114.971388610285
0.08441534596012978,6939.161349672561
0.0877291280161335,6754.045822561894
0.09117299484984914,6549.565866181958
0.09475205302806537,6317.252210667565
0.09847160957933764,6051.268992503588
0.1023371798632519,5750.83344809176
0.10635449574860109,5419.910201431601
0.11052951411260206,5066.085209214424
0.1148684256737553,4700.602532389198
0.1193776641714435,4337.873405046702
0.1240639159058831,3994.295287488
0.12893412965257148,3685.799496467587
0.13399552696593373,3424.862797325086
0.1392556128874462,3218.0071373033247
0.14472218707411338,3064.420516456754
0.15040335536380234,2955.7895971985467
0.15630754179458153,2877.0472725745676
0.16244350109588662,2808.071203621851
0.16882033167003618,2727.0257014241033
0.17544748908334581,2615.486367498929
0.1823348000868439,2463.9473292886655
0.189492477187382,2275.7882358338416
0.19693113379074215,2067.990351922925
0.20466179993919872,1866.3116755013054
0.21269593866686892,1695.470851787731
0.22104546299710207,1570.1424097980416
0.22972275360711503,1491.284945625354
0.23874067718606454,1445.2039227764083
0.2481126055137766,1406.1926308775298
0.25785243528842716,1347.5016322614504
0.26797460873256895,1255.7988594673182
0.27849413500806414,1138.6578134152792
0.28942661247167484,1020.615959536717
0.3007882518043098,927.2794681865142
0.31259590004822796,869.4130209459101
0.324867065587837,836.7654030007601
0.3376199441111335,804.5916144107273
0.35087344559027084,752.5427291261349
0.36464722232127456,681.6750285854033
0.37896169806447155,612.78892804371
0.3938380983288488,564.6418885003906
0.4092984818452433,536.4851584250905
0.4253657732750382,510.1076800729682
0.44206379720285277,470.91958729617
0.45941731346364734,425.0877523925993
0.47745205385661277,388.83438485491877
0.4961947603002895,365.70890310845033
0.5156732244854959,343.5094801439543
0.5359163290848509,314.24415001220876
0.556954090580013,285.73182878488075
0.5788177037701272,265.4471078491508
0.6015395880274836,247.86511441476972
0.6251534353689703,226.98000144054524
0.6496942604146115,207.52346240665088
0.6751984523072497,192.62375525601695
0.7017038286703824,177.76984438555505
0.7292496916841444,162.49476442341356
0.7578768863625915,149.8682393341532
0.7876278611187046,138.12298766875958
0.8185467307069019,126.9379325480236
0.850679341636415,116.56354118881846
0.8840733401525058,106.99012816119293
0.9187782428863317,98.17565925261886
0.9548455102782278,90.06162303999635
0.9923286228832539,82.59358706458933
1.0312831606721837,75.72134049313951
1.0717668854455022,69.3985597114349
1.1138398264826193,63.582584579392126
1.1575643695533022,58.23444213553766
1.2030053494233226,53.31816619816653
1.2502301459914542,48.800419328492644
1.299308784200415,44.650311280006804
1.3503140378698726,40.83922976770517
1.4033215376054824,37.3407776874275
1.4584098829439835,34.130695272338535
1.5156607589006013,31.186484406402084
1.575159057091621,28.487265372618086
1.6369930016117014,26.013674740962433
1.7012542798525885,23.747766267476674
1.7680381784572046,21.67287863167269
1.8374437246107238,19.773565645568688
1.9095738328780953,18.035562197767494
1.9845354578058014,16.445702432372535
2.0624397525140905,14.991840932092096
2.143402233514853,13.662779718088355
2.227542951999554,12.448203441508623
2.314986671851158,11.338610273053519
2.405863054644063,10.32524934914103
2.5003068519063225,9.400065248968675
2.598458104929248,8.555646205506667
2.7004623524206774,7.785174413563868
2.806470846309834,7.082379014526204
2.916640776023701,6.441498823326699
3.031135501567576,5.857243920070597
3.150124795755327,5.324759058487989
3.2737850959485697,4.839589701808349
3.4022997656780634,4.397649874363312
3.5358593665351745,3.995193095709334
3.6746619407366854,3.6287864370354668
3.8189133047818515,3.295285484661014
3.968827354637162,2.9918111196019535
4.1246263829013445,2.7157280031706703
4.286541408420921,2.464624255415465
4.4548125188449825,2.2362936381563263
4.629689226627261,2.0287190764167327
4.811430839003257,1.8400570338280016
5.000306842491082,1.6686231134468588
5.196597302486189,1.5128787702679278
5.400593278542364,1.371419036853148
5.612597255954967,1.242961421493892
5.8329235942862,1.1263356101902238
6.06189899349756,1.0204739658158253
6.29986297838068,0.9244027964751161
6.547168402004727,0.8372340523741476
6.804181968927091,0.7581578952804593
7.071284778942991,0.6864365331991563
7.348872892180382,0.6213980270425697
7.637357916378006,0.5624305576865549
7.937167617217536,0.5089772149196568
8.248746552614573,0.46053169963586943
8.572556731909314,0.4166335753695028
8.909078300934132,0.37686374131617195
9.258810253973934,0.3408408213348233
9.622271173675122,0.3082178696755371
9.999999999999984,0.2786790553039358
