k [1/Mpc],P(k) [Mpc^3]
0.0001,598.1196338580364
0.00010392556829367125,621.59212779776
0.00010800523745162529,645.9852205702574
0.00011224505680853065,671.3349103307245
0.00011665131316981963,697.6785932129907
0.00012123054013376525,725.0551597261566
0.00012598952777950273,753.5050431814087
0.00013093533273536104,783.0702400639747
0.00013607528864243335,813.7943332447869
0.00014141701702890234,845.7225892087716
0.00014696843861124463,878.902036194424
0.00015273778503907136,913.3815325663238
0.00015873361110102093,949.2118275796597
0.00016496480740980205,986.445608728689
0.0001714406135851971,1025.1375930916904
0.00017817063195457305,1065.3446031322649
0.00018516484179121546,1107.1256398736248
0.000192433614111598,1150.54197944268
0.00019998772705352857,1195.6572615492541
0.0002078383818579757,1242.53757894637
0.00021599721947827182,1291.2515164932763
0.0002244763378413224,1341.8701608530548
0.0002332883097864157,1394.4672961973745
0.00024244620170823283,1449.1195860130447
0.0002519635929317015,1505.9066750815161
0.0002618545958474233,1564.9112014816837
0.0002721338768375308,1626.218743751734
0.0002828166780230032,1689.9180630212486
0.0002939188398646886,1756.1012494461597
0.0003054568246515432,1824.8638375093346
0.00031744774091091926,1896.3049376504755
0.00032990936877709396,1970.5273085189895
0.00034286018635565856,2047.6375193423862
0.00035631939712285854,2127.745970634025
0.000370306958400514,2210.9668838881444
0.00038484361094874304,2297.4186436174573
0.0003999509097203664,2387.223961073371
0.00041565125582259895,2480.5100249057145
0.00043196792973341727,2577.408519395573
0.0004489251258218605,2678.05547286613
0.0004665479882234472,2782.591696566082
0.000484862648123908,2891.162976438482
0.000503896262506515,3003.9202304245146
0.0005236770544204653,3121.0196057623716
0.0005442343548300266,3242.622236551854
0.0005655986461065005,3368.894676931282
0.0005878016072274912,3500.0089424984
0.0006108761607505036,3636.142503704027
0.0006348565216305217,3777.47874466418
0.0006597782479539537,3924.2070115717115
0.0006856782936641739,4076.5228398147146
0.0007125950633568407,4234.627809407793
0.0007405684692262436,4398.729122806056
0.0007696399902471156,4569.04039935657
0.0007998527336796708,4745.781609749126
0.000831251498989063,4929.179256487612
0.0008638828442740447,5119.466486638629
0.000897795155303332,5316.882432450438
0.0009330387172620361,5521.672962340127
0.0009696657893145519,5734.090196109616
0.001007730682094461,5954.392322922364
0.0010472898382363582,6182.844333219544
0.0010884019160690055,6419.717148128943
0.0011311278765939214,6665.28821783938
0.001175531073878369,6919.840712185335
0.0012216773489967915,7183.662273487107
0.0012696351276599736,7457.046660420398
0.0013194755216767058,7740.29272632293
0.0013712724343984,8033.704673961912
0.0014251026703029975,8337.591440695545
0.0014810460488806749,8652.264017095811
0.0015391855229902056,8978.037630215491
0.001599607301861487,9315.230386445168
0.0016624009789266115,9664.162837256026
0.0017276596646690358,10025.158189865602
0.0017954801246878305,10398.538453654342
0.0018659629231817451,10784.626385072104
0.001939212572065829,11183.743719380458
0.0020153376859417325,11596.209118142237
0.002094451143151469,12022.339891093661
0.002176670253153458,12462.447958592871
0.002262116930469025,12916.84059798485
0.002350917875457286,13385.818882915766
0.002443204762186487,13869.673287564197
0.0025391144336803463,14368.686419718339
0.002638789104828933,14883.12839869435
0.002742376573264949,15413.256153842156
0.0028500304385181063,15959.313173066497
0.0029619103297725525,16521.522928455866
0.0030781821425650787,17100.0916405512
0.003199018284775064,17695.203178192434
0.0033245979322709396,18307.015894503773
0.003455107294592217,18935.6640633058
0.0035907398910610534,19581.247491401296
0.0037316968377327513,20243.83461040963
0.0038781871456107214,20923.457970659354
0.0040304280305680515,21620.106576468566
0.00418864523543527,22333.73065335285
0.004353073364731888,23064.22774069747
0.00452395623253805,23811.444140092706
0.004701547224022131,24575.175961465036
0.004886109671160325,25355.159462751835
0.005077917243205399,26151.074014595044
0.005277254352483535,26962.504428943485
0.005484416576121017,27788.93665199878
0.005699711094326071,28629.802220189842
0.005923457145875801,29484.540786546062
0.006155986501483508,30352.5473780576
0.006397643955748424,31232.97754320362
0.0066487878384172625,32124.650963263863
0.0069097905457156435,33026.28405404395
0.007181039092537346,33936.71786472243
0.007462935686310132,34854.8134674228
0.007755898323389004,35779.21569141201
0.00806036140886134,36708.172860893384
0.008376776400682916,37639.77876285323
0.008705612479099857,38572.16335944188
0.009047357242349292,39503.465712621604
0.00940251742967013,40431.64588932708
0.009771619672696168,41354.26308695304
0.010155211276345676,42268.682465429105
0.010553861030365234,43172.077017155454
0.010968160052731372,44061.42081989857
0.011398722666160517,44933.54074908855
0.011846187309026826,45785.0246414753
0.012311217482038896,46612.303854049576
0.012794502732078732,47411.63463125974
0.013296759674662111,48179.054379306464
0.013818733056536317,48910.490036513766
0.014361196859990781,49601.585908462686
0.014924955450518284,50247.81561884238
0.015510844769528393,50844.56821016266
0.016119733573881575,51387.063769953595
0.01675252472408214,51870.52922601358
0.017410156523040152,52290.11301767509
0.018093604107387147,52640.94591244884
0.01880388089340914,52918.29551455337
0.019542040079740527,53117.50803695216
0.02030917620904734,53234.17186067394
0.021106426791015535,53264.203702744235
0.021934973989050584,53203.90378513166
0.02279604637318978,53050.06152310452
0.023690920741826323,52800.18430056175
0.02462092401494623,52452.439478427754
0.02558743520168586,52005.881688913396
0.02659188744512693,51460.77423165253
0.027635770147361564,50818.173242730736
0.028720631177978267,50080.738684926335
0.029848079169243254,49252.371746886456
0.03101978590138095,48338.08363908997
0.03223748878149028,47345.229881162755
0.0335029934197723,46281.82819718111
0.03481817630688963,45157.56446568488
0.03618498759642746,43983.61054610425
0.037605453996581675,42771.500683268976
0.03908168177536263,41536.08756749647
0.04061585988376978,40292.353627331075
0.04221026320156896,39053.52740273438
0.04386725591048496,37830.90458563426
0.0455892949998106,36635.16300259802
0.047378933909631396,35482.18254103936
0.049238826317067365,34389.23949225994
0.05117173007114603,33367.76897203167
0.05318051128214196,32420.86840833781
0.05526814857144601,31549.088068941164
0.057437737488265785,30747.56879491983
0.0596924950997073,30009.486258692585
0.0620357647610427,29323.052027224796
0.06447102107323864,28674.416037155454
0.06700187503509585,28045.490708221132
0.06963207939763882,27415.858513014147
0.0723655342286965,26761.290707748936
0.07520629269592405,26056.0164062375
0.07815856707684081,25274.771612682944
0.08122673500479707,24397.951672649546
0.08441534596012978,23418.641796923184
0.0877291280161335,22342.831311518505
0.09117299484984914,21183.64833330108
0.09475205302806537,19969.73386804598
0.09847160957933764,18741.417585426778
0.1023371798632519,17542.794182357025
0.10635449574860109,16420.56046370878
0.11052951411260206,15416.728963752174
0.1148684256737553,14561.934254737593
0.1193776641714435,13867.48036254517
0.1240639159058831,13318.864964276001
0.12893412965257148,12877.787052695645
0.13399552696593373,12489.471227044458
0.1392556128874462,12093.037692645852
0.14472218707411338,11633.403362561865
0.15040335536380234,11074.40660386308
0.15630754179458153,10410.395213380973
0.16244350109588662,9670.262800213784
0.16882033167003618,8912.155637949783
0.17544748908334581,8209.875200776843
0.1823348000868439,7627.749697866571
0.189492477187382,7190.267947547161
0.19693113379074215,6871.77464031416
0.20466179993919872,6612.772011732186
0.21269593866686892,6340.624365850113
0.22104546299710207,5996.570158244899
0.22972275360711503,5572.470252220037
0.23874067718606454,5115.224287392931
0.2481126055137766,4694.967419387332
0.25785243528842716,4365.75492812221
0.26797460873256895,4129.188034458078
0.27849413500806414,3935.3462253691478
0.28942661247167484,3720.77988742854
0.3007882518043098,3457.4707441654446
0.31259590004822796,3173.8542130598107
0.324867065587837,2923.346210938012
0.3376199441111335,2733.3163465574635
0.35087344559027084,2578.5763916448004
0.36464722232127456,2416.1137864374273
0.37896169806447155,2231.850148682918
0.3938380983288488,2053.6000707152907
0.4092984818452433,1907.8571764793564
0.4253657732750382,1785.2833659599662
0.44206379720285277,1660.5578991611474
0.45941731346364734,1530.9185022603738
0.47745205385661277,1414.8058527683297
0.4961947603002895,1315.7168078637533
0.5156732244854959,1220.4452956338039
0.5359163290848509,1125.7434064147137
0.556954090580013,1040.5705226004295
0.5788177037701272,964.1128050441616
0.6015395880274836,890.2198289942252
0.6251534353689703,821.2761481298444
0.6496942604146115,758.9239007866942
0.6751984523072497,700.1532130746358
0.7017038286703824,645.4432428607166
0.7292496916841444,595.3373018102147
0.7578768863625915,548.7273045440134
0.7876278611187046,505.4020861912869
0.8185467307069019,465.24079800815025
0.850679341636415,428.1061445851776
0.8840733401525058,393.82032800438145
0.9187782428863317,362.1701837036112
0.9548455102782278,332.955897562041
0.9923286228832539,305.9931778552432
1.0312831606721837,281.1119765590018
1.0717668854455022,258.1556456192492
1.1138398264826193,236.98365817762314
1.1575643695533022,217.46793774935554
1.2030053494233226,199.4884915210177
1.2502301459914542,182.9329501699951
1.299308784200415,167.69619958279196
1.3503140378698726,153.67987225948752
1.4033215376054824,140.7913462900615
1.4584098829439835,128.94420878258785
1.5156607589006013,118.05824865591394
1.575159057091621,108.05905172453527
1.6369930016117014,98.87761783340889
1.7012542798525885,90.45002046631082
1.7680381784572046,82.7170969719555
1.8374437246107238,75.62406266746598
1.9095738328780953,69.12020184031752
1.9845354578058014,63.158590430924825
2.0624397525140905,57.69583498930711
2.143402233514853,52.69181571900467
2.227542951999554,48.109455247803695
2.314986671851158,43.91452409977613
2.405863054644063,40.07543830003509
2.5003068519063225,36.563068196228265
2.598458104929248,33.350559115311505
2.7004623524206774,30.41315469065794
2.806470846309834,27.728047410528976
2.916640776023701,25.27424356781753
3.031135501567576,23.032426962814426
3.150124795755327,20.98483180751369
3.2737850959485697,19.115124199348873
3.4022997656780634,17.4082903429062
3.5358593665351745,15.85053702062181
3.6746619407366854,14.42919818696936
3.8189133047818515,13.132647001034202
3.968827354637162,11.950214309457813
4.1246263829013445,10.872111994860377
4.286541408420921,9.8893609478037
4.4548125188449825,8.993730645968826
4.629689226627261,8.177680014078323
4.811430839003257,7.4343017980472546
5.000306842491082,6.757271212955893
5.196597302486189,6.140798305313842
5.400593278542364,5.57958418407506
5.612597255954967,5.068781253210193
5.8329235942862,4.603956086504772
6.06189899349756,4.181055180118177
6.29986297838068,3.7963733464098306
6.547168402004727,3.4465233338210193
6.804181968927091,3.1284098625129895
7.071284778942991,2.8392066459903393
7.348872892180382,2.576333676499484
7.637357916378006,2.337436311520972
7.937167617217536,2.1203663906658887
8.248746552614573,1.9231665991439684
8.572556731909314,1.7440521622949023
8.909078300934132,1.5813947627869518
9.258810253973934,1.433709239629803
9.622271173675122,1.2996413822971182
9.999999999999984,1.1779549796409066
