k [1/Mpc],P(k) [Mpc^3]
0.0001,118.08070686666862
0.00010392556829367125,123.42618020309217
0.00010800523745162529,129.013581572627
0.00011224505680853065,134.85386227445994
0.00011665131316981963,140.95846245459768
0.00012123054013376525,147.33933250264536
0.00012598952777950273,154.0089608808129
0.00013093533273536104,160.98039460152117
0.00013607528864243335,168.26726724174355
0.00014141701702890234,175.8838375553402
0.00014696843861124463,183.84502473144278
0.00015273778503907136,192.16642113683315
0.00015873361110102093,200.86429330976628
0.00016496480740980205,209.95562402105284
0.0001714406135851971,219.45817027968408
0.00017817063195457305,229.39051678506016
0.00018516484179121546,239.77209044615057
0.000192433614111598,250.62317760793397
0.00019998772705352857,261.9649641984676
0.0002078383818579757,273.81958540230147
0.00021599721947827182,286.2101603289934
0.0002244763378413224,299.1608427498841
0.0002332883097864157,312.6968811092908
0.00024244620170823283,326.8446715804426
0.0002519635929317015,341.6317918271713
0.0002618545958474233,357.0870221792522
0.0002721338768375308,373.24041592593
0.0002828166780230032,390.1233775487785
0.0002939188398646886,407.7687325415821
0.0003054568246515432,426.2107724652612
0.00031744774091091926,445.4852772694607
0.00032990936877709396,465.6295911576793
0.00034286018635565856,486.6827239504074
0.00035631939712285854,508.6854434057959
0.000370306958400514,531.6803323278408
0.00038484361094874304,555.7118242771919
0.0003999509097203664,580.8262792289725
0.00041565125582259895,607.0720967904542
0.00043196792973341727,634.4997876675773
0.0004489251258218605,663.162076309059
0.0004665479882234472,693.1139766385564
0.000484862648123908,724.4128724892329
0.000503896262506515,757.1186478109045
0.0005236770544204653,791.293778356669
0.0005442343548300266,827.0034480532529
0.0005655986461065005,864.3156404721985
0.0005878016072274912,903.3012066285908
0.0006108761607505036,944.0340356281683
0.0006348565216305217,986.5911263195427
0.0006597782479539537,1031.0527192406123
0.0006856782936641739,1077.5024593429291
0.0007125950633568407,1126.027485303616
0.0007405684692262436,1176.7186068842043
0.0007696399902471156,1229.670363161817
0.0007998527336796708,1284.98112949168
0.000831251498989063,1342.7533696382486
0.0008638828442740447,1403.0937718767873
0.000897795155303332,1466.1134265158364
0.0009330387172620361,1531.9278541110768
0.0009696657893145519,1600.6570033039277
0.001007730682094461,1672.4256379138824
0.0010472898382363582,1747.3634865352783
0.0010884019160690055,1825.6054348751602
0.0011311278765939214,1907.2915975002045
0.001175531073878369,1992.567163043322
0.0012216773489967915,2081.5828701027344
0.0012696351276599736,2174.495068756518
0.0013194755216767058,2271.465870279508
0.0013712724343984,2372.66341632813
0.0014251026703029975,2478.2616738431548
0.0014810460488806749,2588.440859206834
0.0015391855229902056,2703.3873379990555
0.001599607301861487,2823.293487186861
0.0016624009789266115,2948.3582969745357
0.0017276596646690358,3078.7869931598084
0.0017954801246878305,3214.7913954941805
0.0018659629231817451,3356.5900493549784
0.001939212572065829,3504.407853675511
0.0020153376859417325,3658.476650020536
0.002094451143151469,3819.034464696568
0.002176670253153458,3986.3256109268086
0.002262116930469025,4160.601147797371
0.002350917875457286,4342.117962616044
0.002443204762186487,4531.139488505023
0.0025391144336803463,4727.93491413402
0.002638789104828933,4932.77866669285
0.002742376573264949,5145.951198779449
0.0028500304385181063,5367.737563827448
0.0029619103297725525,5598.427933987477
0.0030781821425650787,5838.317060464549
0.003199018284775064,6087.702953909863
0.0033245979322709396,6346.887738869623
0.003455107294592217,6616.174941674352
0.0035907398910610534,6895.869569130899
0.0037316968377327513,7186.278625757081
0.0038781871456107214,7487.709272944651
0.0040304280305680515,7800.469281094886
0.00418864523543527,8124.863728897684
0.004353073364731888,8461.19365503785
0.00452395623253805,8809.757110859515
0.004701547224022131,9170.845238325324
0.004886109671160325,9544.743113827217
0.005077917243205399,9931.726293892358
0.005277254352483535,10332.056922392969
0.005484416576121017,10745.98620765056
0.005699711094326071,11173.749450688054
0.005923457145875801,11615.565857625064
0.006155986501483508,12071.632545747541
0.006397643955748424,12542.111758937916
0.0066487878384172625,13027.141230251282
0.0069097905457156435,13526.848782104915
0.007181039092537346,14041.350140732857
0.007462935686310132,14570.715671867272
0.007755898323389004,15114.898355539357
0.00806036140886134,15673.783991563034
0.008376776400682916,16247.251362691284
0.008705612479099857,16835.18936262067
0.009047357242349292,17437.434319404325
0.00940251742967013,18053.68047279348
0.009771619672696168,18683.51856268327
0.010155211276345676,19326.49490685239
0.010553861030365234,19982.140449550083
0.010968160052731372,20649.920305039257
0.011398722666160517,21329.152949680734
0.011846187309026826,22019.02251953546
0.012311217482038896,22718.61176883293
0.012794502732078732,23426.875701118515
0.013296759674662111,24142.66131623501
0.013818733056536317,24864.687491039644
0.014361196859990781,25591.53939868696
0.014924955450518284,26321.683167211526
0.015510844769528393,27053.431790898263
0.016119733573881575,27784.96897684309
0.01675252472408214,28514.32776074632
0.017410156523040152,29239.365996807344
0.018093604107387147,29957.815910966056
0.01880388089340914,30667.263565419435
0.019542040079740527,31365.16833194953
0.02030917620904734,32048.876274505063
0.021106426791015535,32715.609662431474
0.021934973989050584,33362.503902670716
0.02279604637318978,33986.63554393727
0.023690920741826323,34585.0369608982
0.02462092401494623,35154.725645170336
0.02558743520168586,35692.78900347262
0.02659188744512693,36196.34922603827
0.027635770147361564,36662.670884541425
0.028720631177978267,37089.222494562004
0.029848079169243254,37473.62007956868
0.03101978590138095,37813.96793936692
0.03223748878149028,38108.67321456355
0.0335029934197723,38356.46097693392
0.03481817630688963,38556.56068341177
0.03618498759642746,38708.51869450186
0.037605453996581675,38813.245225619685
0.03908168177536263,38872.645669389676
0.04061585988376978,38888.77192677881
0.04221026320156896,38863.673254642905
0.04386725591048496,38799.48839460814
0.0455892949998106,38698.24942318553
0.047378933909631396,38561.85206896374
0.049238826317067365,38392.84887002637
0.05117173007114603,38197.0800500224
0.05318051128214196,37981.41785945924
0.05526814857144601,37750.92556478992
0.057437737488265785,37507.78280910122
0.0596924950997073,37253.40798222432
0.0620357647610427,36986.13001654523
0.06447102107323864,36702.97827165687
0.06700187503509585,36398.96256129117
0.06963207939763882,36067.53640746379
0.0723655342286965,35701.77995210629
0.07520629269592405,35294.521666818466
0.07815856707684081,34838.778746798685
0.08122673500479707,34327.915671411894
0.08441534596012978,33755.76739170554
0.0877291280161335,33117.48268469914
0.09117299484984914,32410.96916537049
0.09475205302806537,31639.131261733233
0.09847160957933764,30810.910538229335
0.1023371798632519,29942.61009060162
0.10635449574860109,29055.096384551216
0.11052951411260206,28171.05545526778
0.1148684256737553,27310.91749004618
0.1193776641714435,26488.166619045805
0.1240639159058831,25715.626427030584
0.12893412965257148,24999.457667547056
0.13399552696593373,24326.12446211752
0.1392556128874462,23673.14762442654
0.14472218707411338,23011.790302197864
0.15040335536380234,22313.163044070076
0.15630754179458153,21558.770011291133
0.16244350109588662,20747.37667985019
0.16882033167003618,19895.340970207486
0.17544748908334581,19031.99938717132
0.1823348000868439,18191.475147898924
0.189492477187382,17402.20742385494
0.19693113379074215,16678.94403191196
0.20466179993919872,16019.582215889603
0.21269593866686892,15403.168465664414
0.22104546299710207,14793.677703976682
0.22972275360711503,14159.789640557648
0.23874067718606454,13495.317680776754
0.2481126055137766,12817.429599726662
0.25785243528842716,12157.42259159197
0.26797460873256895,11547.839739406703
0.27849413500806414,10996.476296904715
0.28942661247167484,10481.713472584863
0.3007882518043098,9973.839257455478
0.31259590004822796,9455.66583400862
0.324867065587837,8937.439651645931
0.3376199441111335,8443.910524941342
0.35087344559027084,7989.730955161467
0.36464722232127456,7565.6355725524645
0.37896169806447155,7154.234698067206
0.3938380983288488,6748.382970146049
0.4092984818452433,6355.532127799319
0.4253657732750382,5987.3147478793035
0.44206379720285277,5643.463838614269
0.45941731346364734,5313.216581518896
0.47745205385661277,4993.2134362623465
0.4961947603002895,4690.257698805237
0.5156732244854959,4405.788295566303
0.5359163290848509,4135.38996308563
0.556954090580013,3877.617788739869
0.5788177037701272,3633.490397098563
0.6015395880274836,3403.7419502005705
0.6251534353689703,3185.976277208348
0.6496942604146115,2980.0793000685135
0.6751984523072497,2786.155338904346
0.7017038286703824,2603.2170513058054
0.7292496916841444,2430.8468741992515
0.7578768863625915,2268.7165968574145
0.7876278611187046,2116.126402444697
0.8185467307069019,1972.8369466071515
0.850679341636415,1838.1576574246837
0.8840733401525058,1711.7781179584708
0.9187782428863317,1593.3103346118617
0.9548455102782278,1482.3108036509548
0.9923286228832539,1378.3581172311328
1.0312831606721837,1281.0609020465552
1.0717668854455022,1190.0558236317518
1.1138398264826193,1104.9940038957043
1.1575643695533022,1025.540275109533
1.2030053494233226,951.3732004261527
1.2502301459914542,882.1843580016302
1.299308784200415,817.6762767114493
1.3503140378698726,757.5651371172532
1.4033215376054824,701.5813469051027
1.4584098829439835,649.4690964033474
1.5156607589006013,600.9859140353682
1.575159057091621,555.902439135637
1.6369930016117014,514.0018568158656
1.7012542798525885,475.0791425451108
1.7680381784572046,438.9406009442599
1.8374437246107238,405.40341591015505
1.9095738328780953,374.29508967045285
1.9845354578058014,345.452778998888
2.0624397525140905,318.72324979404675
2.143402233514853,293.9625124577563
2.227542951999554,271.03536746641305
2.314986671851158,249.81495904296366
2.405863054644063,230.1822849209044
2.5003068519063225,212.02582092109017
2.598458104929248,195.241181181499
2.7004623524206774,179.7307273988906
2.806470846309834,165.40319186766
2.916640776023701,152.17330264958645
3.031135501567576,139.9614214738082
3.150124795755327,128.69325191551044
3.2737850959485697,118.29952799507234
3.4022997656780634,108.7157106104513
3.5358593665351745,99.88169416764998
3.6746619407366854,91.74148932707344
3.8189133047818515,84.24299897584828
3.968827354637162,77.33780610394393
4.1246263829013445,70.98093613202893
4.286541408420921,65.13063202147563
4.4548125188449825,59.748137198696654
4.629689226627261,54.79749255302329
4.811430839003257,50.24536029922855
5.000306842491082,46.06084778235798
5.196597302486189,42.215340405223905
5.400593278542364,38.6823438870299
5.612597255954967,35.437331118920376
5.8329235942862,32.45761068367786
6.06189899349756,29.72220174853769
6.29986297838068,27.211712585760324
6.547168402004727,24.90822686360118
6.804181968927091,22.79518865875646
7.071284778942991,20.85730143218556
7.348872892180382,19.080452591153104
7.637357916378006,17.451627440320962
7.937167617217536,15.958827476243078
8.248746552614573,14.590998255273394
8.572556731909314,13.337976358880194
8.909078300934132,12.19040181973108
9.258810253973934,11.139647989813641
9.622271173675122,10.177767160477773
9.999999999999984,9.297438907145304
