k [1/Mpc],P(k) [Mpc^3]
0.0001,220.0359023687805
0.00010392556829367125,228.67095537296407
0.00010800523745162529,237.6446816021498
0.00011224505680853065,246.97032094396693
0.00011665131316981963,256.6616285793347
0.00012123054013376525,266.73291129338503
0.00012598952777950273,277.19904130672586
0.00013093533273536104,288.07546508239324
0.00013607528864243335,299.37821783831646
0.00014141701702890234,311.12395628757486
0.00014696843861124463,323.32998141685215
0.00015273778503907136,336.01426388168835
0.00015873361110102093,349.19547018989545
0.00016496480740980205,362.89298637288425
0.0001714406135851971,377.12694839005223
0.00017817063195457305,391.9182688541888
0.00018516484179121546,407.2886663610946
0.000192433614111598,423.260691760439
0.00019998772705352857,439.85772984927485
0.0002078383818579757,457.1040517056032
0.00021599721947827182,475.0248686005276
0.0002244763378413224,493.64637406328274
0.0002332883097864157,512.9957640530265
0.00024244620170823283,533.101242856984
0.0002519635929317015,553.9920741208557
0.0002618545958474233,575.6986229904581
0.0002721338768375308,598.2523790532074
0.0002828166780230032,621.6860181588539
0.0002939188398646886,646.0334329398913
0.0003054568246515432,671.3297795731478
0.00031744774091091926,697.6115206963702
0.00032990936877709396,724.916432926733
0.00034286018635565856,753.2836878715136
0.00035631939712285854,782.7538855999331
0.000370306958400514,813.3690984552005
0.00038484361094874304,845.1729337303947
0.0003999509097203664,878.2105152611737
0.00041565125582259895,912.528580808856
0.00043196792973341727,948.1755316596581
0.0004489251258218605,985.2014620472675
0.0004665479882234472,1023.6582483263704
0.000484862648123908,1063.5995157882771
0.000503896262506515,1105.080730779109
0.0005236770544204653,1148.1592718572958
0.0005442343548300266,1192.894424146872
0.0005655986461065005,1239.3475038572606
0.0005878016072274912,1287.581815828434
0.0006108761607505036,1337.6627193335185
0.0006348565216305217,1389.6577286398065
0.0006597782479539537,1443.6364258298943
0.0006856782936641739,1499.6706368382188
0.0007125950633568407,1557.8344542176098
0.0007405684692262436,1618.20426689191
0.0007696399902471156,1680.8588382918488
0.0007998527336796708,1745.8790137733288
0.000831251498989063,1813.3479662845602
0.0008638828442740447,1883.3513505784197
0.000897795155303332,1955.9773159018744
0.0009330387172620361,2031.3165531843426
0.0009696657893145519,2109.461773931938
0.001007730682094461,2190.5079086939454
0.0010472898382363582,2274.55234253902
0.0010884019160690055,2361.694706334791
0.0011311278765939214,2452.0371061119326
0.001175531073878369,2545.6836130123734
0.0012216773489967915,2642.740240825153
0.0012696351276599736,2743.315232067663
0.0013194755216767058,2847.518444966515
0.0013712724343984,2955.4617574708195
0.0014251026703029975,3067.258528683126
0.0014810460488806749,3183.0231989315107
0.0015391855229902056,3302.8718482158524
0.001599607301861487,3426.9213243635104
0.0016624009789266115,3555.2895490310957
0.0017276596646690358,3688.09514822629
0.0017954801246878305,3825.4565797743135
0.0018659629231817451,3967.4928086936266
0.001939212572065829,4114.321974818707
0.0020153376859417325,4266.061460749236
0.002094451143151469,4422.827861025685
0.002176670253153458,4584.73538636283
0.002262116930469025,4751.896777543947
0.002350917875457286,4924.422341302772
0.002443204762186487,5102.419476480804
0.0025391144336803463,5285.992581839418
0.002638789104828933,5475.240395653897
0.002742376573264949,5670.25708004187
0.0028500304385181063,5871.131378201424
0.0029619103297725525,6077.94539837144
0.0030781821425650787,6290.774991598768
0.003199018284775064,6509.68620518241
0.0033245979322709396,6734.736003134133
0.003455107294592217,6965.971769011817
0.0035907398910610534,7203.428817575631
0.0037316968377327513,7447.131567698266
0.0038781871456107214,7697.089512535264
0.0040304280305680515,7953.296982385668
0.00418864523543527,8215.733107918226
0.004353073364731888,8484.356701142739
0.00452395623253805,8759.109053290402
0.004701547224022131,9039.911217705134
0.004886109671160325,9326.662450834569
0.005077917243205399,9619.238537438061
0.005277254352483535,9917.474647312725
0.005484416576121017,10221.175022267029
0.005699711094326071,10530.133623394493
0.005923457145875801,10844.145158588186
0.006155986501483508,11162.97233131943
0.006397643955748424,11486.250994900925
0.0066487878384172625,11813.525772012374
0.0069097905457156435,12144.33279224224
0.007181039092537346,12478.256497516471
0.007462935686310132,12814.857000643126
0.007755898323389004,13153.56984698259
0.00806036140886134,13493.714946056443
0.008376776400682916,13834.57853110602
0.008705612479099857,14175.46578571013
0.009047357242349292,14515.655534419991
0.00940251742967013,14854.316433218968
0.009771619672696168,15190.487890487988
0.010155211276345676,15523.148513180102
0.010553861030365234,15851.187600404535
0.010968160052731372,16173.430112366557
0.011398722666160517,16488.62579526292
0.011846187309026826,16795.428563281293
0.012311217482038896,17092.43864879545
0.012794502732078732,17378.155898911216
0.013296759674662111,17651.009987792902
0.013818733056536317,17909.363705281146
0.014361196859990781,18151.45264343215
0.014924955450518284,18375.47736487531
0.015510844769528393,18579.56051177575
0.016119733573881575,18761.769374935033
0.01675252472408214,18920.167184435843
0.017410156523040152,19052.739662242417
0.018093604107387147,19157.50160361738
0.01880388089340914,19232.483732128938
0.019542040079740527,19275.73722759495
0.02030917620904734,19285.432233519983
0.021106426791015535,19259.820140407497
0.021934973989050584,19197.31396137873
0.02279604637318978,19096.542201490185
0.023690920741826323,18956.368259867293
0.02462092401494623,18775.949044816658
0.02558743520168586,18554.84687378624
0.02659188744512693,18293.013657697673
0.027635770147361564,17990.83958474256
0.028720631177978267,17649.329836947563
0.029848079169243254,17269.898431299393
0.03101978590138095,16854.79691685481
0.03223748878149028,16407.00462671213
0.0335029934197723,15929.817416979235
0.03481817630688963,15427.209870758274
0.03618498759642746,14903.355491645465
0.037605453996581675,14363.939096634262
0.03908168177536263,13816.425398239413
0.04061585988376978,13267.506845255428
0.04221026320156896,12721.778687859009
0.04386725591048496,12182.724250960586
0.0455892949998106,11655.62447386454
0.047378933909631396,11149.49427898901
0.049238826317067365,10672.188415503366
0.05117173007114603,10228.760239330906
0.05318051128214196,9822.5517725222
0.05526814857144601,9455.398604593274
0.057437737488265785,9127.888885355465
0.0596924950997073,8839.06722344481
0.0620357647610427,8586.323944258505
0.06447102107323864,8365.613266893319
0.06700187503509585,8171.41312613901
0.06963207939763882,7996.267116199925
0.0723655342286965,7831.217033542933
0.07520629269592405,7665.256327918923
0.07815856707684081,7486.019907285055
0.08122673500479707,7280.999409201339
0.08441534596012978,7041.477273450244
0.0877291280161335,6760.444857760567
0.09117299484984914,6434.463494601143
0.09475205302806537,6067.299121130587
0.09847160957933764,5668.839751167235
0.1023371798632519,5253.860080220479
0.10635449574860109,4840.847057433063
0.11052951411260206,4450.284664399728
0.1148684256737553,4101.442810497909
0.1193776641714435,3809.0265208424607
0.1240639159058831,3580.48184748842
0.12893412965257148,3414.467373817592
0.13399552696593373,3301.0884989501665
0.1392556128874462,3223.1219622761914
0.14472218707411338,3157.6385418901364
0.15040335536380234,3079.019317791366
0.15630754179458153,2964.4651037961926
0.16244350109588662,2800.911403286793
0.16882033167003618,2590.7120588870544
0.17544748908334581,2353.4473161060255
0.1823348000868439,2120.7446492741146
0.189492477187382,1923.541704739314
0.19693113379074215,1779.717039167953
0.20466179993919872,1690.2950603873694
0.21269593866686892,1640.5767760699634
0.22104546299710207,1601.8157550447017
0.22972275360711503,1541.8307698079059
0.23874067718606454,1442.8305216183342
0.2481126055137766,1311.658795144501
0.25785243528842716,1176.1420053939491
0.26797460873256895,1067.0622819047378
0.27849413500806414,998.4584849552008
0.28942661247167484,960.7474090238886
0.3007882518043098,926.4769332925699
0.31259590004822796,870.9821452916646
0.324867065587837,792.7413928795291
0.3376199441111335,713.6991938501543
0.35087344559027084,656.2371920252247
0.36464722232127456,622.1590566949956
0.37896169806447155,592.6817033143088
0.3938380983288488,550.2815896855509
0.4092984818452433,499.0633410043429
0.4253657732750382,456.1959650948779
0.44206379720285277,427.97247705858985
0.45941731346364734,402.70066947332447
0.47745205385661277,370.63639375929955
0.4961947603002895,337.8772648667667
0.5156732244854959,313.26333489548375
0.5359163290848509,292.7215769439734
0.556954090580013,269.48095974073755
0.5788177037701272,246.8729381985608
0.6015395880274836,228.8688723175268
0.6251534353689703,211.84944030670184
0.6496942604146115,194.353362675379
0.6751984523072497,179.23095937396147
0.7017038286703824,165.5351293221493
0.7292496916841444,152.08165586081955
0.7578768863625915,139.84614398313155
0.7876278611187046,128.71246948533656
0.8185467307069019,118.4800630445566
0.850679341636415,108.99961784553022
0.8840733401525058,100.20914522804426
0.9187782428863317,92.07235236283948
0.9548455102782278,84.55271458804937
0.9923286228832539,77.61385267075967
1.0312831606721837,71.21987901825244
1.0717668854455022,65.33440113154852
1.1138398264826193,59.91870343471352
1.1575643695533022,54.93617200050586
1.2030053494233226,50.35302429049449
1.2502301459914542,46.138087684530134
1.299308784200415,42.26259862008606
1.3503140378698726,38.70025488186898
1.4033215376054824,35.4271217388501
1.4584098829439835,32.420988221696625
1.5156607589006013,29.66121108114874
1.575159057091621,27.128618671398815
1.6369930016117014,24.805416687408616
1.7012542798525885,22.675044167952333
1.7680381784572046,20.722112281732983
1.8374437246107238,18.932397162720356
1.9095738328780953,17.29276065014979
1.9845354578058014,15.791072641535381
2.0624397525140905,14.416139196196415
2.143402233514853,13.157640904292933
2.227542951999554,12.006064146092783
2.314986671851158,10.952637128223577
2.405863054644063,9.989275526074817
2.5003068519063225,9.108531834158695
2.598458104929248,8.303547485029029
2.7004623524206774,7.568006251186121
2.806470846309834,6.896096735562159
2.916640776023701,6.282475459393005
3.031135501567576,5.722231034852041
3.150124795755327,5.210850897796546
3.2737850959485697,4.744190037165624
3.4022997656780634,4.318441736612687
3.5358593665351745,3.93011238321945
3.6746619407366854,3.5759970528603784
3.8189133047818515,3.2531566287581675
3.968827354637162,2.958896633429082
4.1246263829013445,2.690747322199105
4.286541408420921,2.44644549965514
4.4548125188449825,2.2239185174441514
4.629689226627261,2.0212688620148556
4.811430839003257,1.8367598646165495
5.000306842491082,1.668802521874605
5.196597302486189,1.5159432466250786
5.400593278542364,1.3768527274440516
5.612597255954967,1.250315767229923
5.8329235942862,1.1352217924360692
6.06189899349756,1.0305561154032015
6.29986297838068,0.9353918594515417
6.547168402004727,0.848882214930954
6.804181968927091,0.77025397495467
7.071284778942991,0.6988015854948793
7.348872892180382,0.6338813734796388
7.637357916378006,0.5749062488609985
7.937167617217536,0.521340962532734
8.248746552614573,0.47269811306558507
8.572556731909314,0.42853343481314915
8.909078300934132,0.3884418415036355
9.258810253973934,0.35205407152409557
9.622271173675122,0.31903360983216195
9.999999999999984,0.289073345020445
