k [1/Mpc],P(k) [Mpc^3]
0.0001,380.8044037672614
0.00010392556829367125,394.59671038901314
0.00010800523745162529,408.8873545032075
0.00011224505680853065,423.6941824996952
0.00011665131316981963,439.03564136205586
0.00012123054013376525,454.9308279933236
0.00012598952777950273,471.3995188247268
0.00013093533273536104,488.46218521654214
0.00013607528864243335,506.1400105250707
0.00014141701702890234,524.4549142574024
0.00014696843861124463,543.4295671126952
0.00015273778503907136,563.0873661152483
0.00015873361110102093,583.4524970232968
0.00016496480740980205,604.54996235343
0.0001714406135851971,626.405601551027
0.00017817063195457305,649.0461272102605
0.00018516484179121546,672.4991133483728
0.000192433614111598,696.7930438728697
0.00019998772705352857,721.9573335721133
0.0002078383818579757,748.0223268567365
0.00021599721947827182,775.0193621090771
0.0002244763378413224,802.9807463544731
0.0002332883097864157,831.9397987702235
0.00024244620170823283,861.9308867381869
0.0002519635929317015,892.9893826058558
0.0002618545958474233,925.1517580407977
0.0002721338768375308,958.4555233085847
0.0002828166780230032,992.939241742479
0.0002939188398646886,1028.6426355489507
0.0003054568246515432,1065.6065462037996
0.00031744774091091926,1103.8730097418072
0.00032990936877709396,1143.4851961585332
0.00034286018635565856,1184.4873636060536
0.00035631939712285854,1226.9249893201952
0.000370306958400514,1270.8445818367106
0.00038484361094874304,1316.293797890182
0.0003999509097203664,1363.3214804680938
0.00041565125582259895,1411.9775522218717
0.00043196792973341727,1462.3131669794577
0.0004489251258218605,1514.3805860251148
0.0004665479882234472,1568.2332114294056
0.000484862648123908,1623.9255589030806
0.000503896262506515,1681.5128753756394
0.0005236770544204653,1741.0514656860848
0.0005442343548300266,1802.598631156143
0.0005655986461065005,1866.2126217153968
0.0005878016072274912,1931.9526741879408
0.0006108761607505036,1999.878544257889
0.0006348565216305217,2070.0507578357274
0.0006597782479539537,2142.5304987851714
0.0006856782936641739,2217.379372293003
0.0007125950633568407,2294.6595972764676
0.0007405684692262436,2374.4332701510457
0.0007696399902471156,2456.762559016634
0.0007998527336796708,2541.709665928276
0.000831251498989063,2629.336182913824
0.0008638828442740447,2719.703545997819
0.000897795155303332,2812.872083775653
0.0009330387172620361,2908.9009472615226
0.0009696657893145519,3007.8483353655574
0.001007730682094461,3109.770298392328
0.0010472898382363582,3214.721385230148
0.0010884019160690055,3322.7536328919186
0.0011311278765939214,3433.915957271457
0.001175531073878369,3548.2549320991816
0.0012216773489967915,3665.813780745657
0.0012696351276599736,3786.632583306419
0.0013194755216767058,3910.747094699639
0.0013712724343984,4038.187234310276
0.0014251026703029975,4168.978442356335
0.0014810460488806749,4303.140313538993
0.0015391855229902056,4440.686630369467
0.001599607301861487,4581.624964496287
0.0016624009789266115,4725.954828631994
0.0017276596646690358,4873.668719431037
0.0017954801246878305,5024.750501524238
0.0018659629231817451,5179.174956675121
0.001939212572065829,5336.908164984018
0.0020153376859417325,5497.905529743352
0.002094451143151469,5662.112501079665
0.002176670253153458,5829.462842416513
0.002262116930469025,5999.877343525686
0.002350917875457286,6173.265103954425
0.002443204762186487,6349.521327559211
0.0025391144336803463,6528.527897813521
0.002638789104828933,6710.152322327386
0.002742376573264949,6894.245606666269
0.0028500304385181063,7080.64409351541
0.0029619103297725525,7269.1670790613525
0.0030781821425650787,7459.617127213281
0.003199018284775064,7651.779154921379
0.0033245979322709396,7845.4153085337675
0.003455107294592217,8040.269683997597
0.0035907398910610534,8236.068925059644
0.0037316968377327513,8432.522168032043
0.0038781871456107214,8629.315467911822
0.0040304280305680515,8826.086861654578
0.00418864523543527,9022.445855151607
0.004353073364731888,9218.023817233532
0.00452395623253805,9412.498517863898
0.004701547224022131,9605.517837491749
0.004886109671160325,9796.520340238721
0.005077917243205399,9984.823498513582
0.005277254352483535,10169.795947621786
0.005484416576121017,10350.970224330556
0.005699711094326071,10527.884218994504
0.005923457145875801,10699.909426735929
0.006155986501483508,10866.285832751617
0.006397643955748424,11026.268644341217
0.0066487878384172625,11179.22796702417
0.0069097905457156435,11324.554947337354
0.007181039092537346,11461.530123546285
0.007462935686310132,11589.311773059262
0.007755898323389004,11707.040788978296
0.00806036140886134,11813.804415232878
0.008376776400682916,11908.67821327043
0.008705612479099857,11990.725060346016
0.009047357242349292,12058.984949789688
0.00940251742967013,12112.51343003923
0.009771619672696168,12150.308987065862
0.010155211276345676,12171.368002744235
0.010553861030365234,12174.691582031508
0.010968160052731372,12159.217263252252
0.011398722666160517,12123.942917082695
0.011846187309026826,12067.845323451671
0.012311217482038896,11989.926335837818
0.012794502732078732,11889.2835064757
0.013296759674662111,11764.996498691082
0.013818733056536317,11616.29375722246
0.014361196859990781,11442.478105481086
0.014924955450518284,11242.933273312561
0.015510844769528393,11017.285867488854
0.016119733573881575,10765.247724893954
0.01675252472408214,10486.804856220631
0.017410156523040152,10182.20771481308
0.018093604107387147,9851.909165559757
0.01880388089340914,9496.786269112159
0.019542040079740527,9117.997873277987
0.02030917620904734,8717.101287997808
0.021106426791015535,8296.117332877697
0.021934973989050584,7857.432853849408
0.02279604637318978,7403.908113746279
0.023690920741826323,6938.860318982487
0.02462092401494623,6465.987926651781
0.02558743520168586,5989.340691221465
0.02659188744512693,5513.402275954815
0.027635770147361564,5042.696914595635
0.028720631177978267,4582.001077043378
0.029848079169243254,4136.154994602337
0.03101978590138095,3709.475897984967
0.03223748878149028,3306.5426619027494
0.0335029934197723,2931.0073859289337
0.03481817630688963,2585.9074493333515
0.03618498759642746,2274.083473842627
0.037605453996581675,1996.6713928039171
0.03908168177536263,1754.736328417811
0.04061585988376978,1548.367858300317
0.04221026320156896,1376.6152557253126
0.04386725591048496,1238.5737834961826
0.0455892949998106,1132.4172876380403
0.047378933909631396,1054.7789255242953
0.049238826317067365,1002.7766556931025
0.05117173007114603,974.0595061678828
0.05318051128214196,966.9150346777107
0.05526814857144601,978.5159541693928
0.057437737488265785,1005.472487595484
0.0596924950997073,1042.4841607070375
0.0620357647610427,1082.778242617459
0.06447102107323864,1117.9730814012294
0.06700187503509585,1139.329254463744
0.06963207939763882,1139.0503908605167
0.0723655342286965,1111.5016480668037
0.07520629269592405,1053.2854636312222
0.07815856707684081,964.9723609016834
0.08122673500479707,851.8087409923695
0.08441534596012978,723.2114784215177
0.0877291280161335,592.1780162930298
0.09117299484984914,471.80006298484705
0.09475205302806537,371.9121008573367
0.09847160957933764,297.5410743803828
0.1023371798632519,249.46685640229828
0.10635449574860109,225.9016862748438
0.11052951411260206,223.9804441433802
0.1148684256737553,239.91261788923916
0.1193776641714435,267.84389874683103
0.1240639159058831,298.6179450298758
0.12893412965257148,319.7499093996254
0.13399552696593373,318.9739745177769
0.1392556128874462,291.2992777656213
0.14472218707411338,243.0224591970008
0.15040335536380234,187.80399287091373
0.15630754179458153,139.84662779030498
0.16244350109588662,108.50771311449046
0.16882033167003618,95.83488995577413
0.17544748908334581,99.0123094086693
0.1823348000868439,112.57474934188691
0.189492477187382,126.74176088244455
0.19693113379074215,129.47916912352633
0.20466179993919872,115.23335514655788
0.21269593866686892,90.26747755172998
0.22104546299710207,67.43413855121521
0.22972275360711503,55.04054493521397
0.23874067718606454,54.07011811496393
0.2481126055137766,60.00259017044419
0.25785243528842716,64.09261714371247
0.26797460873256895,59.15553697064199
0.27849413500806414,47.298298555973844
0.28942661247167484,37.11594781820396
0.3007882518043098,33.59449733036555
0.31259590004822796,35.18920318634439
0.324867065587837,35.977029479589156
0.3376199441111335,31.861928613029757
0.35087344559027084,25.82871898407105
0.36464722232127456,22.713003730835222
0.37896169806447155,22.679900954804392
0.3938380983288488,22.077669222949417
0.4092984818452433,19.14645303438073
0.4253657732750382,16.42857082254638
0.44206379720285277,15.574540529910584
0.45941731346364734,14.904088463194691
0.47745205385661277,13.157484584218922
0.4961947603002895,11.67183439102242
0.5156732244854959,11.006829214598454
0.5359163290848509,10.08484338765611
0.556954090580013,8.967861014906209
0.5788177037701272,8.084617835907423
0.6015395880274836,7.351689705766475
0.6251534353689703,6.72470766884408
0.6496942604146115,6.170491258081673
0.6751984523072497,5.664057910921513
0.7017038286703824,5.187225387966058
0.7292496916841444,4.735132933372084
0.7578768863625915,4.311390634504465
0.7876278611187046,3.9184724967545934
0.8185467307069019,3.557595376902392
0.850679341636415,3.2289603435276
0.8840733401525058,2.9317465145438915
0.9187782428863317,2.663082037979014
0.9548455102782278,2.4197002937417986
0.9923286228832539,2.1987785823599815
1.0312831606721837,1.9978749089348264
1.0717668854455022,1.8148718183333
1.1138398264826193,1.6480080478545507
1.1575643695533022,1.4959518302529096
1.2030053494233226,1.3575079759236142
1.2502301459914542,1.2315591038623717
1.299308784200415,1.1170633566666965
1.3503140378698726,1.0130512113028904
1.4033215376054824,0.918601316538082
1.4584098829439835,0.8328393159020998
1.5156607589006013,0.754969118859597
1.575159057091621,0.6842680968971042
1.6369930016117014,0.6200801853133218
1.7012542798525885,0.5618101074111617
1.7680381784572046,0.5089222217990539
1.8374437246107238,0.4609315424155255
1.9095738328780953,0.41739536484841366
1.9845354578058014,0.3779096876835209
2.0624397525140905,0.34210598293395056
2.143402233514853,0.3096479219380536
2.227542951999554,0.28022772641417465
2.314986671851158,0.2535650681001542
2.405863054644063,0.22940510839481418
2.5003068519063225,0.20751621608844015
2.598458104929248,0.18768788703450004
2.7004623524206774,0.1697289982858459
2.806470846309834,0.1534661631313484
2.916640776023701,0.1387417926532806
3.031135501567576,0.12541264923802437
3.150124795755327,0.1133485715776611
3.2737850959485697,0.10243130585740867
3.4022997656780634,0.09255336910643759
3.5358593665351745,0.08361711345884115
3.6746619407366854,0.07553392627308055
3.8189133047818515,0.0682234116238635
3.968827354637162,0.06161264101813155
4.1246263829013445,0.05563547355335396
4.286541408420921,0.05023194871859514
4.4548125188449825,0.04534770482984369
4.629689226627261,0.040933456198856286
4.811430839003257,0.03694452724892148
5.000306842491082,0.033340428579961556
5.196597302486189,0.030084467133681802
5.400593278542364,0.027143388640146142
5.612597255954967,0.02448707304589481
5.8329235942862,0.022088246128041406
6.06189899349756,0.0199222143167804
6.29986297838068,0.017966623851336433
6.547168402004727,0.01620124245854838
6.804181968927091,0.01460776075807807
7.071284778942991,0.013169611295726627
7.348872892180382,0.01187180495280215
7.637357916378006,0.010700782541669923
7.937167617217536,0.009644280517781838
8.248746552614573,0.008691212829818334
8.572556731909314,0.007831556780994554
8.909078300934132,0.007056248954975075
9.258810253973934,0.0063570946806293955
9.622271173675122,0.005726685965257767
9.999999999999984,0.005158322996477308
