k [1/Mpc],P(k) [Mpc^3]
0.0001,4744.550679730024
0.00010392556829367125,4930.192713903128
0.00010800523745162529,5123.04881750345
0.00011224505680853065,5323.393675127031
0.00011665131316981963,5531.511386602136
0.00012123054013376525,5747.695434769104
0.00012598952777950273,5972.2497763306965
0.00013093533273536104,6205.489318855353
0.00013607528864243335,6447.74024312085
0.00014141701702890234,6699.339650236139
0.00014696843861124463,6960.634955236927
0.00015273778503907136,7231.985324625851
0.00015873361110102093,7513.761587356703
0.00016496480740980205,7806.346660338975
0.0001714406135851971,8110.13584708924
0.00017817063195457305,8425.535794224561
0.00018516484179121546,8752.965934512662
0.000192433614111598,9092.858132196146
0.00019998772705352857,9445.65663699835
0.0002078383818579757,9811.818992711804
0.00021599721947827182,10191.813927892032
0.0002244763378413224,10586.12293305444
0.0002332883097864157,10995.240370046997
0.00024244620170823283,11419.672529143236
0.0002519635929317015,11859.93910699006
0.0002618545958474233,12316.570480790739
0.0002721338768375308,12790.10854703691
0.0002828166780230032,13281.107354549
0.0002939188398646886,13790.130324511802
0.0003054568246515432,14317.75265142152
0.00031744774091091926,14864.558349767556
0.00032990936877709396,15431.139517498163
0.00034286018635565856,16018.098470082146
0.00035631939712285854,16626.044608545522
0.000370306958400514,17255.595865037816
0.00038484361094874304,17907.37483839126
0.0003999509097203664,18582.0048720579
0.00041565125582259895,19280.114668825376
0.00043196792973341727,20002.33558701021
0.0004489251258218605,20749.301656665593
0.0004665479882234472,21521.64629995802
0.000484862648123908,22319.99495549011
0.000503896262506515,23144.97011131205
0.0005236770544204653,23997.18527559807
0.0005442343548300266,24877.24346410958
0.0005655986461065005,25785.73746332438
0.0005878016072274912,26723.239051612185
0.0006108761607505036,27690.30346784493
0.0006348565216305217,28687.45923575695
0.0006597782479539537,29715.200336762075
0.0006856782936641739,30773.993122126434
0.0007125950633568407,31864.25887137635
0.0007405684692262436,32986.377953799216
0.0007696399902471156,34140.68356593919
0.0007998527336796708,35327.44515067479
0.000831251498989063,36546.87913778793
0.0008638828442740447,37799.126612757485
0.000897795155303332,39084.25226217906
0.0009330387172620361,40402.25169063432
0.0009696657893145519,41753.04121643011
0.001007730682094461,43136.45727272281
0.0010472898382363582,44552.221393311054
0.0010884019160690055,45999.92612217327
0.0011311278765939214,47479.07040879516
0.001175531073878369,48989.104961591176
0.0012216773489967915,50529.39853982653
0.0012696351276599736,52099.153290045826
0.0013194755216767058,53697.34109057495
0.0013712724343984,55322.79042185326
0.0014251026703029975,56974.2273975765
0.0014810460488806749,58650.2610950087
0.0015391855229902056,60349.34515415858
0.001599607301861487,62069.7446764313
0.0016624009789266115,63809.562786747294
0.0017276596646690358,65566.75441522851
0.0017954801246878305,67339.12501170795
0.0018659629231817451,69124.31656788716
0.001939212572065829,70919.7892360325
0.0020153376859417325,72722.83344298438
0.002094451143151469,74530.57016113655
0.002176670253153458,76339.94835643545
0.002262116930469025,78147.7537422241
0.002350917875457286,79950.59658504519
0.002443204762186487,81744.92351713665
0.0025391144336803463,83527.00947577006
0.002638789104828933,85292.92926111455
0.002742376573264949,87038.61257646141
0.0028500304385181063,88759.92323161555
0.0029619103297725525,90452.66353510004
0.0030781821425650787,92112.36938457932
0.003199018284775064,93733.77928594581
0.0033245979322709396,95311.35202626575
0.003455107294592217,96840.63826452577
0.0035907398910610534,98318.73855525942
0.0037316968377327513,99742.28205252923
0.0038781871456107214,101103.29296989727
0.0040304280305680515,102391.63490571629
0.00418864523543527,103599.13832830093
0.004353073364731888,104722.10806573062
0.00452395623253805,105757.32169875462
0.004701547224022131,106698.32399059448
0.004886109671160325,107536.3933297595
0.005077917243205399,108263.70392487591
0.005277254352483535,108875.49647264637
0.005484416576121017,109367.85146009704
0.005699711094326071,109735.02511307223
0.005923457145875801,109969.26744391806
0.006155986501483508,110062.9452214372
0.006397643955748424,110007.91169568566
0.0066487878384172625,109796.25624952611
0.0069097905457156435,109420.63779430122
0.007181039092537346,108874.3000022835
0.007462935686310132,108151.17526518549
0.007755898323389004,107243.95336182986
0.00806036140886134,106145.2665765102
0.008376776400682916,104848.60884745159
0.008705612479099857,103347.47723669655
0.009047357242349292,101636.8909267825
0.00940251742967013,99711.29663807445
0.009771619672696168,97565.23153065672
0.010155211276345676,95195.43685512089
0.010553861030365234,92598.71176007514
0.010968160052731372,89774.72817509354
0.011398722666160517,86723.83591018585
0.011846187309026826,83446.30441796246
0.012311217482038896,79947.38890975591
0.012794502732078732,76234.64517216866
0.013296759674662111,72320.74336245072
0.013818733056536317,68219.06795742315
0.014361196859990781,63937.17194409517
0.014924955450518284,59493.331066599174
0.015510844769528393,54925.98356080677
0.016119733573881575,50287.5608176655
0.01675252472408214,45614.01985349001
0.017410156523040152,40878.32963819099
0.018093604107387147,36082.14107315685
0.01880388089340914,31365.868187658012
0.019542040079740527,26951.31551922837
0.02030917620904734,22909.30559840881
0.021106426791015535,18883.836379511766
0.021934973989050584,14674.012301418728
0.02279604637318978,10800.661740400748
0.023690920741826323,8077.844856629344
0.02462092401494623,6499.205263333363
0.02558743520168586,4621.220699742423
0.02659188744512693,2014.9999305707338
0.027635770147361564,479.19588916586116
0.028720631177978267,125.7898677424579
0.029848079169243254,84.74091688312927
0.03101978590138095,162.6303917181979
0.03223748878149028,452.6949675338638
0.0335029934197723,989.5649379018719
0.03481817630688963,1588.9328136914814
0.03618498759642746,2113.667412308554
0.037605453996581675,2522.6662398556145
0.03908168177536263,2780.814236498521
0.04061585988376978,2828.9638410231364
0.04221026320156896,2481.7165857467344
0.04386725591048496,1873.5632041414244
0.0455892949998106,1544.8319443768785
0.047378933909631396,1181.062882814406
0.049238826317067365,236.27266726148994
0.05117173007114603,23.86856058910219
0.05318051128214196,32.00964779866926
0.05526814857144601,227.42984553107814
0.057437737488265785,653.1290853644239
0.0596924950997073,1109.0011443053663
0.0620357647610427,1565.7072583777551
0.06447102107323864,1803.9924583203745
0.06700187503509585,1795.0812746821782
0.06963207939763882,1388.8797712164871
0.0723655342286965,1016.2948876285235
0.07520629269592405,581.4813768231504
0.07815856707684081,56.34770238450802
0.08122673500479707,17.52165307210347
0.08441534596012978,88.52224215343482
0.0877291280161335,279.2686242423257
0.09117299484984914,429.6336433328821
0.09475205302806537,386.9000284563921
0.09847160957933764,296.01002002449394
0.1023371798632519,35.40596511031124
0.10635449574860109,13.321786400830458
0.11052951411260206,91.97194394225559
0.1148684256737553,286.7120043875643
0.1193776641714435,370.6531431563296
0.1240639159058831,309.8953667835321
0.12893412965257148,140.3856275873097
0.13399552696593373,5.566999564590794
0.1392556128874462,4.889307326251204
0.14472218707411338,78.00668982373969
0.15040335536380234,71.97522047874914
0.15630754179458153,41.87406854941568
0.16244350109588662,0.11536967252052528
0.16882033167003618,54.46943343641865
0.17544748908334581,90.55511718900452
0.1823348000868439,41.79194883245284
0.189492477187382,4.1012586954054
0.19693113379074215,0.8229222890506878
0.20466179993919872,14.027052213094528
0.21269593866686892,7.494556143493767
0.22104546299710207,1.7414131211197161
0.22972275360711503,21.399923727239457
0.23874067718606454,17.649858851720886
0.2481126055137766,1.2497599521601044
0.25785243528842716,1.468047216382268
0.26797460873256895,1.5194918235535166
0.27849413500806414,1.2843719558525928
0.28942661247167484,6.685486851448713
0.3007882518043098,3.131178203063687
0.31259590004822796,0.02841970482031228
0.324867065587837,0.05030406703755516
0.3376199441111335,0.7776877056281155
0.35087344559027084,2.1474727907234423
0.36464722232127456,0.5400486688382267
0.37896169806447155,0.011692665359171238
0.3938380983288488,0.280676258033444
0.4092984818452433,0.8366360897282442
0.4253657732750382,0.2814441031249592
0.44206379720285277,0.09941828218660939
0.45941731346364734,0.3164873383363988
0.47745205385661277,0.3115443850426658
0.4961947603002895,0.11579114451234156
0.5156732244854959,0.06544879035779506
0.5359163290848509,0.0563597031150661
0.556954090580013,0.06423091357435866
0.5788177037701272,0.08415799234602483
0.6015395880274836,0.11012604278187225
0.6251534353689703,0.1267081672654357
0.6496942604146115,0.12617459038916318
0.6751984523072497,0.11313846008438172
0.7017038286703824,0.09508514843726333
0.7292496916841444,0.07796006278894041
0.7578768863625915,0.06490044362867113
0.7876278611187046,0.05626152006287665
0.8185467307069019,0.050451841189683475
0.850679341636415,0.04629580732033093
0.8840733401525058,0.043003391568961026
0.9187782428863317,0.03999976886136592
0.9548455102782278,0.03687964350109748
0.9923286228832539,0.033626628039902004
1.0312831606721837,0.030408761973714876
1.0717668854455022,0.027354243318545374
1.1138398264826193,0.024550082362819307
1.1575643695533022,0.02204828982450116
1.2030053494233226,0.019857174740589366
1.2502301459914542,0.017928233277848447
1.299308784200415,0.016214240376995592
1.3503140378698726,0.014677645115189547
1.4033215376054824,0.013288574907808466
1.4584098829439835,0.012023645630062009
1.5156607589006013,0.01086977554969491
1.575159057091621,0.009820027847209567
1.6369930016117014,0.008867477462043399
1.7012542798525885,0.008005163287928012
1.7680381784572046,0.007226209045691104
1.8374437246107238,0.006523648846681704
1.9095738328780953,0.005889895102453393
1.9845354578058014,0.005317904259338084
2.0624397525140905,0.004801406527425827
2.143402233514853,0.0043348142604911774
2.227542951999554,0.003913145486615902
2.314986671851158,0.003532045930181558
2.405863054644063,0.0031876941123614336
2.5003068519063225,0.002876621713520336
2.598458104929248,0.0025956764110553025
2.7004623524206774,0.0023419946270054684
2.806470846309834,0.0021129725824339486
2.916640776023701,0.0019062293664169256
3.031135501567576,0.0017196060985415792
3.150124795755327,0.0015511525931426197
3.2737850959485697,0.0013991072088273269
3.4022997656780634,0.0012618786530803957
3.5358593665351745,0.0011380302454366013
3.6746619407366854,0.0010262650440095741
3.8189133047818515,0.0009254111650464731
3.968827354637162,0.0008344097018716298
4.1246263829013445,0.0007523038982442354
4.286541408420921,0.00067822942225871
4.4548125188449825,0.0006114058892043746
4.629689226627261,0.0005511283825959902
4.811430839003257,0.0004967599745568654
5.000306842491082,0.00044772522674969714
5.196597302486189,0.00040350430702904987
5.400593278542364,0.00036362762300970274
5.612597255954967,0.0003276709833240533
5.8329235942862,0.0002952513265608953
6.06189899349756,0.00026602277348363764
6.29986297838068,0.0002396730448449916
6.547168402004727,0.00021592018073927422
6.804181968927091,0.00019450926283927217
7.071284778942991,0.00017521009976409743
7.348872892180382,0.00015781510137655158
7.637357916378006,0.00014213706054288732
7.937167617217536,0.000128007149886701
8.248746552614573,0.00011527328518427625
8.572556731909314,0.00010379867828597556
8.909078300934132,9.345986528181595e-05
9.258810253973934,8.414534882082852e-05
9.622271173675122,7.575445533728386e-05
9.999999999999984,6.819627656673023e-05
