k [1/Mpc],P(k) [Mpc^3]
0.0001,389.0653732174283
0.00010392556829367125,406.6648596233498
0.00010800523745162529,425.05915805430413
0.00011224505680853065,444.2840053887734
0.00011665131316981963,464.37673151198845
0.00012123054013376525,485.3763131553281
0.00012598952777950273,507.32342456593256
0.00013093533273536104,530.2605403462069
0.00013607528864243335,554.2320190477006
0.00014141701702890234,579.284185126726
0.00014696843861124463,605.4653949437537
0.00015273778503907136,632.8260823471355
0.00015873361110102093,661.4188884930882
0.00016496480740980205,691.2987649622313
0.0001714406135851971,722.5230726708705
0.00017817063195457305,755.151664866787
0.00018516484179121546,789.2469088981993
0.000192433614111598,824.8738510823312
0.00019998772705352857,862.1003328425401
0.0002078383818579757,900.9970944046712
0.00021599721947827182,941.6379096360816
0.0002244763378413224,984.0996325419803
0.0002332883097864157,1028.4623611360767
0.00024244620170823283,1074.8095354543768
0.0002519635929317015,1123.227985708446
0.0002618545958474233,1173.808170175732
0.0002721338768375308,1226.6442530334234
0.0002828166780230032,1281.8342658379463
0.0002939188398646886,1339.4802254168753
0.0003054568246515432,1399.6880980723547
0.00031744774091091926,1462.5681170177609
0.00032990936877709396,1528.2348796855654
0.00034286018635565856,1596.8074931789174
0.00035631939712285854,1668.4097446537396
0.000370306958400514,1743.1699460523375
0.00038484361094874304,1821.2213067121688
0.0003999509097203664,1902.7020372725442
0.00041565125582259895,1987.7554158827343
0.00043196792973341727,2076.5300883410987
0.0004489251258218605,2169.1798997857277
0.0004665479882234472,2265.8642070638366
0.000484862648123908,2366.7479679550756
0.000503896262506515,2472.001604958688
0.0005236770544204653,2581.801473653797
0.0005442343548300266,2696.32964961713
0.0005655986461065005,2815.7741410360422
0.0005878016072274912,2940.329068776435
0.0006108761607505036,3070.1942944286125
0.0006348565216305217,3205.5759463821964
0.0006597782479539537,3346.6859474712974
0.0006856782936641739,3493.7419873758404
0.0007125950633568407,3646.9679874276444
0.0007405684692262436,3806.593375884766
0.0007696399902471156,3972.8536246104286
0.0007998527336796708,4145.989522427257
0.000831251498989063,4326.246521979528
0.0008638828442740447,4513.875607807632
0.000897795155303332,4709.131688920842
0.0009330387172620361,4912.274152466567
0.0009696657893145519,5123.566365296367
0.001007730682094461,5343.274044286369
0.0010472898382363582,5571.666498808094
0.0010884019160690055,5809.0145664025395
0.0011311278765939214,6055.59055891555
0.001175531073878369,6311.668262339417
0.0012216773489967915,6577.520449348399
0.0012696351276599736,6853.419979204033
0.0013194755216767058,7139.637506576178
0.0013712724343984,7436.440392380565
0.0014251026703029975,7744.092866744526
0.0014810460488806749,8062.851441793731
0.0015391855229902056,8392.966363121703
0.001599607301861487,8734.679898302706
0.0016624009789266115,9088.223957122205
0.0017276596646690358,9453.820626825274
0.0017954801246878305,9831.67758853347
0.0018659629231817451,10221.988160686471
0.001939212572065829,10624.928979393291
0.0020153376859417325,11040.655112652646
0.002094451143151469,11469.302005483183
0.002176670253153458,11910.981012606087
0.002262116930469025,12365.778065517501
0.002350917875457286,12833.752059805669
0.002443204762186487,13314.928403253725
0.0025391144336803463,13809.30070622199
0.002638789104828933,14316.825617697981
0.002742376573264949,14837.419890419593
0.0028500304385181063,15370.959646282197
0.0029619103297725525,15917.269038283705
0.0030781821425650787,16476.123869322833
0.003199018284775064,17047.245032853665
0.0033245979322709396,17630.291366506164
0.003455107294592217,18224.865897140382
0.0035907398910610534,18830.511431241834
0.0037316968377327513,19446.709587790123
0.0038781871456107214,20072.84827046065
0.0040304280305680515,20708.175864427794
0.00418864523543527,21351.86377669996
0.004353073364731888,22003.149806417718
0.00452395623253805,22661.31320242002
0.004701547224022131,23325.427624434196
0.004886109671160325,23993.967901782537
0.005077917243205399,24665.181762338823
0.005277254352483535,25337.523358714243
0.005484416576121017,26009.70773603041
0.005699711094326071,26680.305919488575
0.005923457145875801,27347.30886739792
0.006155986501483508,28008.428986182586
0.006397643955748424,28661.435588598666
0.0066487878384172625,29304.274667388967
0.0069097905457156435,29934.79251932392
0.007181039092537346,30550.34231562342
0.007462935686310132,31147.97693836162
0.007755898323389004,31724.574604863774
0.00806036140886134,32276.749669703717
0.008376776400682916,32801.00390980159
0.008705612479099857,33293.61586421703
0.009047357242349292,33750.704581520644
0.00940251742967013,34168.261318081226
0.009771619672696168,34541.91232891496
0.010155211276345676,34867.22988146421
0.010553861030365234,35139.5033588729
0.010968160052731372,35353.765653728326
0.011398722666160517,35505.0936741857
0.011846187309026826,35588.17344151669
0.012311217482038896,35597.807137539254
0.012794502732078732,35528.76227991084
0.013296759674662111,35375.64024950052
0.013818733056536317,35133.5267802718
0.014361196859990781,34797.27683799364
0.014924955450518284,34362.22832148668
0.015510844769528393,33824.313627054646
0.016119733573881575,33179.56281248319
0.01675252472408214,32425.370857341044
0.017410156523040152,31559.532799865017
0.018093604107387147,30581.003319407417
0.01880388089340914,29490.5637145523
0.019542040079740527,28289.630842979477
0.02030917620904734,26982.298996141235
0.021106426791015535,25574.18162372496
0.021934973989050584,24072.79521653997
0.02279604637318978,22489.049749804715
0.023690920741826323,20834.94497666486
0.02462092401494623,19126.084525170667
0.02558743520168586,17380.255582684462
0.02659188744512693,15616.583051057803
0.027635770147361564,13857.920713058971
0.028720631177978267,12127.096382482036
0.029848079169243254,10448.822356177057
0.03101978590138095,8847.738860973592
0.03223748878149028,7345.459717719014
0.0335029934197723,5964.167866014175
0.03481817630688963,4722.610170280216
0.03618498759642746,3635.38713692734
0.037605453996581675,2710.3225086298403
0.03908168177536263,1945.4510972371527
0.04061585988376978,1336.148039066811
0.04221026320156896,875.5385975227138
0.04386725591048496,547.3422064547503
0.0455892949998106,327.1847488448063
0.047378933909631396,188.17911900675585
0.049238826317067365,108.15857602346107
0.05117173007114603,68.82529415297827
0.05318051128214196,54.122643520865374
0.05526814857144601,58.31465588688719
0.057437737488265785,83.80392837902635
0.0596924950997073,138.71096487959173
0.0620357647610427,236.3146534868747
0.06447102107323864,385.77019939561967
0.06700187503509585,589.6317671976308
0.06963207939763882,837.9626656938423
0.0723655342286965,1106.1244706480006
0.07520629269592405,1355.8945023861725
0.07815856707684081,1541.9155621615307
0.08122673500479707,1620.3447860528481
0.08441534596012978,1563.3532980410139
0.0877291280161335,1372.2527840756452
0.09117299484984914,1082.0945054140236
0.09475205302806537,752.2115423860974
0.09847160957933764,447.7851101312479
0.1023371798632519,217.85183617832485
0.10635449574860109,80.28377790821824
0.11052951411260206,20.661865561178654
0.1148684256737553,4.060490632345967
0.1193776641714435,3.5640827133218944
0.1240639159058831,15.089137087928917
0.12893412965257148,61.206723940351736
0.13399552696593373,159.36104248967345
0.1392556128874462,294.82599744909425
0.14472218707411338,411.0344296040491
0.15040335536380234,443.8133138175841
0.15630754179458153,368.4613633888875
0.16244350109588662,226.82526830287577
0.16882033167003618,96.79611269503867
0.17544748908334581,26.125803042984863
0.1823348000868439,5.595222436505475
0.189492477187382,6.036963505339028
0.19693113379074215,26.334350455577162
0.20466179993919872,80.9562020711558
0.21269593866686892,145.72393994951722
0.22104546299710207,161.58777772873665
0.22972275360711503,111.14451570842745
0.23874067718606454,45.51738948198101
0.2481126055137766,12.34390263956204
0.25785243528842716,7.269558351607072
0.26797460873256895,20.0788823796084
0.27849413500806414,51.47253953472379
0.28942661247167484,70.70514987913612
0.3007882518043098,50.562093476880044
0.31259590004822796,20.00416147827701
0.324867065587837,8.441286514256184
0.3376199441111335,13.113990468657827
0.35087344559027084,28.60439956322938
0.36464722232127456,33.48061583777202
0.37896169806447155,19.18627027393067
0.3938380983288488,8.814475863090774
0.4092984818452433,10.24974155373823
0.4253657732750382,17.733281025799222
0.44206379720285277,16.81356150724074
0.45941731346364734,9.201497753964784
0.47745205385661277,7.507152185324083
0.4961947603002895,10.896802416129757
0.5156732244854959,10.43413166426158
0.5359163290848509,6.876625767167923
0.556954090580013,5.926644329755273
0.5788177037701272,5.436988259558857
0.6015395880274836,5.117223311713585
0.6251534353689703,4.888692797313713
0.6496942604146115,4.690179746304586
0.6751984523072497,4.470751668840263
0.7017038286703824,4.196016280289941
0.7292496916841444,3.8799003192711776
0.7578768863625915,3.549057439610717
0.7876278611187046,3.224771592466666
0.8185467307069019,2.922555557087583
0.850679341636415,2.6526992757297663
0.8840733401525058,2.4182331178264342
0.9187782428863317,2.212560950082007
0.9548455102782278,2.0292025163329335
0.9923286228832539,1.8630939225292833
1.0312831606721837,1.710288799520887
1.0717668854455022,1.5677719719125998
1.1138398264826193,1.4342748128262477
1.1575643695533022,1.3100352146786327
1.2030053494233226,1.1951664319720232
1.2502301459914542,1.089588018874819
1.299308784200415,0.9930668009027313
1.3503140378698726,0.9052320845395528
1.4033215376054824,0.8253847853527575
1.4584098829439835,0.7527078419133305
1.5156607589006013,0.686477841819821
1.575159057091621,0.626056239784119
1.6369930016117014,0.5708783269634873
1.7012542798525885,0.5204516707486565
1.7680381784572046,0.4743761342307757
1.8374437246107238,0.4322964952002764
1.9095738328780953,0.393883646268704
1.9845354578058014,0.3588330451999834
2.0624397525140905,0.32686321145931485
2.143402233514853,0.29771207940332245
2.227542951999554,0.2711335488672668
2.314986671851158,0.2469021049045969
2.405863054644063,0.22481195341665886
2.5003068519063225,0.2046752929993607
2.598458104929248,0.18632075499347006
2.7004623524206774,0.16959245685844185
2.806470846309834,0.15434857887372036
2.916640776023701,0.1404594532660134
3.031135501567576,0.12780650981186134
3.150124795755327,0.11628135070578603
3.2737850959485697,0.10578487589090665
3.4022997656780634,0.09622628412442899
3.5358593665351745,0.08752254844901165
3.6746619407366854,0.0795979294868253
3.8189133047818515,0.07238334279216804
3.968827354637162,0.06581577824357912
4.1246263829013445,0.05983780653219172
4.286541408420921,0.05439721036661215
4.4548125188449825,0.04944636603080715
4.629689226627261,0.04494179215954654
4.811430839003257,0.04084379802015366
5.000306842491082,0.037116160613790306
5.196597302486189,0.03372579560803809
5.400593278542364,0.030642461042636213
5.612597255954967,0.027838592219991812
5.8329235942862,0.02528907774503721
6.06189899349756,0.022971043069615053
6.29986297838068,0.020863652986566783
6.547168402004727,0.01894793185576342
6.804181968927091,0.017206599012970978
7.071284778942991,0.015623918118024271
7.348872892180382,0.014185560338421435
7.637357916378006,0.012878479576847101
7.937167617217536,0.011690800801096614
8.248746552614573,0.0106117334252794
8.572556731909314,0.00963146006628608
8.909078300934132,0.008741037406559335
9.258810253973934,0.007932319729927834
9.622271173675122,0.007197889138763211
9.999999999999984,0.006530984005613003
