k [1/Mpc],P(k) [Mpc^3]
0.0001,2793.727999824291
0.00010392556829367125,2886.5658215310805
0.00010800523745162529,2982.4797672310333
0.00011224505680853065,3081.570593676389
0.00011665131316981963,3183.942133304878
0.00012123054013376525,3289.7016394981893
0.00012598952777950273,3398.960047332178
0.00013093533273536104,3511.831859925023
0.00013607528864243335,3628.4347776857176
0.00014141701702890234,3748.88987398481
0.00014696843861124463,3873.3220526936843
0.00015273778503907136,4001.8602816044936
0.00015873361110102093,4134.637595271441
0.00016496480740980205,4271.790794124761
0.0001714406135851971,4413.460477037776
0.00017817063195457305,4559.791512032162
0.00018516484179121546,4710.93310517591
0.000192433614111598,4867.038965788541
0.00019998772705352857,5028.26723849545
0.0002078383818579757,5194.780465693447
0.00021599721947827182,5366.745913707832
0.0002244763378413224,5544.335072500354
0.0002332883097864157,5727.724035718785
0.00024244620170823283,5917.093781608408
0.0002519635929317015,6112.630030594867
0.0002618545958474233,6314.523612322079
0.0002721338768375308,6522.969855035357
0.0002828166780230032,6738.168779493235
0.0002939188398646886,6960.325554322845
0.0003054568246515432,7189.650032608273
0.00031744774091091926,7426.357305465057
0.00032990936877709396,7670.6670136298335
0.00034286018635565856,7922.803169835364
0.00035631939712285854,8182.994906066043
0.000370306958400514,8451.475401250007
0.00038484361094874304,8728.482643456302
0.0003999509097203664,9014.25921676362
0.00041565125582259895,9309.051750139275
0.00043196792973341727,9613.111630306079
0.0004489251258218605,9926.693058654293
0.0004665479882234472,10250.053765246717
0.000484862648123908,10583.455422253423
0.000503896262506515,10927.162544967623
0.0005236770544204653,11281.44344690235
0.0005442343548300266,11646.568645746249
0.0005655986461065005,12022.810844180693
0.0005878016072274912,12410.445028798453
0.0006108761607505036,12809.745232353103
0.0006348565216305217,13220.986770625408
0.0006597782479539537,13644.44527899622
0.0006856782936641739,14080.395894204756
0.0007125950633568407,14529.113728916374
0.0007405684692262436,14990.869407273143
0.0007696399902471156,15465.931041231785
0.0007998527336796708,15954.56196489614
0.000831251498989063,16457.01706433937
0.0008638828442740447,16973.54646675427
0.000897795155303332,17504.390343745832
0.0009330387172620361,18049.779889976202
0.0009696657893145519,18609.93598906093
0.001007730682094461,19185.06224896543
0.0010472898382363582,19775.350149370384
0.0010884019160690055,20380.971349891373
0.0011311278765939214,21002.07682182369
0.001175531073878369,21638.800639108464
0.0012216773489967915,22291.25485389237
0.0012696351276599736,22959.53117743414
0.0013194755216767058,23643.691280998493
0.0013712724343984,24343.761671166347
0.0014251026703029975,25059.74075571258
0.0014810460488806749,25791.5887497809
0.0015391855229902056,26539.231140477572
0.001599607301861487,27302.555485573033
0.0016624009789266115,28081.40440843617
0.0017276596646690358,28875.58050869062
0.0017954801246878305,29684.83422637094
0.0018659629231817451,30508.865523438686
0.001939212572065829,31347.32389288429
0.0020153376859417325,32199.797362471803
0.002094451143151469,33065.81982179162
0.002176670253153458,33944.860961724844
0.002262116930469025,34836.32453807626
0.002350917875457286,35739.55152048366
0.002443204762186487,36653.805923129796
0.0025391144336803463,37578.283288758656
0.002638789104828933,38512.104174919674
0.002742376573264949,39454.309058140076
0.0028500304385181063,40403.86419662419
0.0029619103297725525,41359.63974185143
0.0030781821425650787,42320.42133476888
0.003199018284775064,43284.90336492543
0.0033245979322709396,44251.67192355842
0.003455107294592217,45219.230262787154
0.0035907398910610534,46185.99756079
0.0037316968377327513,47150.31181092741
0.0038781871456107214,48110.37599369922
0.0040304280305680515,49064.13890983767
0.00418864523543527,50009.44264939749
0.004353073364731888,50944.34575198438
0.00452395623253805,51867.13065029711
0.004701547224022131,52775.80003825929
0.004886109671160325,53667.13179324651
0.005077917243205399,54537.459791317124
0.005277254352483535,55383.63374961741
0.005484416576121017,56203.31441033053
0.005699711094326071,56994.071990838675
0.005923457145875801,57752.44635300331
0.006155986501483508,58474.47743171142
0.006397643955748424,59156.459943418915
0.0066487878384172625,59795.30593028944
0.0069097905457156435,60387.9675212378
0.007181039092537346,60930.668687230325
0.007462935686310132,61419.16140280486
0.007755898323389004,61849.13376947781
0.00806036140886134,62216.02715559476
0.008376776400682916,62515.3171834941
0.008705612479099857,62742.375108591536
0.009047357242349292,62892.51643341059
0.00940251742967013,62961.1539542645
0.009771619672696168,62943.36868565356
0.010155211276345676,62834.39385148639
0.010553861030365234,62629.383905394665
0.010968160052731372,62323.28470520736
0.011398722666160517,61911.45281129093
0.011846187309026826,61388.98996904466
0.012311217482038896,60751.374958957196
0.012794502732078732,59994.49351355222
0.013296759674662111,59114.20327790471
0.013818733056536317,58107.36497421294
0.014361196859990781,56970.94540553102
0.014924955450518284,55702.655260298874
0.015510844769528393,54301.46901433403
0.016119733573881575,52766.67281820592
0.01675252472408214,51099.447400850426
0.017410156523040152,49301.98086517281
0.018093604107387147,47377.78084689193
0.01880388089340914,45332.84863120795
0.019542040079740527,43174.15005439563
0.02030917620904734,40911.42533479614
0.021106426791015535,38556.584306064055
0.021934973989050584,36123.2712950852
0.02279604637318978,33628.43345563399
0.023690920741826323,31090.504601701774
0.02462092401494623,28530.432710950783
0.02558743520168586,25971.384553376764
0.02659188744512693,23437.41742757579
0.027635770147361564,20954.16725633038
0.028720631177978267,18547.768632193725
0.029848079169243254,16243.725523436822
0.03101978590138095,14066.260538624429
0.03223748878149028,12037.7807158353
0.0335029934197723,10176.13456397728
0.03481817630688963,8497.222134989772
0.03618498759642746,7011.748534777134
0.037605453996581675,5721.980422060442
0.03908168177536263,4627.369264762242
0.04061585988376978,3718.086936485232
0.04221026320156896,2984.625923326978
0.04386725591048496,2415.2438618604765
0.0455892949998106,1989.0734036954557
0.047378933909631396,1684.023518150961
0.049238826317067365,1480.6932344725114
0.05117173007114603,1365.7016999480343
0.05318051128214196,1330.5694710296675
0.05526814857144601,1368.3249572949683
0.057437737488265785,1475.3887344131326
0.0596924950997073,1645.4532705305726
0.0620357647610427,1868.103085592986
0.06447102107323864,2124.2040806675377
0.06700187503509585,2386.0771593294753
0.06963207939763882,2619.6402924014988
0.0723655342286965,2787.3562708411155
0.07520629269592405,2852.1327928020805
0.07815856707684081,2787.0070619867065
0.08122673500479707,2581.9245469409566
0.08441534596012978,2251.2528690043578
0.0877291280161335,1836.2375382758266
0.09117299484984914,1396.1397919948936
0.09475205302806537,990.589551313003
0.09847160957933764,662.7014292520041
0.1023371798632519,430.8108856563897
0.10635449574860109,290.92264260402123
0.11052951411260206,226.46158083890722
0.1148684256737553,221.2744051562558
0.1193776641714435,268.4685394477632
0.1240639159058831,365.62246275470443
0.12893412965257148,498.917044439346
0.13399552696593373,629.5759294441013
0.1392556128874462,702.3944443146916
0.14472218707411338,677.9067892563719
0.15040335536380234,558.7264538382645
0.15630754179458153,390.6316448880235
0.16244350109588662,237.1577705684019
0.16882033167003618,138.5196662524003
0.17544748908334581,97.11238904669662
0.1823348000868439,100.990233320819
0.189492477187382,142.5388189103248
0.19693113379074215,206.09758694675088
0.20466179993919872,252.29556264015343
0.21269593866686892,241.0603299835374
0.22104546299710207,177.11223791690216
0.22972275360711503,106.28503259072062
0.23874067718606454,65.06072891473256
0.2481126055137766,58.40734233052747
0.25785243528842716,78.10945396094213
0.26797460873256895,106.02929494968532
0.27849413500806414,110.85037088098292
0.28942661247167484,83.66923713984242
0.3007882518043098,52.09858577605778
0.31259590004822796,39.166073512120526
0.324867065587837,45.219163002048916
0.3376199441111335,56.87989343025441
0.35087344559027084,54.37472921062761
0.36464722232127456,38.631776726615
0.37896169806447155,28.33047237659643
0.3938380983288488,29.645991869601573
0.4092984818452433,33.76305599154317
0.4253657732750382,29.5469917446859
0.44206379720285277,21.943796266637726
0.45941731346364734,20.127148083081636
0.47745205385661277,21.533517172129223
0.4961947603002895,19.13216860547323
0.5156732244854959,15.345710405363544
0.5359163290848509,14.707861123466504
0.556954090580013,14.35213758271725
0.5788177037701272,13.193494830533055
0.6015395880274836,11.932831739067074
0.6251534353689703,10.674566612887192
0.6496942604146115,9.494295004608668
0.6751984523072497,8.440410971846369
0.7017038286703824,7.5381500107302175
0.7292496916841444,6.775075436177243
0.7578768863625915,6.1190059618871
0.7876278611187046,5.544731791207612
0.8185467307069019,5.033020280547594
0.850679341636415,4.5692069792687855
0.8840733401525058,4.142906405236634
0.9187782428863317,3.75091886319955
0.9548455102782278,3.3922510300995268
0.9923286228832539,3.0655372788063526
1.0312831606721837,2.769134604445115
1.0717668854455022,2.5012142718286228
1.1138398264826193,2.259629991588699
1.1575643695533022,2.0416871125884457
1.2030053494233226,1.844880970996569
1.2502301459914542,1.6670042389499882
1.299308784200415,1.506108043823529
1.3503140378698726,1.3604697855601942
1.4033215376054824,1.228615455300237
1.4584098829439835,1.1092888296063608
1.5156607589006013,1.0013460220212524
1.575159057091621,0.9037407493129158
1.6369930016117014,0.8155169331669834
1.7012542798525885,0.7358010209336593
1.7680381784572046,0.6637884572914008
1.8374437246107238,0.5987437765156264
1.9095738328780953,0.5400007561567151
1.9845354578058014,0.4869560843521509
2.0624397525140905,0.43906349641681713
2.143402233514853,0.395828412305366
2.227542951999554,0.3568029871187938
2.314986671851158,0.32158190751261745
2.405863054644063,0.28979845397263365
2.5003068519063225,0.2611208658815116
2.598458104929248,0.23524904714074887
2.7004623524206774,0.2119118729393015
2.806470846309834,0.19086463903090262
2.916640776023701,0.17188589728153714
3.031135501567576,0.1547752154680749
3.150124795755327,0.13935123012236145
3.2737850959485697,0.12544986112650452
3.4022997656780634,0.11292243975139293
3.5358593665351745,0.1016343776006463
3.6746619407366854,0.09146414863726765
3.8189133047818515,0.08230204367868306
3.968827354637162,0.07404903027618585
4.1246263829013445,0.06661574494152957
4.286541408420921,0.0599216935777877
4.4548125188449825,0.05389425047272549
4.629689226627261,0.04846781621965997
4.811430839003257,0.04358315042693852
5.000306842491082,0.03918676678197126
5.196597302486189,0.0352303568461108
5.400593278542364,0.03167024849944429
5.612597255954967,0.028467052599534727
5.8329235942862,0.025585265336157063
6.06189899349756,0.02299288780774653
6.29986297838068,0.020661082868896365
6.547168402004727,0.018563879322895938
6.804181968927091,0.016677891431477777
7.071284778942991,0.014982041353703447
7.348872892180382,0.013457332357139973
7.637357916378006,0.012086645860761667
7.937167617217536,0.01085455793934131
8.248746552614573,0.009747172991143064
8.572556731909314,0.00875197442610051
8.909078300934132,0.007857689853802965
9.258810253973934,0.00705416878707776
9.622271173675122,0.006332272203008434
9.999999999999984,0.005683769063765013
