k [1/Mpc],P(k) [Mpc^3]
0.0001,26.15955611875125
0.00010392556829367125,27.26494164373986
0.00010800523745162529,28.417024231940495
0.00011224505680853065,29.61777239543156
0.00011665131316981963,30.86923934419897
0.00012123054013376525,32.17356763888819
0.00012598952777950273,33.53299025224956
0.00013093533273536104,34.94983161615328
0.00013607528864243335,36.42651264046891
0.00014141701702890234,37.96555634052082
0.00014696843861124463,39.569592652176816
0.00015273778503907136,41.24136226847195
0.00015873361110102093,42.983721057559855
0.00016496480740980205,44.79964490374035
0.0001714406135851971,46.69223452385716
0.00017817063195457305,48.664719781083626
0.00018516484179121546,50.720465835730614
0.000192433614111598,52.862979244685896
0.00019998772705352857,55.09591393959801
0.0002078383818579757,57.42307691506283
0.00021599721947827182,59.84843305713723
0.0002244763378413224,62.37611252158911
0.0002332883097864157,65.01041749826749
0.00024244620170823283,67.75582845455229
0.0002519635929317015,70.61701272708706
0.0002618545958474233,73.59883269333024
0.0002721338768375308,76.70635377793363
0.0002828166780230032,79.94485128688838
0.0002939188398646886,83.3198155103566
0.0003054568246515432,86.83696368447612
0.00031744774091091926,90.50224945944152
0.00032990936877709396,94.32187237823405
0.00034286018635565856,98.3022879775707
0.00035631939712285854,102.45021504383901
0.000370306958400514,106.77264818123341
0.00038484361094874304,111.27686769208555
0.0003999509097203664,115.97044872491797
0.00041565125582259895,120.86127612682652
0.00043196792973341727,125.95755168179208
0.0004489251258218605,131.2678083267202
0.0004665479882234472,136.8009247121148
0.000484862648123908,142.56613497773085
0.000503896262506515,148.57304616802682
0.0005236770544204653,154.83164550603388
0.0005442343548300266,161.35231415277664
0.0005655986461065005,168.14584715095364
0.0005878016072274912,175.22345895152156
0.0006108761607505036,182.59680643299973
0.0006348565216305217,190.27800605255814
0.0006597782479539537,198.27964871331272
0.0006856782936641739,206.61481837910426
0.0007125950633568407,215.2970825332529
0.0007405684692262436,224.34052017554131
0.0007696399902471156,233.75975545311715
0.0007998527336796708,243.56997794782055
0.000831251498989063,253.78695984314896
0.0008638828442740447,264.427035586664
0.000897795155303332,275.5071207991135
0.0009330387172620361,287.04476407061
0.0009696657893145519,299.05816922841217
0.001007730682094461,311.5662161138613
0.0010472898382363582,324.58843715949354
0.0010884019160690055,338.1450123073343
0.0011311278765939214,352.25683824484383
0.001175531073878369,366.9455257445974
0.0012216773489967915,382.2334331352884
0.0012696351276599736,398.1436679265523
0.0013194755216767058,414.7000581887158
0.0013712724343984,431.92722307830326
0.0014251026703029975,449.8505142853784
0.0014810460488806749,468.4960409382912
0.0015391855229902056,487.89073010532525
0.001599607301861487,508.0622861244554
0.0016624009789266115,529.0392491889735
0.0017276596646690358,550.8508983895981
0.0017954801246878305,573.5272091087688
0.0018659629231817451,597.0989792453186
0.001939212572065829,621.5977465617783
0.0020153376859417325,647.0558428923733
0.002094451143151469,673.5063423202894
0.002176670253153458,700.9829426544501
0.002262116930469025,729.5200942712496
0.002350917875457286,759.152815730754
0.002443204762186487,789.9167152679432
0.0025391144336803463,821.8480233637513
0.002638789104828933,854.9833703268488
0.002742376573264949,889.3599253384863
0.0028500304385181063,925.0151851450688
0.0029619103297725525,961.9868707571217
0.0030781821425650787,1000.3130501367941
0.003199018284775064,1040.0318361097113
0.0033245979322709396,1081.1814738114874
0.003455107294592217,1123.800082288036
0.0035907398910610534,1167.9252919914693
0.0037316968377327513,1213.5945319887078
0.0038781871456107214,1260.8446304401327
0.0040304280305680515,1309.7118019021793
0.00418864523543527,1360.2314646305701
0.004353073364731888,1412.437518483916
0.00452395623253805,1466.362741532465
0.004701547224022131,1522.038254497777
0.004886109671160325,1579.493278830365
0.005077917243205399,1638.7551782469473
0.005277254352483535,1699.848274789245
0.005484416576121017,1762.7942820850953
0.005699711094326071,1827.611821605142
0.005923457145875801,1894.3157213985405
0.006155986501483508,1962.9172508158267
0.006397643955748424,2033.4214423748908
0.0066487878384172625,2105.827673874376
0.0069097905457156435,2180.1315243025697
0.007181039092537346,2256.326051543253
0.007462935686310132,2334.399258773207
0.007755898323389004,2414.3227301058237
0.00806036140886134,2496.0510228495227
0.008376776400682916,2579.531883056904
0.008705612479099857,2664.7143499202243
0.009047357242349292,2751.542206963222
0.00940251742967013,2839.941079617957
0.009771619672696168,2929.812394754613
0.010155211276345676,3021.045604599444
0.010553861030365234,3113.52468353611
0.010968160052731372,3207.1251767527115
0.011398722666160517,3301.7039558122365
0.011846187309026826,3397.088429457115
0.012311217482038896,3493.088443731745
0.012794502732078732,3589.4895482542847
0.013296759674662111,3686.053972090079
0.013818733056536317,3782.525035853282
0.014361196859990781,3878.6210427404553
0.014924955450518284,3974.0408685579673
0.015510844769528393,4068.4544015375945
0.016119733573881575,4161.498928553145
0.01675252472408214,4252.790910786288
0.017410156523040152,4341.912676482473
0.018093604107387147,4428.422973958942
0.01880388089340914,4511.856182320297
0.019542040079740527,4591.7136300560005
0.02030917620904734,4667.481597112497
0.021106426791015535,4738.619230400256
0.021934973989050584,4804.567339374301
0.02279604637318978,4864.759342391248
0.023690920741826323,4918.611579081592
0.02462092401494623,4965.544277835918
0.02558743520168586,5004.985298325664
0.02659188744512693,5036.375915102751
0.027635770147361564,5059.184988505037
0.028720631177978267,5072.915158334999
0.029848079169243254,5077.112089940487
0.03101978590138095,5071.403946023155
0.03223748878149028,5055.533004298913
0.0335029934197723,5029.310143437804
0.03481817630688963,4992.6069885833485
0.03618498759642746,4945.363503885398
0.037605453996581675,4887.76119379628
0.03908168177536263,4820.5374298325405
0.04061585988376978,4744.54169108547
0.04221026320156896,4660.330554066219
0.04386725591048496,4568.192779696749
0.0455892949998106,4468.63940615519
0.047378933909631396,4363.124571653666
0.049238826317067365,4253.324525385367
0.05117173007114603,4140.813851531066
0.05318051128214196,4027.055261688535
0.05526814857144601,3913.460785157971
0.057437737488265785,3801.7656238882882
0.0596924950997073,3693.682303448743
0.0620357647610427,3590.5970424607644
0.06447102107323864,3493.6219143588223
0.06700187503509585,3403.499691588012
0.06963207939763882,3320.6377162749473
0.0723655342286965,3244.9672009546293
0.07520629269592405,3176.0234190727765
0.07815856707684081,3112.8389134479444
0.08122673500479707,3054.0577395424652
0.08441534596012978,2997.764587409371
0.0877291280161335,2941.5819694573224
0.09117299484984914,2882.7378868629758
0.09475205302806537,2818.2119705649243
0.09847160957933764,2745.154129738875
0.1023371798632519,2661.2783654968052
0.10635449574860109,2565.3460392332613
0.11052951411260206,2457.5576876776095
0.1148684256737553,2339.5886119372517
0.1193776641714435,2214.5265835794826
0.1240639159058831,2086.775396015395
0.12893412965257148,1961.7705786312513
0.13399552696593373,1844.7450665574484
0.1392556128874462,1740.2520607867334
0.14472218707411338,1651.8252425790824
0.15040335536380234,1580.8215191882489
0.15630754179458153,1526.0151786884253
0.16244350109588662,1483.5683083054978
0.16882033167003618,1447.4181623509835
0.17544748908334581,1410.1166958923038
0.1823348000868439,1364.327405056673
0.189492477187382,1304.8812905441466
0.19693113379074215,1230.6826259500008
0.20466179993919872,1145.63485134473
0.21269593866686892,1058.0079393073167
0.22104546299710207,977.8753889608828
0.22972275360711503,913.1582210063732
0.23874067718606454,866.6200027515767
0.2481126055137766,835.1570959428876
0.25785243528842716,810.6349641470275
0.26797460873256895,782.3830979183671
0.27849413500806414,742.4986981485753
0.28942661247167484,690.4829828276389
0.3007882518043098,633.5594863950022
0.31259590004822796,582.6691733478106
0.324867065587837,545.5414387961953
0.3376199441111335,521.6022031285605
0.35087344559027084,502.28562041334885
0.36464722232127456,477.24217661720587
0.37896169806447155,443.05363992422843
0.3938380983288488,405.8488159571478
0.4092984818452433,375.17857616057836
0.4253657732750382,354.5102942414112
0.44206379720285277,338.2704360367794
0.45941731346364734,318.1576216049312
0.47745205385661277,293.1004801313336
0.4961947603002895,269.8650772161201
0.5156732244854959,253.1053211808549
0.5359163290848509,239.34538697248485
0.556954090580013,223.07163163653638
0.5788177037701272,205.29972706599258
0.6015395880274836,190.8240512608314
0.6251534353689703,179.24409047504477
0.6496942604146115,166.73323986295654
0.6751984523072497,153.79702162011753
0.7017038286703824,143.13028121252057
0.7292496916841444,133.5259293340449
0.7578768863625915,123.44107667558247
0.7876278611187046,114.3639233639143
0.8185467307069019,106.37647206418704
0.850679341636415,98.38000926605073
0.8840733401525058,91.11920794067447
0.9187782428863317,84.47782150109501
0.9548455102782278,78.22881410293554
0.9923286228832539,72.36159691361111
1.0312831606721837,66.87576929759784
1.0717668854455022,61.76615818687632
1.1138398264826193,57.02370553709451
1.1575643695533022,52.63519490729931
1.2030053494233226,48.576689251616095
1.2502301459914542,44.82139294886778
1.299308784200415,41.345010219633856
1.3503140378698726,38.125516112817756
1.4033215376054824,35.142917062210316
1.4584098829439835,32.37969965488629
1.5156607589006013,29.821365523734585
1.575159057091621,27.454431989317108
1.6369930016117014,25.26609661464741
1.7012542798525885,23.24422765386767
1.7680381784572046,21.377337886104627
1.8374437246107238,19.65434929366412
1.9095738328780953,18.064690488339576
1.9845354578058014,16.598516490648294
2.0624397525140905,15.246670174877037
2.143402233514853,14.00063734298454
2.227542951999554,12.852515785958627
2.314986671851158,11.795011658934431
2.405863054644063,10.821349407160374
2.5003068519063225,9.925221575218572
2.598458104929248,9.100760290629214
2.7004623524206774,8.342509967396442
2.806470846309834,7.645393054717336
2.916640776023701,7.004684469624341
3.031135501567576,6.416003525665304
3.150124795755327,5.875291925607085
3.2737850959485697,5.378791721926725
3.4022997656780634,4.923024805277364
3.5358593665351745,4.5047748398296745
3.6746619407366854,4.121067779722221
3.8189133047818515,3.7691538672929017
3.968827354637162,3.4464918320874895
4.1246263829013445,3.1507341051307316
4.286541408420921,2.8797124754978656
4.4548125188449825,2.6314244973756735
4.629689226627261,2.40402295086688
4.811430839003257,2.195804721794509
5.000306842491082,2.0052001459752584
5.196597302486189,1.830763074097839
5.400593278542364,1.6711614186023749
5.612597255954967,1.5251686627902712
5.8329235942862,1.3916561274452632
6.06189899349756,1.2695855270571812
6.29986297838068,1.1580020485375553
6.547168402004727,1.0560278122160858
6.804181968927091,0.9628554919578755
7.071284778942991,0.8777433926360326
7.348872892180382,0.8000105264766144
7.637357916378006,0.7290318186908692
7.937167617217536,0.6642336814455718
8.248746552614573,0.6050904057610439
8.572556731909314,0.5511204917665916
8.909078300934132,0.5018821956842046
9.258810253973934,0.4569703007334244
9.622271173675122,0.4160132241533039
9.999999999999984,0.3786701256344296
