k [1/Mpc],P(k) [Mpc^3]
0.0001,1732.9812289774154
0.00010392556829367125,1795.5956702727656
0.00010800523745162529,1860.4543002686216
0.00011224505680853065,1927.6353930950825
0.00011665131316981963,1997.2197775127818
0.00012123054013376525,2069.2909021378314
0.00012598952777950273,2143.9348914342895
0.00013093533273536104,2221.2402855046853
0.00013607528864243335,2301.2983071740673
0.00014141701702890234,2384.2029451689223
0.00014696843861124463,2470.050900726733
0.00015273778503907136,2558.941813428722
0.00015873361110102093,2650.9779875222907
0.00016496480740980205,2746.2645629494214
0.0001714406135851971,2844.909656294439
0.00017817063195457305,2947.0241146787234
0.00018516484179121546,3052.7218581200586
0.000192433614111598,3162.119458360534
0.00019998772705352857,3275.3361286330755
0.0002078383818579757,3392.4940865473227
0.00021599721947827182,3513.717954368134
0.0002244763378413224,3639.1352301427128
0.0002332883097864157,3768.876036594529
0.00024244620170823283,3903.072801552466
0.0002519635929317015,4041.8607451272946
0.0002618545958474233,4185.376893520544
0.0002721338768375308,4333.760475706047
0.0002828166780230032,4487.152887462241
0.0002939188398646886,4645.696825851216
0.0003054568246515432,4809.537069294985
0.00031744774091091926,4978.819331781368
0.00032990936877709396,5153.690244483249
0.00034286018635565856,5334.297775822103
0.00035631939712285854,5520.789987477292
0.000370306958400514,5713.315730576857
0.00038484361094874304,5912.023433551039
0.0003999509097203664,6117.06034915169
0.00041565125582259895,6328.5735011454235
0.00043196792973341727,6546.7081306256405
0.0004489251258218605,6771.608123026656
0.0004665479882234472,7003.4151073424155
0.000484862648123908,7242.266794957815
0.000503896262506515,7488.298141732721
0.0005236770544204653,7741.638718794055
0.0005442343548300266,8002.412806260426
0.0005655986461065005,8270.73938500706
0.0005878016072274912,8546.729201785276
0.0006108761607505036,8830.486269476616
0.0006348565216305217,9122.103912560588
0.0006597782479539537,9421.66342407634
0.0006856782936641739,9729.235868079191
0.0007125950633568407,10044.876894329223
0.0007405684692262436,10368.628833542038
0.0007696399902471156,10700.517318789134
0.0007998527336796708,11040.54722028845
0.000831251498989063,11388.706421341707
0.0008638828442740447,11744.959746760866
0.000897795155303332,12109.250012886956
0.0009330387172620361,12481.498068923896
0.0009696657893145519,12861.59854117725
0.001007730682094461,13249.421720458127
0.0010472898382363582,13644.804744967629
0.0010884019160690055,14047.55072707085
0.0011311278765939214,14457.436894384728
0.001175531073878369,14874.223214791853
0.0012216773489967915,15297.643490958444
0.0012696351276599736,15727.383150386902
0.0013194755216767058,16163.0699321096
0.0013712724343984,16604.294311475154
0.0014251026703029975,17050.61399825569
0.0014810460488806749,17501.55120502698
0.0015391855229902056,17956.588123892576
0.001599607301861487,18415.16376572561
0.0016624009789266115,18876.677136254282
0.0017276596646690358,19340.48648009116
0.0017954801246878305,19805.909523367456
0.0018659629231817451,20272.223878982
0.001939212572065829,20738.666111939892
0.0020153376859417325,21204.433341061904
0.002094451143151469,21668.67677018971
0.002176670253153458,22130.50134107827
0.002262116930469025,22588.974653814923
0.002350917875457286,23043.128988708075
0.002443204762186487,23491.963147683957
0.0025391144336803463,23934.435016787203
0.002638789104828933,24369.456369926404
0.002742376573264949,24795.9113550161
0.0028500304385181063,25212.675686607792
0.0029619103297725525,25618.614355655318
0.0030781821425650787,26012.508316689436
0.003199018284775064,26392.933997459164
0.0033245979322709396,26758.436242989166
0.003455107294592217,27107.953689678783
0.0035907398910610534,27440.803573429414
0.0037316968377327513,27756.047699835603
0.0038781871456107214,28051.401337842864
0.0040304280305680515,28324.181709663408
0.00418864523543527,28572.47625614752
0.004353073364731888,28795.50222307251
0.00452395623253805,28992.483972578884
0.004701547224022131,29161.648489172057
0.004886109671160325,29300.781871504325
0.005077917243205399,29408.051018168422
0.005277254352483535,29482.423734320135
0.005484416576121017,29523.014156052435
0.005699711094326071,29528.331111448504
0.005923457145875801,29496.482688893775
0.006155986501483508,29425.62501795808
0.006397643955748424,29313.781532818888
0.0066487878384172625,29159.104561288194
0.0069097905457156435,28959.888405664256
0.007181039092537346,28714.58995775911
0.007462935686310132,28421.836952744095
0.007755898323389004,28079.873229555025
0.00806036140886134,27687.07734741019
0.008376776400682916,27242.004064384728
0.008705612479099857,26743.231485588443
0.009047357242349292,26189.801635688575
0.00940251742967013,25580.500471523945
0.009771619672696168,24914.375018109316
0.010155211276345676,24190.95037143296
0.010553861030365234,23409.570013378656
0.010968160052731372,22570.55325337545
0.011398722666160517,21674.610946367862
0.011846187309026826,20723.1269364321
0.012311217482038896,19718.362425237297
0.012794502732078732,18660.872258206575
0.013296759674662111,17552.869686808284
0.013818733056536317,16400.520016403803
0.014361196859990781,15213.911022916649
0.014924955450518284,14002.684445616784
0.015510844769528393,12761.51916318788
0.016119733573881575,11485.893455312267
0.01675252472408214,10197.201274748622
0.017410156523040152,8950.001627157053
0.018093604107387147,7780.103686172369
0.01880388089340914,6619.29345746381
0.019542040079740527,5389.133569104698
0.02030917620904734,4162.372082550573
0.021106426791015535,3193.556213940478
0.021934973989050584,2571.0414879676496
0.02279604637318978,1971.8999219171055
0.023690920741826323,1088.39007602953
0.02462092401494623,355.5845345969354
0.02558743520168586,105.71653652916926
0.02659188744512693,56.28946248698486
0.027635770147361564,73.2993997094105
0.028720631177978267,158.06311851989176
0.029848079169243254,360.9975300516548
0.03101978590138095,720.8402156361251
0.03223748878149028,1223.1556480471158
0.0335029934197723,1750.4844406265217
0.03481817630688963,2219.4122600427672
0.03618498759642746,2640.90772349818
0.037605453996581675,3010.5432625162393
0.03908168177536263,3264.391701516256
0.04061585988376978,3357.763579034145
0.04221026320156896,3292.260576316344
0.04386725591048496,3072.2419509012934
0.0455892949998106,2689.9969474031145
0.047378933909631396,2204.1133313353153
0.049238826317067365,1710.2399596865798
0.05117173007114603,1165.3401710813007
0.05318051128214196,638.8427520829597
0.05526814857144601,370.03072889174786
0.057437737488265785,119.64424751160007
0.0596924950997073,5.1909517100513645
0.0620357647610427,4.182827918656134
0.06447102107323864,97.77828273281054
0.06700187503509585,183.57527647332574
0.06963207939763882,191.31601068136817
0.0723655342286965,203.22458646670938
0.07520629269592405,131.59597344978442
0.07815856707684081,43.96600601054972
0.08122673500479707,9.70373397377401
0.08441534596012978,11.754995628301286
0.0877291280161335,113.15027883136635
0.09117299484984914,236.44075947494193
0.09475205302806537,330.6517798791268
0.09847160957933764,363.3295718883739
0.1023371798632519,304.6009618436008
0.10635449574860109,171.52803984516527
0.11052951411260206,77.93868847772684
0.1148684256737553,3.2521057252671075
0.1193776641714435,6.881269844244372
0.1240639159058831,32.79580825397723
0.12893412965257148,32.45585198484479
0.13399552696593373,32.67415523135154
0.1392556128874462,0.019507300826553588
0.14472218707411338,35.97592078457338
0.15040335536380234,57.35524958962265
0.15630754179458153,83.66412431912607
0.16244350109588662,62.147538384040246
0.16882033167003618,23.274630837288132
0.17544748908334581,0.17814827377037698
0.1823348000868439,5.118754847294429
0.189492477187382,6.163863984325292
0.19693113379074215,0.42661143976222476
0.20466179993919872,8.025322445807047
0.21269593866686892,21.984844269758295
0.22104546299710207,19.472815876583592
0.22972275360711503,5.186394652877687
0.23874067718606454,0.060326912069137845
0.2481126055137766,0.7926164293578108
0.25785243528842716,0.031604868108372215
0.26797460873256895,4.53282853000521
0.27849413500806414,7.290438361081156
0.28942661247167484,2.7144079540196233
0.3007882518043098,0.023103766702776078
0.31259590004822796,2.2197492719765204e-05
0.324867065587837,1.0900049544128239
0.3376199441111335,2.688939921592633
0.35087344559027084,1.2232810505692673
0.36464722232127456,0.11647154132117273
0.37896169806447155,0.21060114933699084
0.3938380983288488,1.0015543633939332
0.4092984818452433,0.8279541423625922
0.4253657732750382,0.20473983201630097
0.44206379720285277,0.2323627646942943
0.45941731346364734,0.5497458521290131
0.47745205385661277,0.3408206105633963
0.4961947603002895,0.14389323684736263
0.5156732244854959,0.09549749816825173
0.5359163290848509,0.09029730572758796
0.556954090580013,0.10667061991770621
0.5788177037701272,0.13805690016630487
0.6015395880274836,0.17166064165573622
0.6251534353689703,0.18475443166623448
0.6496942604146115,0.17392427490006387
0.6751984523072497,0.14917291605511981
0.7017038286703824,0.12142483566236835
0.7292496916841444,0.0977093584784803
0.7578768863625915,0.08091460496105923
0.7876278611187046,0.07018362875427538
0.8185467307069019,0.0630861801682273
0.850679341636415,0.05803837879140194
0.8840733401525058,0.053972440615958066
0.9187782428863317,0.050106919240907995
0.9548455102782278,0.045940041364947615
0.9923286228832539,0.04157802903023142
1.0312831606721837,0.037282187105344713
1.0717668854455022,0.0332425419789512
1.1138398264826193,0.0295823604156747
1.1575643695533022,0.026369401266681993
1.2030053494233226,0.023594076992716248
1.2502301459914542,0.021175414017429867
1.299308784200415,0.01904369140585908
1.3503140378698726,0.017144498245407876
1.4033215376054824,0.015435366823912966
1.4584098829439835,0.013884337328870932
1.5156607589006013,0.012476086634822517
1.575159057091621,0.011201995251306269
1.6369930016117014,0.010053034049770518
1.7012542798525885,0.009019961411502693
1.7680381784572046,0.008093546647004802
1.8374437246107238,0.007264096531519557
1.9095738328780953,0.006520975478253392
1.9845354578058014,0.005854569061032216
2.0624397525140905,0.005256442089737753
2.143402233514853,0.004719180601767233
2.227542951999554,0.004236272378208337
2.314986671851158,0.0038022023530067148
2.405863054644063,0.0034121964953258517
2.5003068519063225,0.003061923409267994
2.598458104929248,0.002747452077651716
2.7004623524206774,0.0024652187910099276
2.806470846309834,0.0022119779020281895
2.916640776023701,0.001984734829539543
3.031135501567576,0.001780793668182402
3.150124795755327,0.0015977437645832745
3.2737850959485697,0.0014334286772741383
3.4022997656780634,0.001285919143679541
3.5358593665351745,0.0011535021657036121
3.6746619407366854,0.0010346540774467414
3.8189133047818515,0.0009280024450065525
3.968827354637162,0.0008323106187686576
4.1246263829013445,0.0007464647418511163
4.286541408420921,0.00066946027806736
4.4548125188449825,0.0006003849023271061
4.629689226627261,0.0005384180845780324
4.811430839003257,0.0004828252017437301
5.000306842491082,0.0004329483884111759
5.196597302486189,0.0003881984137147239
5.400593278542364,0.00034804962434079495
5.612597255954967,0.00031203364097866264
5.8329235942862,0.0002797293277751103
6.06189899349756,0.00025075777948927315
6.29986297838068,0.0002247781834535729
6.547168402004727,0.00020148388969669888
6.804181968927091,0.00018059779215049551
7.071284778942991,0.00016187064602489874
7.348872892180382,0.00014507911950310717
7.637357916378006,0.00013002308462326876
7.937167617217536,0.0001165231882957546
8.248746552614573,0.00010441892805460891
8.572556731909314,9.356689593646405e-05
8.909078300934132,8.383837427475978e-05
9.258810253973934,7.511775903326637e-05
9.622271173675122,6.730123929457153e-05
9.999999999999984,6.0295581827931745e-05
