k [1/Mpc],P(k) [Mpc^3]
0.0001,70.60216434656279
0.00010392556829367125,73.37330229430668
0.00010800523745162529,76.25316962985008
0.00011224505680853065,79.24602385337573
0.00011665131316981963,82.35629722954711
0.00012123054013376525,85.58859962198859
0.00012598952777950273,88.94771753160113
0.00013093533273536104,92.43861592211987
0.00013607528864243335,96.06645259987899
0.00014141701702890234,99.83658967425731
0.00014696843861124463,103.75460065652054
0.00015273778503907136,107.82627654679231
0.00015873361110102093,112.05763362107808
0.00016496480740980205,116.45492268410622
0.0001714406135851971,121.02463517959383
0.00017817063195457305,125.77351242070417
0.00018516484179121546,130.7085585296162
0.000192433614111598,135.83705314210857
0.00019998772705352857,141.1665601021246
0.0002078383818579757,146.70493423216794
0.00021599721947827182,152.46033102676148
0.0002244763378413224,158.44122213988558
0.0002332883097864157,164.6564080969388
0.00024244620170823283,171.11503074158827
0.0002519635929317015,177.82658185828754
0.0002618545958474233,184.80091201694856
0.0002721338768375308,192.04825091440415
0.0002828166780230032,199.57922357261373
0.0002939188398646886,207.40486508193504
0.0003054568246515432,215.53663149788065
0.00031744774091091926,223.98640767611374
0.00032990936877709396,232.76653163591104
0.00034286018635565856,241.889810291604
0.00035631939712285854,251.36953699625045
0.000370306958400514,261.219508781589
0.00038484361094874304,271.4540334248513
0.0003999509097203664,282.0879573977714
0.00041565125582259895,293.13668483562446
0.00043196792973341727,304.6161961981836
0.0004489251258218605,316.54307042285876
0.0004665479882234472,328.93448574499837
0.000484862648123908,341.8082531184767
0.000503896262506515,355.1828431887966
0.0005236770544204653,369.077405332894
0.0005442343548300266,383.51179506584356
0.0005655986461065005,398.50656761431793
0.0005878016072274912,414.0830123920915
0.0006108761607505036,430.26318318821666
0.0006348565216305217,447.0698990267482
0.0006597782479539537,464.52679638826453
0.0006856782936641739,482.6583553458445
0.0007125950633568407,501.4899277055237
0.0007405684692262436,521.047754873097
0.0007696399902471156,541.3589435611198
0.0007998527336796708,562.4515345435009
0.000831251498989063,584.3545059009474
0.0008638828442740447,607.0977861662908
0.000897795155303332,630.7123192852877
0.0009330387172620361,655.2300540326443
0.0009696657893145519,680.68399767406
0.001007730682094461,707.1082207836282
0.0010472898382363582,734.5378463471478
0.0010884019160690055,763.0091259415268
0.0011311278765939214,792.5593492187336
0.001175531073878369,823.2269115223932
0.0012216773489967915,855.0513750912756
0.0012696351276599736,888.0734318099369
0.0013194755216767058,922.3349858843326
0.0013712724343984,957.8790147194943
0.0014251026703029975,994.749595118653
0.0014810460488806749,1032.9920021909832
0.0015391855229902056,1072.6525601094347
0.001599607301861487,1113.7787860773317
0.0016624009789266115,1156.4192761399156
0.0017276596646690358,1200.6236513151389
0.0017954801246878305,1246.4426800032843
0.0018659629231817451,1293.927969478521
0.001939212572065829,1343.1321409671223
0.0020153376859417325,1394.1087651867183
0.002094451143151469,1446.912185567942
0.002176670253153458,1501.5977008913235
0.002262116930469025,1558.2211781874369
0.002350917875457286,1616.8391480818023
0.002443204762186487,1677.5087320878717
0.0025391144336803463,1740.2871788939874
0.002638789104828933,1805.2322228254461
0.002742376573264949,1872.401718062139
0.0028500304385181063,1941.8535803643558
0.0029619103297725525,2013.6457695688064
0.0030781821425650787,2087.835555166183
0.003199018284775064,2164.4799038808883
0.0033245979322709396,2243.63502517322
0.003455107294592217,2325.3560704373776
0.0035907398910610534,2409.697319769324
0.0037316968377327513,2496.7112073547
0.0038781871456107214,2586.448624850598
0.0040304280305680515,2678.958453093604
0.00418864523543527,2774.286849195147
0.004353073364731888,2872.4776542866175
0.00452395623253805,2973.5709269453764
0.004701547224022131,3077.60314195513
0.004886109671160325,3184.6068260282514
0.005077917243205399,3294.609004544217
0.005277254352483535,3407.632155985258
0.005484416576121017,3523.692595429718
0.005699711094326071,3642.800239821241
0.005923457145875801,3764.958607626146
0.006155986501483508,3890.1623626672595
0.006397643955748424,4018.398523572349
0.0066487878384172625,4149.6433194253095
0.0069097905457156435,4283.860828638262
0.007181039092537346,4421.006049299712
0.007462935686310132,4561.026310135993
0.007755898323389004,4703.859588242396
0.00806036140886134,4849.421594689451
0.008376776400682916,4997.596021129089
0.008705612479099857,5148.250283764402
0.009047357242349292,5301.241506687848
0.00940251742967013,5456.414090531053
0.009771619672696168,5613.596142191703
0.010155211276345676,5772.598139287965
0.010553861030365234,5933.212452332969
0.010968160052731372,6095.195913883389
0.011398722666160517,6258.271916620747
0.011846187309026826,6422.139412208607
0.012311217482038896,6586.464307591458
0.012794502732078732,6750.887134053317
0.013296759674662111,6915.016092622785
0.013818733056536317,7078.425479465766
0.014361196859990781,7240.662444579938
0.014924955450518284,7401.233191790729
0.015510844769528393,7559.614249455697
0.016119733573881575,7715.247211407228
0.01675252472408214,7867.532030516463
0.017410156523040152,8015.843451665257
0.018093604107387147,8159.516852375066
0.01880388089340914,8297.85987166663
0.019542040079740527,8430.157514294087
0.02030917620904734,8555.664953542933
0.021106426791015535,8673.626276456489
0.021934973989050584,8783.27089559867
0.02279604637318978,8883.82165460513
0.023690920741826323,8974.509427750623
0.02462092401494623,9054.580578059902
0.02558743520168586,9123.30386909976
0.02659188744512693,9179.997203697207
0.027635770147361564,9224.036509543548
0.028720631177978267,9254.854025089076
0.029848079169243254,9271.993215252262
0.03101978590138095,9275.076195867156
0.03223748878149028,9263.87914252588
0.0335029934197723,9238.383006748221
0.03481817630688963,9198.656123001601
0.03618498759642746,9144.90677351558
0.037605453996581675,9077.443784134803
0.03908168177536263,8996.947429138265
0.04061585988376978,8904.826736051516
0.04221026320156896,8802.547265728874
0.04386725591048496,8691.050600996834
0.0455892949998106,8570.922259475565
0.047378933909631396,8443.073670580905
0.049238826317067365,8309.452428913717
0.05117173007114603,8172.134707073718
0.05318051128214196,8033.109155239116
0.05526814857144601,7894.269035883218
0.057437737488265785,7757.267704538966
0.0596924950997073,7623.203127243986
0.0620357647610427,7492.901323812974
0.06447102107323864,7366.36463181155
0.06700187503509585,7243.149097388095
0.06963207939763882,7122.151062117858
0.0723655342286965,7001.8479000250445
0.07520629269592405,6880.231121706456
0.07815856707684081,6755.023843840342
0.08122673500479707,6623.593660459242
0.08441534596012978,6483.1829149672885
0.0877291280161335,6330.962018883816
0.09117299484984914,6164.489163855401
0.09475205302806537,5982.154042968661
0.09847160957933764,5783.769104559379
0.1023371798632519,5571.184991615375
0.10635449574860109,5348.102953506598
0.11052951411260206,5119.866825652262
0.1148684256737553,4892.842164057878
0.1193776641714435,4673.093017505286
0.1240639159058831,4466.862143031961
0.12893412965257148,4279.950990759799
0.13399552696593373,4113.775055196421
0.1392556128874462,3967.2938118468737
0.14472218707411338,3836.4286120300453
0.15040335536380234,3713.909683146082
0.15630754179458153,3591.0222835646596
0.16244350109588662,3459.7058865942813
0.16882033167003618,3314.6171536851753
0.17544748908334581,3154.686441903323
0.1823348000868439,2983.8424877021225
0.189492477187382,2810.271440372371
0.19693113379074215,2644.214951189057
0.20466179993919872,2495.115535310624
0.21269593866686892,2368.4324580562243
0.22104546299710207,2262.5044049815856
0.22972275360711503,2168.3649338671166
0.23874067718606454,2074.1952575191294
0.2481126055137766,1970.8710005698522
0.25785243528842716,1855.9318802647756
0.26797460873256895,1735.9216326368366
0.27849413500806414,1622.666565607127
0.28942661247167484,1524.8793568238243
0.3007882518043098,1443.367452593751
0.31259590004822796,1370.9207189950807
0.324867065587837,1297.3779077128147
0.3376199441111335,1217.6211607916696
0.35087344559027084,1135.3568122627028
0.36464722232127456,1059.347072435025
0.37896169806447155,994.4905608449759
0.3938380983288488,937.6055176284898
0.4092984818452433,881.0694836485225
0.4253657732750382,822.1083954043444
0.44206379720285277,765.1774625823509
0.45941731346364734,714.9063425970909
0.47745205385661277,669.9367290259459
0.4961947603002895,626.0488546877826
0.5156732244854959,582.365344290553
0.5359163290848509,541.9124591424517
0.556954090580013,505.63901773978347
0.5788177037701272,471.0894942113257
0.6015395880274836,437.63100217065914
0.6251534353689703,406.689969140953
0.6496942604146115,378.2496040854746
0.6751984523072497,351.17380658447064
0.7017038286703824,325.73264218270134
0.7292496916841444,302.2625041984748
0.7578768863625915,280.2130623640017
0.7876278611187046,259.5675912835725
0.8185467307069019,240.43320475195054
0.850679341636415,222.52100431804425
0.8840733401525058,205.84149177125275
0.9187782428863317,190.3395437328815
0.9548455102782278,175.9280595942804
0.9923286228832539,162.52815854605566
1.0312831606721837,150.07394120271377
1.0717668854455022,138.50721384798842
1.1138398264826193,127.77249323815573
1.1575643695533022,117.81691721604616
1.2030053494233226,108.59021228912371
1.2502301459914542,100.04433549415161
1.299308784200415,92.1331862640327
1.3503140378698726,84.81330662325105
1.4033215376054824,78.04386532908458
1.4584098829439835,71.78653146362434
1.5156607589006013,66.00535505902407
1.575159057091621,60.66667677490809
1.6369930016117014,55.73898307405586
1.7012542798525885,51.19277219543863
1.7680381784572046,47.000447994590814
1.8374437246107238,43.13621737093189
1.9095738328780953,39.575984368434355
1.9845354578058014,36.29725145330336
2.0624397525140905,33.27904279936304
2.143402233514853,30.50181683314835
2.227542951999554,27.947380773310403
2.314986671851158,25.598807216849654
2.405863054644063,23.440345071148712
2.5003068519063225,21.457357610613805
2.598458104929248,19.63625930341557
2.7004623524206774,17.964447775464908
2.806470846309834,16.430239367869795
2.916640776023701,15.022804717003948
3.031135501567576,13.732110438670619
3.150124795755327,12.5488720547443
3.2737850959485697,11.464503126412446
3.4022997656780634,10.471066756678209
3.5358593665351745,9.56122997686698
3.6746619407366854,8.728220555187109
3.8189133047818515,7.965787629438511
3.968827354637162,7.268164573245248
4.1246263829013445,6.630033926783517
4.286541408420921,6.046494592478832
4.4548125188449825,5.513029438024676
4.629689226627261,5.02547664584722
4.811430839003257,4.580006271233623
5.000306842491082,4.173095401469249
5.196597302486189,3.8015047891463345
5.400593278542364,3.4622571162006386
5.612597255954967,3.1526167253572797
5.8329235942862,2.870071053729543
6.06189899349756,2.6123133339717026
6.29986297838068,2.3772264929364026
6.547168402004727,2.162868212611895
6.804181968927091,1.9674562525871564
7.071284778942991,1.7893557698827651
7.348872892180382,1.6270688714949555
7.637357916378006,1.4792236332686441
7.937167617217536,1.3445638693562167
8.248746552614573,1.2219400835594147
8.572556731909314,1.1103021303337457
8.909078300934132,1.008689226023763
9.258810253973934,0.9162219631748796
9.622271173675122,0.8320957073141294
9.999999999999984,0.7555743901387938
