k [1/Mpc],P(k) [Mpc^3]
0.0001,561.005181491229
0.00010392556829367125,581.3354966534762
0.00010800523745162529,602.4016252585245
0.00011224505680853065,624.2301357798095
0.00011665131316981963,646.8485280682664
0.00012123054013376525,670.2852101958222
0.00012598952777950273,694.5695872967125
0.00013093533273536104,719.7321500745414
0.00013607528864243335,745.8045171695027
0.00014141701702890234,772.8194219171165
0.00014696843861124463,800.8106769839522
0.00015273778503907136,829.8132638567012
0.00015873361110102093,859.8634187222788
0.00016496480740980205,890.9986889079286
0.0001714406135851971,923.2579421265859
0.00017817063195457305,956.6813304632315
0.00018516484179121546,991.3103692180247
0.000192433614111598,1027.1880269015562
0.00019998772705352857,1064.3587806330866
0.0002078383818579757,1102.868655579546
0.00021599721947827182,1142.7652148056347
0.0002244763378413224,1184.0976182395684
0.0002332883097864157,1226.9166930697247
0.00024244620170823283,1271.2749122540395
0.0002519635929317015,1317.2265135620157
0.0002618545958474233,1364.8275541838054
0.0002721338768375308,1414.1359616811992
0.0002828166780230032,1465.211594048343
0.0002939188398646886,1518.1161755089736
0.0003054568246515432,1572.9134285206337
0.00031744774091091926,1629.669102570858
0.00032990936877709396,1688.4509567031396
0.00034286018635565856,1749.3289255614877
0.00035631939712285854,1812.3750636547948
0.000370306958400514,1877.66364737525
0.00038484361094874304,1945.2712507639883
0.0003999509097203664,2015.2766825019532
0.00041565125582259895,2087.7611646634846
0.00043196792973341727,2162.8082015283453
0.0004489251258218605,2240.503627810057
0.0004665479882234472,2320.9357650226057
0.000484862648123908,2404.1951638021424
0.000503896262506515,2490.374887882767
0.0005236770544204653,2579.5705491828603
0.0005442343548300266,2671.8802933440497
0.0005655986461065005,2767.4049279563405
0.0005878016072274912,2866.2475587244417
0.0006108761607505036,2968.513824976126
0.0006348565216305217,3074.3118324296456
0.0006597782479539537,3183.7517870176407
0.0006856782936641739,3296.9464962234006
0.0007125950633568407,3414.0112711452193
0.0007405684692262436,3535.063975269864
0.0007696399902471156,3660.224813120039
0.0007998527336796708,3789.615402545594
0.000831251498989063,3923.359557647793
0.0008638828442740447,4061.583080932099
0.000897795155303332,4204.413629790424
0.0009330387172620361,4351.980793327543
0.0009696657893145519,4504.414693385755
0.001007730682094461,4661.846735471467
0.0010472898382363582,4824.409403455916
0.0010884019160690055,4992.235640204845
0.0011311278765939214,5165.459311403169
0.001175531073878369,5344.213117552104
0.0012216773489967915,5528.629117873487
0.0012696351276599736,5718.839090370212
0.0013194755216767058,5914.973384062667
0.0013712724343984,6117.161540392873
0.0014251026703029975,6325.530093481339
0.0014810460488806749,6540.202292561667
0.0015391855229902056,6761.298832374225
0.001599607301861487,6988.935603299151
0.0016624009789266115,7223.224726329421
0.0017276596646690358,7464.272911790131
0.0017954801246878305,7712.1801890129755
0.0018659629231817451,7967.040842880581
0.001939212572065829,8228.939864794636
0.0020153376859417325,8497.953982513622
0.002094451143151469,8774.151214335638
0.002176670253153458,9057.588843083851
0.002262116930469025,9348.314293511612
0.002350917875457286,9646.361269266285
0.002443204762186487,9951.749784777216
0.0025391144336803463,10264.486157518202
0.002638789104828933,10584.559032629108
0.002742376573264949,10911.94145928423
0.0028500304385181063,11246.588433728066
0.0029619103297725525,11588.43567609732
0.0030781821425650787,11937.399712200353
0.003199018284775064,12293.371975527647
0.0033245979322709396,12656.221305800957
0.003455107294592217,13025.792720067604
0.0035907398910610534,13401.905063619053
0.0037316968377327513,13784.351976289237
0.0038781871456107214,14172.894835858153
0.0040304280305680515,14567.26460792203
0.00418864523543527,14967.16479899178
0.004353073364731888,15372.271466428923
0.00452395623253805,15782.230015659467
0.004701547224022131,16196.630188229265
0.004886109671160325,16615.008095620273
0.005077917243205399,17036.884640883687
0.005277254352483535,17461.829025299197
0.005484416576121017,17889.399808364593
0.005699711094326071,18318.980383976334
0.005923457145875801,18749.732532438575
0.006155986501483508,19180.787113796836
0.006397643955748424,19611.448087672365
0.0066487878384172625,20041.075083090876
0.0069097905457156435,20468.898469877804
0.007181039092537346,20893.91994068663
0.007462935686310132,21315.08905891745
0.007755898323389004,21731.47930985638
0.00806036140886134,22142.238397791578
0.008376776400682916,22546.43962713152
0.008705612479099857,22942.970005255378
0.009047357242349292,23330.655766671374
0.00940251742967013,23708.276867154833
0.009771619672696168,24074.57104443887
0.010155211276345676,24428.253336077236
0.010553861030365234,24768.020096615746
0.010968160052731372,25092.55595623344
0.011398722666160517,25400.535335529963
0.011846187309026826,25690.62640343886
0.012311217482038896,25961.4957253163
0.012794502732078732,26211.754849033852
0.013296759674662111,26440.00265529399
0.013818733056536317,26644.864637230847
0.014361196859990781,26825.001024137047
0.014924955450518284,26979.117454471107
0.015510844769528393,27105.96286370233
0.016119733573881575,27204.342903700748
0.01675252472408214,27273.143311255913
0.017410156523040152,27311.350267370333
0.018093604107387147,27318.051173843825
0.01880388089340914,27292.47916913664
0.019542040079740527,27234.02611547467
0.02030917620904734,27142.22850552262
0.021106426791015535,27016.862904191647
0.021934973989050584,26857.87970734573
0.02279604637318978,26665.467360846236
0.023690920741826323,26440.1209196543
0.02462092401494623,26182.504587251962
0.02558743520168586,25893.631863259932
0.02659188744512693,25574.75084287283
0.027635770147361564,25227.34941346018
0.028720631177978267,24853.36788766633
0.029848079169243254,24454.85309083283
0.03101978590138095,24033.921246283564
0.03223748878149028,23592.733333234704
0.0335029934197723,23133.688219941116
0.03481817630688963,22660.18306957651
0.03618498759642746,22175.692832540124
0.037605453996581675,21681.558159396023
0.03908168177536263,21176.58991546957
0.04061585988376978,20660.53473236923
0.04221026320156896,20139.384219344796
0.04386725591048496,19621.17915311931
0.0455892949998106,19109.059254267468
0.047378933909631396,18597.612233306503
0.049238826317067365,18081.265278839826
0.05117173007114603,17557.70684098645
0.05318051128214196,17026.698169744144
0.05526814857144601,16488.583112346587
0.057437737488265785,15944.974055190854
0.0596924950997073,15397.673200387911
0.0620357647610427,14848.256272961766
0.06447102107323864,14298.107068071022
0.06700187503509585,13747.168795766644
0.06963207939763882,13193.511044202734
0.0723655342286965,12638.181227829911
0.07520629269592405,12087.1149356151
0.07815856707684081,11547.072046493278
0.08122673500479707,11025.250783634337
0.08441534596012978,10525.313225460315
0.0877291280161335,10047.762166137378
0.09117299484984914,9590.768023113804
0.09475205302806537,9152.118941696093
0.09847160957933764,8729.939226514334
0.1023371798632519,8321.19987329457
0.10635449574860109,7921.65945914169
0.11052951411260206,7526.914297612896
0.1148684256737553,7135.1396309729425
0.1193776641714435,6748.143118022093
0.1240639159058831,6370.03450775198
0.12893412965257148,6006.37100227301
0.13399552696593373,5662.486994883451
0.1392556128874462,5340.116166980592
0.14472218707411338,5037.13434059428
0.15040335536380234,4750.120139899599
0.15630754179458153,4477.054010285752
0.16244350109588662,4214.543583039564
0.16882033167003618,3959.587215249641
0.17544748908334581,3713.605667816319
0.1823348000868439,3479.303491183141
0.189492477187382,3257.847619727851
0.19693113379074215,3050.691443988366
0.20466179993919872,2856.509406698485
0.21269593866686892,2672.0915710568534
0.22104546299710207,2496.9310386354355
0.22972275360711503,2330.6440073773515
0.23874067718606454,2173.5417377310873
0.2481126055137766,2026.137018117301
0.25785243528842716,1887.8547180081075
0.26797460873256895,1757.8267164222618
0.27849413500806414,1635.450637470953
0.28942661247167484,1520.3773483637353
0.3007882518043098,1412.588174620084
0.31259590004822796,1311.683996538436
0.324867065587837,1217.183780541315
0.3376199441111335,1128.7874193247012
0.35087344559027084,1046.1277463331405
0.36464722232127456,968.9913587792859
0.37896169806447155,897.0157151807967
0.3938380983288488,829.8931635537382
0.4092984818452433,767.4036811211784
0.4253657732750382,709.2053712788418
0.44206379720285277,655.108543135456
0.45941731346364734,604.8213780873874
0.47745205385661277,558.0933598681721
0.4961947603002895,514.7297259290601
0.5156732244854959,474.4981092765504
0.5359163290848509,437.18232959122327
0.556954090580013,402.59926404460657
0.5788177037701272,370.57591782311687
0.6015395880274836,340.9439384736695
0.6251534353689703,313.54744284673234
0.6496942604146115,288.22098876900304
0.6751984523072497,264.83234046873656
0.7017038286703824,243.24382734001404
0.7292496916841444,223.32154510635792
0.7578768863625915,204.94444716987158
0.7876278611187046,188.00001381500985
0.8185467307069019,172.3879502912187
0.850679341636415,158.01268638663367
0.8840733401525058,144.78216906899328
0.9187782428863317,132.61057395547806
0.9548455102782278,121.41799777600902
0.9923286228832539,111.1300981023612
1.0312831606721837,101.67777294999546
1.0717668854455022,92.99698032778822
1.1138398264826193,85.02827645391686
1.1575643695533022,77.71642749491959
1.2030053494233226,71.0101485688963
1.2502301459914542,64.8618558333731
1.299308784200415,59.22741518388165
1.3503140378698726,54.06586232156429
1.4033215376054824,49.33926913862193
1.4584098829439835,45.01256798411937
1.5156607589006013,41.05335420440316
1.575159057091621,37.43170049318254
1.6369930016117014,34.119975664510505
1.7012542798525885,31.092668218023505
1.7680381784572046,28.326258111704657
1.8374437246107238,25.79907711295191
1.9095738328780953,23.491172352299753
1.9845354578058014,21.38417903040539
2.0624397525140905,19.461206092242932
2.143402233514853,17.706729000053702
2.227542951999554,16.106475615058216
2.314986671851158,14.647329797193805
2.405863054644063,13.317243307609854
2.5003068519063225,12.105153714212761
2.598458104929248,11.000900135753303
2.7004623524206774,9.995151915453695
2.806470846309834,9.07935753024478
2.916640776023701,8.24568343486145
3.031135501567576,7.4869562546481685
3.150124795755327,6.796609475289391
3.2737850959485697,6.168636153906294
3.4022997656780634,5.597542600297968
3.5358593665351745,5.078303815103919
3.6746619407366854,4.60632499531127
3.8189133047818515,4.177406153920491
3.968827354637162,3.7877093632958707
4.1246263829013445,3.4337271194574144
4.286541408420921,3.1122558758707974
4.4548125188449825,2.8203720036543296
4.629689226627261,2.555408136895855
4.811430839003257,2.314931406067008
5.000306842491082,2.0967234172644638
5.196597302486189,1.8987617008501931
5.400593278542364,1.719203096353195
5.612597255954967,1.5563684382848035
5.8329235942862,1.4087283657332852
6.06189899349756,1.2748903175445414
6.29986297838068,1.1535865243335979
6.547168402004727,1.0436627634549607
6.804181968927091,0.9440688661286424
7.071284778942991,0.8538497271308083
7.348872892180382,0.7721368920509998
7.637357916378006,0.6981408692101614
7.937167617217536,0.6311443319477789
8.248746552614573,0.5704961133418974
8.572556731909314,0.51560451287066
8.909078300934132,0.4659318324930547
9.258810253973934,0.4209895777167916
9.622271173675122,0.38033406750008375
9.999999999999984,0.3435616392522329
