k [1/Mpc],P(k) [Mpc^3]
0.0001,34.89399095059284
0.00010392556829367125,36.36837434098508
0.00010800523745162529,37.905031874053876
0.00011224505680853065,39.50659131168208
0.00011665131316981963,41.17579107082535
0.00012123054013376525,42.91548392231712
0.00012598952777950273,44.72864175286854
0.00013093533273536104,46.61836161725219
0.00013607528864243335,48.58787215064083
0.00014141701702890234,50.64053824665374
0.00014696843861124463,52.77986457494668
0.00015273778503907136,55.009500203307134
0.00015873361110102093,57.33324708422048
0.00016496480740980205,59.7550681038877
0.0001714406135851971,62.279093227658926
0.00017817063195457305,64.90962545607206
0.00018516484179121546,67.65114757843293
0.000192433614111598,70.50832991958465
0.00019998772705352857,73.48603386854643
0.0002078383818579757,76.5893196731341
0.00021599721947827182,79.82345911902
0.0002244763378413224,83.19394810317091
0.0002332883097864157,86.70651316913805
0.00024244620170823283,90.36711629585425
0.0002519635929317015,94.1819622788307
0.0002618545958474233,98.15751270616097
0.0002721338768375308,102.30049377816908
0.0002828166780230032,106.61790830542584
0.0002939188398646886,111.11704768375864
0.0003054568246515432,115.80550211452308
0.00031744774091091926,120.69117408367997
0.00032990936877709396,125.7822868789394
0.00034286018635565856,131.0873974199012
0.00035631939712285854,136.6154117288741
0.000370306958400514,142.3755934839684
0.00038484361094874304,148.37758208303862
0.0003999509097203664,154.63140324284603
0.00041565125582259895,161.14748034002247
0.00043196792973341727,167.93665631469239
0.0004489251258218605,175.01020228466734
0.0004665479882234472,182.3798374200407
0.000484862648123908,190.0577444548215
0.000503896262506515,198.05657712431218
0.0005236770544204653,206.3894885622478
0.0005442343548300266,215.0701411803601
0.0005655986461065005,224.11272555113058
0.0005878016072274912,233.53198251494575
0.0006108761607505036,243.3432001826252
0.0006348565216305217,253.5622504685617
0.0006597782479539537,264.20560873468804
0.0006856782936641739,275.29036974538747
0.0007125950633568407,286.83427597932547
0.0007405684692262436,298.85571090647477
0.0007696399902471156,311.3737328416485
0.0007998527336796708,324.4080910711855
0.000831251498989063,337.97921203306896
0.0008638828442740447,352.10826039288406
0.000897795155303332,366.81716058883893
0.0009330387172620361,382.1286204126974
0.0009696657893145519,398.0661386905053
0.001007730682094461,414.65394062156133
0.0010472898382363582,431.9170614693272
0.0010884019160690055,449.88135996298774
0.0011311278765939214,468.57351767689835
0.001175531073878369,488.0210921678145
0.0012216773489967915,508.25245849274904
0.0012696351276599736,529.2968610319232
0.0013194755216767058,551.184409648694
0.0013712724343984,573.9459905244811
0.0014251026703029975,597.6133881428857
0.0014810460488806749,622.2192165421751
0.0015391855229902056,647.7969295343894
0.001599607301861487,674.3808602915489
0.0016624009789266115,702.0060509138611
0.0017276596646690358,730.7083800557689
0.0017954801246878305,760.5245105891574
0.0018659629231817451,791.4918207518239
0.001939212572065829,823.6484858331463
0.0020153376859417325,857.0332078004138
0.002094451143151469,891.6853039919348
0.002176670253153458,927.6447148848636
0.002262116930469025,964.9518126396366
0.002350917875457286,1003.6475275205744
0.002443204762186487,1043.77304935458
0.0025391144336803463,1085.369780662889
0.002638789104828933,1128.479412674947
0.002742376573264949,1173.1435449859569
0.0028500304385181063,1219.4038430702499
0.0029619103297725525,1267.3018127550265
0.0030781821425650787,1316.8785671711207
0.003199018284775064,1368.1749413868838
0.0033245979322709396,1421.230881336435
0.003455107294592217,1476.0855375262609
0.0035907398910610534,1532.777185225242
0.0037316968377327513,1591.342759247275
0.0038781871456107214,1651.818014905921
0.0040304280305680515,1714.2367391490852
0.00418864523543527,1778.6305825514219
0.004353073364731888,1845.0292306828378
0.00452395623253805,1913.4596764519856
0.004701547224022131,1983.9463822885689
0.004886109671160325,2056.510510192206
0.005077917243205399,2131.1692787193856
0.005277254352483535,2207.9364322167726
0.005484416576121017,2286.821447018809
0.005699711094326071,2367.829499034694
0.005923457145875801,2450.9603054934837
0.006155986501483508,2536.2060071758924
0.006397643955748424,2623.5530902553664
0.0066487878384172625,2712.985753445885
0.0069097905457156435,2804.485478398893
0.007181039092537346,2898.024401872903
0.007462935686310132,2993.55144276869
0.007755898323389004,3091.0022063502756
0.00806036140886134,3190.3080902929264
0.008376776400682916,3291.398847370635
0.008705612479099857,3394.195884282942
0.009047357242349292,3498.6111298482156
0.00940251742967013,3604.546900803082
0.009771619672696168,3711.8918687552687
0.010155211276345676,3820.514834215382
0.010553861030365234,3930.2714253399727
0.010968160052731372,4041.0030253692767
0.011398722666160517,4152.536798393079
0.011846187309026826,4264.686392084416
0.012311217482038896,4377.249161694636
0.012794502732078732,4490.008408753993
0.013296759674662111,4602.731276217807
0.013818733056536317,4715.167473612375
0.014361196859990781,4827.052683338557
0.014924955450518284,4938.105228268568
0.015510844769528393,5048.028639697776
0.016119733573881575,5156.512355009576
0.01675252472408214,5263.229699989342
0.017410156523040152,5367.842375777762
0.018093604107387147,5470.000016415311
0.01880388089340914,5569.341769004623
0.019542040079740527,5665.49965606287
0.02030917620904734,5758.100875860978
0.021106426791015535,5846.76910277252
0.021934973989050584,5931.129275788765
0.02279604637318978,6010.810912993476
0.023690920741826323,6085.448232153587
0.02462092401494623,6154.693640096525
0.02558743520168586,6218.2135347500825
0.02659188744512693,6275.694230683249
0.027635770147361564,6326.8569219471465
0.028720631177978267,6371.443373599506
0.029848079169243254,6409.2424810702805
0.03101978590138095,6440.086368736033
0.03223748878149028,6463.839715883328
0.0335029934197723,6480.431870047074
0.03481817630688963,6489.82759055442
0.03618498759642746,6492.049669822063
0.037605453996581675,6487.189521842768
0.03908168177536263,6475.362875230653
0.04061585988376978,6456.69377028015
0.04221026320156896,6431.320815058907
0.04386725591048496,6399.369254556431
0.0455892949998106,6360.90943812973
0.047378933909631396,6316.045180133237
0.049238826317067365,6265.246909933457
0.05117173007114603,6209.258433006948
0.05318051128214196,6148.619691778353
0.05526814857144601,6083.056391303322
0.057437737488265785,6012.121567914602
0.0596924950997073,5935.394533062387
0.0620357647610427,5852.4818545411545
0.06447102107323864,5763.091888390173
0.06700187503509585,5667.348499573403
0.06963207939763882,5565.569090600594
0.0723655342286965,5458.1497943175655
0.07520629269592405,5345.5894570667515
0.07815856707684081,5228.339189146792
0.08122673500479707,5106.66295120317
0.08441534596012978,4980.907825900604
0.0877291280161335,4851.84091708939
0.09117299484984914,4720.435800097625
0.09475205302806537,4588.040342433515
0.09847160957933764,4455.899887547433
0.1023371798632519,4324.975433835438
0.10635449574860109,4195.644271064889
0.11052951411260206,4067.6196668167886
0.1148684256737553,3939.692438632648
0.1193776641714435,3811.161504292113
0.1240639159058831,3681.8443638300346
0.12893412965257148,3551.389205320359
0.13399552696593373,3419.6689970935868
0.1392556128874462,3287.3259631272704
0.14472218707411338,3155.6648165961974
0.15040335536380234,3026.2960309293935
0.15630754179458153,2900.3575021036186
0.16244350109588662,2778.292452361244
0.16882033167003618,2659.859422966737
0.17544748908334581,2544.386787456394
0.1823348000868439,2431.491424627683
0.189492477187382,2321.178979747778
0.19693113379074215,2213.157267780418
0.20466179993919872,2107.0659772411714
0.21269593866686892,2003.5898678515493
0.22104546299710207,1903.8444348288408
0.22972275360711503,1808.057197946331
0.23874067718606454,1716.0727361238635
0.2481126055137766,1627.4270915157797
0.25785243528842716,1541.4312473846471
0.26797460873256895,1458.3802415232353
0.27849413500806414,1378.8128953528078
0.28942661247167484,1302.7180941910867
0.3007882518043098,1229.7490350022017
0.31259590004822796,1159.84565757504
0.324867065587837,1093.1234903938819
0.3376199441111335,1029.3695135579187
0.35087344559027084,968.5135600910077
0.36464722232127456,910.6203514053435
0.37896169806447155,855.6047206297598
0.3938380983288488,803.2064187025479
0.4092984818452433,753.5218700113932
0.4253657732750382,706.445438341213
0.44206379720285277,661.7858169752054
0.45941731346364734,619.5893117132648
0.47745205385661277,579.6709110448846
0.4961947603002895,541.9722585207339
0.5156732244854959,506.4187424535479
0.5359163290848509,472.8662679154611
0.556954090580013,441.2900239266928
0.5788177037701272,411.53499794345373
0.6015395880274836,383.5771828089288
0.6251534353689703,357.2850204443806
0.6496942604146115,332.61552844955435
0.6751984523072497,309.472709415277
0.7017038286703824,287.7786484277829
0.7292496916841444,267.47501808643057
0.7578768863625915,248.4619736006326
0.7876278611187046,230.68000724639768
0.8185467307069019,214.06350308687797
0.850679341636415,198.5348270319371
0.8840733401525058,184.04625255623674
0.9187782428863317,170.53246909103828
0.9548455102782278,157.9363669775052
0.9923286228832539,146.20233747346302
1.0312831606721837,135.27799016163883
1.0717668854455022,125.11353566279958
1.1138398264826193,115.6616693749423
1.1575643695533022,106.87750197012917
1.2030053494233226,98.718485623586
1.2502301459914542,91.14433510093932
1.299308784200415,84.11695293630036
1.3503140378698726,77.60035111477544
1.4033215376054824,71.56056995652438
1.4584098829439835,65.9655958655738
1.5156607589006013,60.785236903093065
1.575159057091621,55.99103325469522
1.6369930016117014,51.55625546893695
1.7012542798525885,47.45582642096995
1.7680381784572046,43.66623780798418
1.8374437246107238,40.16546776762766
1.9095738328780953,36.932894551634476
1.9845354578058014,33.949229168739166
2.0624397525140905,31.196447089599573
2.143402233514853,28.657717081153738
2.227542951999554,26.31733289636457
2.314986671851158,24.160646135844722
2.405863054644063,22.174002926341633
2.5003068519063225,20.34468794285543
2.598458104929248,18.66086764069581
2.7004623524206774,17.111535811899888
2.806470846309834,15.686460502925447
2.916640776023701,14.376124739799913
3.031135501567576,13.171689805098021
3.150124795755327,12.064958483475749
3.2737850959485697,11.04833234548124
3.4022997656780634,10.114771445623651
3.5358593665351745,9.25775648898412
3.6746619407366854,8.471253256920578
3.8189133047818515,7.749678937487023
3.968827354637162,7.087870706396183
4.1246263829013445,6.481056294483547
4.286541408420921,5.924826236135614
4.4548125188449825,5.4151063692678365
4.629689226627261,4.948135083514242
4.811430839003257,4.520442126559235
5.000306842491082,4.128827322765982
5.196597302486189,3.7703407009704493
5.400593278542364,3.4422635631266654
5.612597255954967,3.1420907534715488
5.8329235942862,2.8675158074084908
6.06189899349756,2.6164161277729168
6.29986297838068,2.386838997006983
6.547168402004727,2.176988525987741
6.804181968927091,1.985212810306086
7.071284778942991,1.8099933043415184
7.348872892180382,1.6499352105293126
7.637357916378006,1.5037577858150408
7.937167617217536,1.370285353437093
8.248746552614573,1.2484395863489197
8.572556731909314,1.137232811334482
8.909078300934132,1.0357588545140062
9.258810253973934,0.9431862023686916
9.622271173675122,0.8587521200534127
9.999999999999984,0.7817569935111758
