k [1/Mpc],P(k) [Mpc^3]
0.0001,47.049086819514514
0.00010392556829367125,49.178322422904735
0.00010800523745162529,51.4038378117367
0.00011224505680853065,53.72998046738322
0.00011665131316981963,56.161291653959296
0.00012123054013376525,58.702510105100366
0.00012598952777950273,61.358585626701554
0.00013093533273536104,64.13469320759975
0.00013607528864243335,67.03624353404018
0.00014141701702890234,70.0688888119815
0.00014696843861124463,73.23852666146712
0.00015273778503907136,76.55131551964088
0.00015873361110102093,80.01369029786403
0.00016496480740980205,83.63237586397399
0.0001714406135851971,87.41439651625784
0.00017817063195457305,91.36708137371028
0.00018516484179121546,95.49808084910123
0.000192433614111598,99.81538479968495
0.00019998772705352857,104.3273379530312
0.0002078383818579757,109.04265426200226
0.00021599721947827182,113.97042675162606
0.0002244763378413224,119.12014450888483
0.0002332883097864157,124.50171138827378
0.00024244620170823283,130.1254559423417
0.0002519635929317015,136.0021560175977
0.0002618545958474233,142.14305755450673
0.0002721338768375308,148.55989359207985
0.0002828166780230032,155.26490482111896
0.0002939188398646886,162.2708475028845
0.0003054568246515432,169.59102251320124
0.00031744774091091926,177.23929423200917
0.00032990936877709396,185.23010486970315
0.00034286018635565856,193.57850936070432
0.00035631939712285854,202.3001868247322
0.000370306958400514,211.4114698567575
0.00038484361094874304,220.92937182676357
0.0003999509097203664,230.8715991426314
0.00041565125582259895,241.25659150312634
0.00043196792973341727,252.10352753077873
0.0004489251258218605,263.4323511623189
0.0004665479882234472,275.26381161218933
0.000484862648123908,287.6194552376341
0.000503896262506515,300.52168165378885
0.0005236770544204653,313.993771812552
0.0005442343548300266,328.05991073876163
0.0005655986461065005,342.7452283777373
0.0005878016072274912,358.0757803398274
0.0006108761607505036,374.07860236631177
0.0006348565216305217,390.7817283895112
0.0006597782479539537,408.21417038686985
0.0006856782936641739,426.40600855315364
0.0007125950633568407,445.38840720516237
0.0007405684692262436,465.1936499363694
0.0007696399902471156,485.85514118523633
0.0007998527336796708,507.40731104872987
0.000831251498989063,529.8857452528655
0.0008638828442740447,553.3271861415931
0.000897795155303332,577.769543004989
0.0009330387172620361,603.2519311883395
0.0009696657893145519,629.8145059794681
0.001007730682094461,657.498590095626
0.0010472898382363582,686.3466710433123
0.0010884019160690055,716.4023380405946
0.0011311278765939214,747.7103715770568
0.001175531073878369,780.3164642731901
0.0012216773489967915,814.2673109827681
0.0012696351276599736,849.6106787166547
0.0013194755216767058,886.3952536252474
0.0013712724343984,924.6707467149316
0.0014251026703029975,964.4875744075318
0.0014810460488806749,1005.8968174252841
0.0015391855229902056,1048.95033364459
0.001599607301861487,1093.700410252055
0.0016624009789266115,1140.1999159278373
0.0017276596646690358,1188.502034916724
0.0017954801246878305,1238.6600466943485
0.0018659629231817451,1290.72745186659
0.001939212572065829,1344.7573720727808
0.0020153376859417325,1400.8026736496367
0.002094451143151469,1458.9158533775287
0.002176670253153458,1519.1486540696164
0.002262116930469025,1581.5521522563702
0.002350917875457286,1646.1760428697758
0.002443204762186487,1713.0685583218599
0.0025391144336803463,1782.276378554674
0.002638789104828933,1853.8438436240062
0.002742376573264949,1927.8131965622933
0.0028500304385181063,2004.2240341437837
0.0029619103297725525,2083.1129535444397
0.0030781821425650787,2164.5134205513577
0.003199018284775064,2248.4545409359475
0.0033245979322709396,2334.9613206210784
0.003455107294592217,2424.0542509660095
0.0035907398910610534,2515.748666971882
0.0037316968377327513,2610.054705006569
0.0038781871456107214,2706.975731905747
0.0040304280305680515,2806.508413877275
0.00418864523543527,2908.6430110221268
0.004353073364731888,3013.3631177512875
0.00452395623253805,3120.644761427587
0.004701547224022131,3230.451111313672
0.004886109671160325,3342.7323607407316
0.005077917243205399,3457.433001693695
0.005277254352483535,3574.504628246331
0.005484416576121017,3693.894130650691
0.005699711094326071,3815.50927291365
0.005923457145875801,3939.207284830678
0.006155986501483508,4064.833157497902
0.006397643955748424,4192.2628428910075
0.0066487878384172625,4321.37940761678
0.0069097905457156435,4452.033223302552
0.007181039092537346,4584.018829384483
0.007462935686310132,4717.111695755551
0.007755898323389004,4851.10685512153
0.00806036140886134,4985.808737650019
0.008376776400682916,5120.997982761026
0.008705612479099857,5256.404918043189
0.009047357242349292,5391.736546266896
0.00940251742967013,5526.679113131931
0.009771619672696168,5660.898378680207
0.010155211276345676,5794.043588837764
0.010553861030365234,5925.747964935949
0.010968160052731372,6055.6299430815225
0.011398722666160517,6183.293166702269
0.011846187309026826,6308.327090701046
0.012311217482038896,6430.30780003162
0.012794502732078732,6548.784375798217
0.013296759674662111,6663.288693630179
0.013818733056536317,6773.344978345499
0.014361196859990781,6878.471882337834
0.014924955450518284,6978.185334701344
0.015510844769528393,7071.998203860865
0.016119733573881575,7159.424027222863
0.01675252472408214,7239.98357420892
0.017410156523040152,7313.210939457376
0.018093604107387147,7378.654650721074
0.01880388089340914,7435.890730586843
0.019542040079740527,7484.527753377835
0.02030917620904734,7524.20462246722
0.021106426791015535,7554.618818563152
0.021934973989050584,7575.5104796838405
0.02279604637318978,7586.682697177085
0.023690920741826323,7588.024065239699
0.02462092401494623,7579.472693726572
0.02558743520168586,7561.070986488565
0.02659188744512693,7532.936376370413
0.027635770147361564,7495.266036445864
0.028720631177978267,7448.403920875158
0.029848079169243254,7392.742368333808
0.03101978590138095,7328.71256751903
0.03223748878149028,7256.778311673935
0.0335029934197723,7177.4969561876
0.03481817630688963,7091.761062446967
0.03618498759642746,7000.52191949061
0.037605453996581675,6904.086979493585
0.03908168177536263,6801.964056129072
0.04061585988376978,6693.949097173018
0.04221026320156896,6581.87419699694
0.04386725591048496,6468.313111643964
0.0455892949998106,6354.300957649692
0.047378933909631396,6238.040691215521
0.049238826317067365,6117.618279640739
0.05117173007114603,5992.166773164038
0.05318051128214196,5861.504164982801
0.05526814857144601,5725.64635143209
0.057437737488265785,5585.05611571117
0.0596924950997073,5440.281394848906
0.0620357647610427,5291.810240133393
0.06447102107323864,5140.080189391397
0.06700187503509585,4985.022886994178
0.06963207939763882,4825.883328331511
0.0723655342286965,4662.980010282186
0.07520629269592405,4498.463163888634
0.07815856707684081,4334.868565894482
0.08122673500479707,4174.986516378304
0.08441534596012978,4020.3528513118094
0.0877291280161335,3871.3374661376592
0.09117299484984914,3727.4138311996826
0.09475205302806537,3587.8842461841687
0.09847160957933764,3452.1569291500396
0.1023371798632519,3319.157072344082
0.10635449574860109,3187.282526149284
0.11052951411260206,3054.807906300301
0.1148684256737553,2921.0026641344743
0.1193776641714435,2786.610718000725
0.1240639159058831,2653.361023204471
0.12893412965257148,2523.6507727415496
0.13399552696593373,2399.865273320401
0.1392556128874462,2282.931551076513
0.14472218707411338,2172.1422402592475
0.15040335536380234,2066.1976496810184
0.15630754179458153,1964.3648065388606
0.16244350109588662,1865.2751403463144
0.16882033167003618,1767.68472061614
0.17544748908334581,1672.296275204944
0.1823348000868439,1580.419178185979
0.189492477187382,1492.7025927528757
0.19693113379074215,1409.948811993956
0.20466179993919872,1331.6903794588436
0.21269593866686892,1256.5549420996765
0.22104546299710207,1184.402281529024
0.22972275360711503,1115.1445640983266
0.23874067718606454,1049.0247992114046
0.2481126055137766,986.391052303096
0.25785243528842716,927.0676447299978
0.26797460873256895,870.7258886175065
0.27849413500806414,817.1567614873987
0.28942661247167484,766.2700839306743
0.3007882518043098,718.1391247269979
0.31259590004822796,672.6432423662583
0.324867065587837,629.6138341536561
0.3376199441111335,588.9695031919564
0.35087344559027084,550.5894810565663
0.36464722232127456,514.4292271636565
0.37896169806447155,480.3616460018657
0.3938380983288488,448.2837553277024
0.4092984818452433,418.1356861205561
0.4253657732750382,389.78750578762043
0.44206379720285277,363.1881774359237
0.45941731346364734,338.22687656554757
0.47745205385661277,314.8113478792857
0.4961947603002895,292.8770321342132
0.5156732244854959,272.33477026328995
0.5359163290848509,253.1009345870666
0.556954090580013,235.10759953413165
0.5788177037701272,218.2897911735921
0.6015395880274836,202.58241680773304
0.6251534353689703,187.9250088214048
0.6496942604146115,174.24866587391838
0.6751984523072497,161.5018190667346
0.7017038286703824,149.62727605889074
0.7292496916841444,138.56773153641188
0.7578768863625915,128.2715022551558
0.7876278611187046,118.69008697942834
0.8185467307069019,109.78070479202957
0.850679341636415,101.50176802759682
0.8840733401525058,93.81218927402857
0.9187782428863317,86.67321152622316
0.9548455102782278,80.04834234259631
0.9923286228832539,73.90324625019791
1.0312831606721837,68.20565514366268
1.0717668854455022,62.92536572042286
1.1138398264826193,58.034041917640245
1.1575643695533022,53.50505483970947
1.2030053494233226,49.3134001492617
1.2502301459914542,45.43561796143075
1.299308784200415,41.84970393031162
1.3503140378698726,38.53499317092465
1.4033215376054824,35.47214132282077
1.4584098829439835,32.64307224057956
1.5156607589006013,30.030905262827858
1.575159057091621,27.619885678665796
1.6369930016117014,25.39531323737703
1.7012542798525885,23.343469001564653
1.7680381784572046,21.451573464611187
1.8374437246107238,19.707732430394852
1.9095738328780953,18.100881270906044
1.9845354578058014,16.6207321987064
2.0624397525140905,15.257727839810686
2.143402233514853,14.00299695531874
2.227542951999554,12.848301376820617
2.314986671851158,11.785993511750146
2.405863054644063,10.808977522802486
2.5003068519063225,9.910672606459142
2.598458104929248,9.08497183301521
2.7004623524206774,8.326208921690558
2.806470846309834,7.629139652073756
2.916640776023701,6.988913186093231
3.031135501567576,6.401044195306374
3.150124795755327,5.8613868893195225
3.2737850959485697,5.366112441760027
3.4022997656780634,4.911685639196406
3.5358593665351745,4.494841446740635
3.6746619407366854,4.112565378963263
3.8189133047818515,3.762075293175514
3.968827354637162,3.440804284355715
4.1246263829013445,3.146383407253654
4.286541408420921,2.8766279903869045
4.4548125188449825,2.629525236270554
4.629689226627261,2.4032212933590773
4.811430839003257,2.1960092177700203
5.000306842491082,2.0063177678338064
5.196597302486189,1.8327008386206651
5.400593278542364,1.6738280515649175
5.612597255954967,1.5284759658726397
5.8329235942862,1.3955197922942293
6.06189899349756,1.2739257185709116
6.29986297838068,1.1627437094822208
6.547168402004727,1.061100587360216
6.804181968927091,0.9681944384142909
7.071284778942991,0.8832891460986639
7.348872892180382,0.8057091483921417
7.637357916378006,0.7348345979748759
7.937167617217536,0.670097135801295
8.248746552614573,0.610976219793197
8.572556731909314,0.5569944512758962
8.909078300934132,0.507713934694204
9.258810253973934,0.4627331217994315
9.622271173675122,0.4216838927073119
9.999999999999984,0.3842279842300658
