k [1/Mpc],P(k) [Mpc^3]
0.0001,2857.2023944438793
0.00010392556829367125,2960.435683720912
0.00010800523745162529,3067.369172242533
0.00011224505680853065,3178.132195545727
0.00011665131316981963,3292.8580073959793
0.00012123054013376525,3411.68369248873
0.00012598952777950273,3534.750744809851
0.00013093533273536104,3662.2052731779995
0.00013607528864243335,3794.198111600607
0.00014141701702890234,3930.88453088145
0.00014696843861124463,4072.423806224682
0.00015273778503907136,4218.9799840817595
0.00015873361110102093,4370.721747160644
0.00016496480740980205,4527.822579525171
0.0001714406135851971,4690.460854810723
0.00017817063195457305,4858.8191482357315
0.00018516484179121546,5033.084989625169
0.000192433614111598,5213.450572051609
0.00019998772705352857,5400.112641280218
0.0002078383818579757,5593.272930613095
0.00021599721947827182,5793.136872139623
0.0002244763378413224,5999.9144189674025
0.0002332883097864157,6213.820023139803
0.00024244620170823283,6435.072020298594
0.0002519635929317015,6663.893384560361
0.0002618545958474233,6900.5101145263025
0.0002721338768375308,7145.151637850062
0.0002828166780230032,7398.051093736006
0.0002939188398646886,7659.443714322273
0.0003054568246515432,7929.568102820292
0.00031744774091091926,8208.664532368968
0.00032990936877709396,8496.974494425967
0.00034286018635565856,8794.741830742629
0.00035631939712285854,9102.210962501671
0.000370306958400514,9419.62764849582
0.00038484361094874304,9747.23683967743
0.0003999509097203664,10085.280539260653
0.00041565125582259895,10434.000319749493
0.00043196792973341727,10793.635847443164
0.0004489251258218605,11164.424895935723
0.0004665479882234472,11546.601591242905
0.000484862648123908,11940.392496160563
0.000503896262506515,12346.019381759847
0.0005236770544204653,12763.696067880159
0.0005442343548300266,13193.627714239654
0.0005655986461065005,13636.011063691532
0.0005878016072274912,14091.028859869999
0.0006108761607505036,14558.85237907223
0.0006348565216305217,15039.636242603381
0.0006597782479539537,15533.514547856004
0.0006856782936641739,16040.604751038481
0.0007125950633568407,16560.99882767036
0.0007405684692262436,17094.765783542443
0.0007696399902471156,17641.9487388112
0.0007998527336796708,18202.55674875992
0.000831251498989063,18776.5708061331
0.0008638828442740447,19363.932801650684
0.000897795155303332,19964.545547279675
0.0009330387172620361,20578.277067846593
0.0009696657893145519,21204.95592489471
0.001007730682094461,21844.37149000252
0.0010472898382363582,22496.25684062189
0.0010884019160690055,23160.282491607442
0.0011311278765939214,23836.075085827724
0.001175531073878369,24523.240754184906
0.0012216773489967915,25221.348614152113
0.0012696351276599736,25929.88919585915
0.0013194755216767058,26648.24401791268
0.0013712724343984,27375.73018527594
0.0014251026703029975,28111.621611850416
0.0014810460488806749,28855.142480118215
0.0015391855229902056,29605.449177918403
0.001599607301861487,30361.61514655239
0.0016624009789266115,31122.645100285983
0.0017276596646690358,31887.482794979183
0.0017954801246878305,32655.01136472936
0.0018659629231817451,33424.04752356339
0.001939212572065829,34193.333752426355
0.0020153376859417325,34961.54529080761
0.002094451143151469,35727.29134009469
0.002176670253153458,36489.11490576123
0.002262116930469025,37245.49803956258
0.002350917875457286,37994.85704483399
0.002443204762186487,38735.54914883263
0.0025391144336803463,39465.86967865223
0.002638789104828933,40184.039691813625
0.002742376573264949,40888.23304699663
0.0028500304385181063,41576.61433490599
0.0029619103297725525,42247.341217859124
0.0030781821425650787,42898.46925514688
0.003199018284775064,43527.706957211856
0.0033245979322709396,44132.66065684781
0.003455107294592217,44711.46944298247
0.0035907398910610534,45263.0085436084
0.0037316968377327513,45785.9510112683
0.0038781871456107214,46276.878738682535
0.0040304280305680515,46731.428314070195
0.00418864523543527,47146.18328928218
0.004353073364731888,47519.79872117091
0.00452395623253805,47851.16102149023
0.004701547224022131,48137.712947801134
0.004886109671160325,48375.90928131144
0.005077917243205399,48562.6497253038
0.005277254352483535,48696.243660172404
0.005484416576121017,48775.39703440457
0.005699711094326071,48798.02212357133
0.005923457145875801,48761.168415174056
0.006155986501483508,48661.97386102069
0.006397643955748424,48497.386001475876
0.0066487878384172625,48264.49449672344
0.0069097905457156435,47960.6754786316
0.007181039092537346,47583.59433534676
0.007462935686310132,47131.2470794063
0.007755898323389004,46601.11656279454
0.00806036140886134,45990.69354912782
0.008376776400682916,45297.8739279126
0.008705612479099857,44520.58325848414
0.009047357242349292,43657.42901121079
0.00940251742967013,42706.79380873837
0.009771619672696168,41667.12190932529
0.010155211276345676,40537.818545968876
0.010553861030365234,39318.324926801586
0.010968160052731372,38009.309567869765
0.011398722666160517,36611.724056491694
0.011846187309026826,35126.47975820728
0.012311217482038896,33556.57475668248
0.012794502732078732,31905.93990175429
0.013296759674662111,30180.599374243153
0.013818733056536317,28386.809280871712
0.014361196859990781,26528.337890440533
0.014924955450518284,24613.349761575362
0.015510844769528393,22658.236167094103
0.016119733573881575,20684.958159842303
0.01675252472408214,18708.468740041648
0.017410156523040152,16717.789639606144
0.018093604107387147,14713.765639323137
0.01880388089340914,12753.655056023788
0.019542040079740527,10927.055308477853
0.02030917620904734,9261.491188673153
0.021106426791015535,7612.109737740039
0.021934973989050584,5898.064396219349
0.02279604637318978,4328.69329488271
0.023690920741826323,3228.1059311710283
0.02462092401494623,2589.752987690503
0.02558743520168586,1836.1181293391921
0.02659188744512693,798.2974897695279
0.027635770147361564,189.29913579217146
0.028720631177978267,49.548102508914134
0.029848079169243254,33.28283753120837
0.03101978590138095,63.690508134892355
0.03223748878149028,176.77648399571294
0.0335029934197723,385.3088138945245
0.03481817630688963,616.9017437567744
0.03618498759642746,818.2630399074449
0.037605453996581675,973.7823484318981
0.03908168177536263,1070.3354267757934
0.04061585988376978,1085.7282497984083
0.04221026320156896,949.7116032175107
0.04386725591048496,714.9138797415288
0.0455892949998106,587.7768011693679
0.047378933909631396,448.07430545753175
0.049238826317067365,89.37917106413013
0.05117173007114603,9.003158319868676
0.05318051128214196,12.039137453917654
0.05526814857144601,85.29189293532617
0.057437737488265785,244.2334478371076
0.0596924950997073,413.50801298541677
0.0620357647610427,582.11436924043
0.06447102107323864,668.7723234398136
0.06700187503509585,663.5497811919274
0.06963207939763882,511.91736959637996
0.0723655342286965,373.508744082216
0.07520629269592405,213.08980009012186
0.07815856707684081,20.589646168617048
0.08122673500479707,6.384010134017274
0.08441534596012978,32.16005002180831
0.0877291280161335,101.16546336108492
0.09117299484984914,155.18660463453475
0.09475205302806537,139.3479326414488
0.09847160957933764,106.30507542677668
0.1023371798632519,12.67855748599883
0.10635449574860109,4.756655429701898
0.11052951411260206,32.744654454417535
0.1148684256737553,101.7833503268593
0.1193776641714435,131.20318323433847
0.1240639159058831,109.37991643469323
0.12893412965257148,49.40728293245529
0.13399552696593373,1.9535985766590402
0.1392556128874462,1.710831739506052
0.14472218707411338,27.216835653571998
0.15040335536380234,25.040016167523234
0.15630754179458153,14.52588428194694
0.16244350109588662,0.03990569691153536
0.16882033167003618,18.786328717388265
0.17544748908334581,31.142098611958758
0.1823348000868439,14.330895249170275
0.189492477187382,1.4023088716980106
0.19693113379074215,0.28056349457078694
0.20466179993919872,4.76853055518887
0.21269593866686892,2.540445561520125
0.22104546299710207,0.5885882763431998
0.22972275360711503,7.212201300771449
0.23874067718606454,5.9312013897019344
0.2481126055137766,0.4187683560261644
0.25785243528842716,0.4904933193001272
0.26797460873256895,0.5062176221341151
0.27849413500806414,0.4266537092122271
0.28942661247167484,2.214438226526231
0.3007882518043098,1.0341514263578868
0.31259590004822796,0.00935926474773739
0.324867065587837,0.01651851826106384
0.3376199441111335,0.25463555335956795
0.35087344559027084,0.7011118341169533
0.36464722232127456,0.17580788410804163
0.37896169806447155,0.0037954632184217735
0.3938380983288488,0.09084536284807235
0.4092984818452433,0.27000978316197854
0.4253657732750382,0.09056927232773639
0.44206379720285277,0.031900743051805514
0.45941731346364734,0.10125971565609442
0.47745205385661277,0.09939078285736379
0.4961947603002895,0.03683386983322352
0.5156732244854959,0.020759622217885593
0.5359163290848509,0.017825114896455416
0.556954090580013,0.020255994001237367
0.5788177037701272,0.02646370498794346
0.6015395880274836,0.03452956706316788
0.6251534353689703,0.03961425820687332
0.6496942604146115,0.03933368556421426
0.6751984523072497,0.035168093134259705
0.7017038286703824,0.02947114883865802
0.7292496916841444,0.02409363776025404
0.7578768863625915,0.01999970921016663
0.7876278611187046,0.017287543934191404
0.8185467307069019,0.015457692889158848
0.850679341636415,0.014143442715922386
0.8840733401525058,0.01309971967004259
0.9187782428863317,0.012149617192961516
0.9548455102782278,0.011169600662358524
0.9923286228832539,0.010155003361829491
1.0312831606721837,0.009156749008332844
1.0717668854455022,0.008213213191783409
1.1138398264826193,0.007349997023451362
1.1575643695533022,0.006581955446213533
1.2030053494233226,0.005910759733804579
1.2502301459914542,0.005321194854170077
1.299308784200415,0.00479859497063497
1.3503140378698726,0.004331314203424206
1.4033215376054824,0.00391009703306458
1.4584098829439835,0.0035276956814842917
1.5156607589006013,0.0031799576877645738
1.575159057091621,0.002864569105045075
1.6369930016117014,0.002579244404486386
1.7012542798525885,0.002321712385135616
1.7680381784572046,0.0020897511050274125
1.8374437246107238,0.0018811370527765383
1.9095738328780953,0.0016934923591167548
1.9845354578058014,0.0015246214126973044
2.0624397525140905,0.001372574096854459
2.143402233514853,0.0012356163117532327
2.227542951999554,0.0011122052831429026
2.314986671851158,0.0010009931850665046
2.405863054644063,0.0009007976364632535
2.5003068519063225,0.0008105488079069396
2.598458104929248,0.0007292774531989951
2.7004623524206774,0.0006561059107615433
2.806470846309834,0.0005902387756941049
2.916640776023701,0.0005309514980436385
3.031135501567576,0.0004775891928134368
3.150124795755327,0.0004295620009423807
3.2737850959485697,0.00038633864043785196
3.4022997656780634,0.00034744059958804585
3.5358593665351745,0.0003124370985945206
3.6746619407366854,0.00028094036839035645
3.8189133047818515,0.0002526010581041524
3.968827354637162,0.0002271044243074513
4.1246263829013445,0.00020416692202029592
4.286541408420921,0.00018353314836067918
4.4548125188449825,0.0001649731723332243
4.629689226627261,0.00014827990694890204
4.811430839003257,0.0001332667918536653
5.000306842491082,0.00011976577560598867
5.196597302486189,0.00010762549463173115
5.400593278542364,9.670961894367309e-05
5.612597255954967,8.689536441931043e-05
5.8329235942862,7.807217912508282e-05
6.06189899349756,7.014053598139786e-05
6.29986297838068,6.301084096552151e-05
6.547168402004727,5.66024379282473e-05
6.804181968927091,5.0842630191084957e-05
7.071284778942991,4.566596902522085e-05
7.348872892180382,4.101360258609217e-05
7.637357916378006,3.683261126316189e-05
7.937167617217536,3.307540928916424e-05
8.248746552614573,2.9699250452736575e-05
8.572556731909314,2.666579041188754e-05
8.909078300934132,2.3940521578493697e-05
9.258810253973934,2.1492374118442054e-05
9.622271173675122,1.929337812789187e-05
9.999999999999984,1.73183526472875e-05
