k [1/Mpc],P(k) [Mpc^3]
0.0001,972.1238834602849
0.00010392556829367125,1004.4554334409321
0.00010800523745162529,1037.861438437246
0.00011224505680853065,1072.3774327892193
0.00011665131316981963,1108.0401166591419
0.00012123054013376525,1144.887433963752
0.00012598952777950273,1182.958590705263
0.00013093533273536104,1222.2940929617275
0.00013607528864243335,1262.9357979065487
0.00014141701702890234,1304.9269299365437
0.00014696843861124463,1348.3120099855796
0.00015273778503907136,1393.1369414209953
0.00015873361110102093,1439.4491649290921
0.00016496480740980205,1487.29778926399
0.0001714406135851971,1536.7335430893988
0.00017817063195457305,1587.8086775622055
0.00018516484179121546,1640.5770267304274
0.000192433614111598,1695.0941787993654
0.00019998772705352857,1751.417598063386
0.0002078383818579757,1809.606625551248
0.00021599721947827182,1869.7223837013248
0.0002244763378413224,1931.8277899139434
0.0002332883097864157,1995.9877699907124
0.00024244620170823283,2062.2694096488754
0.0002519635929317015,2130.7419701735425
0.0002618545958474233,2201.4768171108153
0.0002721338768375308,2274.5473910068613
0.0002828166780230032,2350.0294151289627
0.0002939188398646886,2428.00091941397
0.0003054568246515432,2508.5423305851887
0.00031744774091091926,2591.7364887539284
0.00032990936877709396,2677.668560515101
0.00034286018635565856,2766.4262756083444
0.00035631939712285854,2858.099963602595
0.000370306958400514,2952.782629922696
0.00038484361094874304,3050.5700305079336
0.0003999509097203664,3151.560573199546
0.00041565125582259895,3255.8555252429696
0.00043196792973341727,3363.5588937792513
0.0004489251258218605,3474.7774071283993
0.0004665479882234472,3589.6208163404267
0.000484862648123908,3708.201814511088
0.000503896262506515,3830.6362027984287
0.0005236770544204653,3957.0426945268696
0.0005442343548300266,4087.5426544020693
0.0005655986461065005,4222.260648300538
0.0005878016072274912,4361.32452788863
0.0006108761607505036,4504.865507530896
0.0006348565216305217,4653.017908488446
0.0006597782479539537,4805.918563858138
0.0006856782936641739,4963.70752578679
0.0007125950633568407,5126.527883297802
0.0007405684692262436,5294.525804145347
0.0007696399902471156,5467.850691904947
0.0007998527336796708,5646.654623361091
0.000831251498989063,5831.092819376935
0.0008638828442740447,6021.323090800481
0.000897795155303332,6217.505525189694
0.0009330387172620361,6419.803146140188
0.0009696657893145519,6628.3810563309935
0.001007730682094461,6843.406889145828
0.0010472898382363582,7065.050221014239
0.0010884019160690055,7293.48154628514
0.0011311278765939214,7528.873417220316
0.001175531073878369,7771.398804015512
0.0012216773489967915,8021.231472254834
0.0012696351276599736,8278.546102705952
0.0013194755216767058,8543.516608038286
0.0013712724343984,8816.317391597786
0.0014251026703029975,9097.121252107881
0.0014810460488806749,9386.099070973305
0.0015391855229902056,9683.420591515478
0.001599607301861487,9989.251364153717
0.0016624009789266115,10303.754484057232
0.0017276596646690358,10627.088955398312
0.0017954801246878305,10959.408279751393
0.0018659629231817451,11300.861825420665
0.001939212572065829,11651.590860518907
0.0020153376859417325,12011.729924524332
0.002094451143151469,12381.405580820998
0.002176670253153458,12760.733271635832
0.002262116930469025,13149.819825272225
0.002350917875457286,13548.75931917568
0.002443204762186487,13957.633377457716
0.0025391144336803463,14376.510604191004
0.002638789104828933,14805.44114294393
0.002742376573264949,15244.460217587373
0.0028500304385181063,15693.584015588478
0.0029619103297725525,16152.808473873729
0.0030781821425650787,16622.10994432255
0.003199018284775064,17101.436776124323
0.0033245979322709396,17590.713734694462
0.003455107294592217,18089.838796603643
0.0035907398910610534,18598.67971852309
0.0037316968377327513,19117.076346150592
0.0038781871456107214,19644.82797875887
0.0040304280305680515,20181.698241494643
0.00418864523543527,20727.41487205146
0.004353073364731888,21281.663362164287
0.00452395623253805,21844.09133116857
0.004701547224022131,22414.290346866186
0.004886109671160325,22991.79938619442
0.005077917243205399,23576.110142221583
0.005277254352483535,24166.65474201846
0.005484416576121017,24762.81470130596
0.005699711094326071,25363.8889878983
0.005923457145875801,25969.090759560167
0.006155986501483508,26577.584204296498
0.006397643955748424,27188.513938792672
0.0066487878384172625,27800.981110260404
0.0069097905457156435,28413.908682189514
0.007181039092537346,29025.97517799854
0.007462935686310132,29635.778233631463
0.007755898323389004,30241.90698792098
0.00806036140886134,30842.913896072947
0.008376776400682916,31437.28361265201
0.008705612479099857,32023.428952606173
0.009047357242349292,32599.690802855403
0.00940251742967013,33164.18395717466
0.009771619672696168,33714.84489158531
0.010155211276345676,34249.51052184938
0.010553861030365234,34765.84429451565
0.010968160052731372,35261.42900204909
0.011398722666160517,35733.70392286878
0.011846187309026826,36179.971861365455
0.012311217482038896,36597.47021069408
0.012794502732078732,36983.24688310644
0.013296759674662111,37334.292836818895
0.013818733056536317,37647.467796851655
0.014361196859990781,37919.447858721505
0.014924955450518284,38146.92343576663
0.015510844769528393,38326.43288733383
0.016119733573881575,38454.522426174764
0.01675252472408214,38527.76139345842
0.017410156523040152,38542.62071979503
0.018093604107387147,38495.761044805855
0.01880388089340914,38383.86707435034
0.019542040079740527,38203.78844282539
0.02030917620904734,37952.69629631432
0.021106426791015535,37627.93167565745
0.021934973989050584,37227.317481300524
0.02279604637318978,36749.12016906603
0.023690920741826323,36192.11466065233
0.02462092401494623,35555.811730040274
0.02558743520168586,34840.48591029937
0.02659188744512693,34047.245901146205
0.027635770147361564,33178.17444393516
0.028720631177978267,32236.378396973523
0.029848079169243254,31225.9528123348
0.03101978590138095,30152.78356308536
0.03223748878149028,29023.840250795733
0.0335029934197723,27846.764232670976
0.03481817630688963,26629.969495415062
0.03618498759642746,25382.44460698815
0.037605453996581675,24117.843939977396
0.03908168177536263,22851.92542975372
0.04061585988376978,21597.480507523145
0.04221026320156896,20362.011217044674
0.04386725591048496,19151.69950824738
0.0455892949998106,17979.257749603043
0.047378933909631396,16862.113325045506
0.049238826317067365,15813.738735118663
0.05117173007114603,14843.722732892336
0.05318051128214196,13958.528468815492
0.05526814857144601,13162.227563005492
0.057437737488265785,12456.923300782648
0.0596924950997073,11841.425400893015
0.0620357647610427,11312.610797402842
0.06447102107323864,10864.394464904417
0.06700187503509585,10489.04692705457
0.06963207939763882,10175.550591220355
0.0723655342286965,9910.587368758059
0.07520629269592405,9677.255691249502
0.07815856707684081,9455.103248885
0.08122673500479707,9222.366111190902
0.08441534596012978,8958.363013178421
0.0877291280161335,8643.410832323945
0.09117299484984914,8262.507583180024
0.09475205302806537,7809.300108734964
0.09847160957933764,7287.758975485897
0.1023371798632519,6712.333365171569
0.10635449574860109,6106.510423497348
0.11052951411260206,5500.608358948022
0.1148684256737553,4928.103845754477
0.1193776641714435,4419.695712713415
0.1240639159058831,3998.1261901191174
0.12893412965257148,3675.069592834179
0.13399552696593373,3450.436471844013
0.1392556128874462,3313.0507666893654
0.14472218707411338,3241.07967111881
0.15040335536380234,3202.4803768409706
0.15630754179458153,3157.962802229672
0.16244350109588662,3068.518949040198
0.16882033167003618,2906.711579426776
0.17544748908334581,2668.444278218202
0.1823348000868439,2378.4709146531
0.189492477187382,2081.8867856143343
0.19693113379074215,1824.4358604210277
0.20466179993919872,1636.8455599337926
0.21269593866686892,1529.0515062514712
0.22104546299710207,1487.0788513975583
0.22972275360711503,1474.1292598951002
0.23874067718606454,1443.5749314588866
0.2481126055137766,1360.6838423622266
0.25785243528842716,1223.0929007641146
0.26797460873256895,1064.3593125179436
0.27849413500806414,930.34221429686
0.28942661247167484,849.8230289931525
0.3007882518043098,818.575285703068
0.31259590004822796,803.7864665279847
0.324867065587837,766.3466846997419
0.3376199441111335,691.6396141699147
0.35087344559027084,603.491894828895
0.36464722232127456,537.7673920314661
0.37896169806447155,506.6344188062538
0.3938380983288488,490.0308066220156
0.4092984818452433,458.9056837441252
0.4253657732750382,408.6280728991166
0.44206379720285277,362.6250270120353
0.45941731346364734,336.94914397964203
0.47745205385661277,320.69272134137935
0.4961947603002895,295.0490400412846
0.5156732244854959,262.982110346845
0.5359163290848509,239.91527967363913
0.556954090580013,225.29049201325714
0.5788177037701272,207.04073305800117
0.6015395880274836,186.12982138942672
0.6251534353689703,171.0681996552138
0.6496942604146115,158.61581956358805
0.6751984523072497,143.87564993201707
0.7017038286703824,131.14224709237632
0.7292496916841444,121.0114476397461
0.7578768863625915,110.92630490271951
0.7876278611187046,101.13830044543272
0.8185467307069019,92.05640367343281
0.850679341636415,83.86455709407271
0.8840733401525058,76.47291955604081
0.9187782428863317,69.77411173579094
0.9548455102782278,63.67824225492176
0.9923286228832539,58.10996243638823
1.0312831606721837,53.00621699904887
1.0717668854455022,48.32164632987256
1.1138398264826193,44.02704079369186
1.1575643695533022,40.09522897168574
1.2030053494233226,36.50008660221697
1.2502301459914542,33.21663648302497
1.299308784200415,30.221055717705426
1.3503140378698726,27.489613324043574
1.4033215376054824,24.999290318550365
1.4584098829439835,22.7290410844454
1.5156607589006013,20.659664598240585
1.575159057091621,18.773639490113528
1.6369930016117014,17.054996386839463
1.7012542798525885,15.489358846078702
1.7680381784572046,14.063649410642476
1.8374437246107238,12.765845249159758
1.9095738328780953,11.5848988650866
1.9845354578058014,10.510665589888795
2.0624397525140905,9.533827415230629
2.143402233514853,8.64579718824466
2.227542951999554,7.83870453631964
2.314986671851158,7.105355985066012
2.405863054644063,6.439178804521174
2.5003068519063225,5.834169293692028
2.598458104929248,5.284847297903493
2.7004623524206774,4.786216033358493
2.806470846309834,4.333714322057287
2.916640776023701,3.9231785952332117
3.031135501567576,3.550809607322331
3.150124795755327,3.213141785321065
3.2737850959485697,2.9070141242104386
3.4022997656780634,2.6295438228941967
3.5358593665351745,2.378104528267887
3.6746619407366854,2.1503044769440036
3.8189133047818515,1.9439661900567982
3.968827354637162,1.7571078466446555
4.1246263829013445,1.587925857625318
4.286541408420921,1.4347793282714285
4.4548125188449825,1.296176298133686
4.629689226627261,1.170760609948796
4.811430839003257,1.057299867303202
5.000306842491082,0.9546744438906879
5.196597302486189,0.8618676446054163
5.400593278542364,0.7779563570735476
5.612597255954967,0.7021024453787928
5.8329235942862,0.6335451205756325
6.06189899349756,0.5715939805055734
6.29986297838068,0.5156226016861895
6.547168402004727,0.46506240291884754
6.804181968927091,0.4193977455329368
7.071284778942991,0.3781613280757326
7.348872892180382,0.3409297401848229
7.637357916378006,0.3073194152365822
7.937167617217536,0.27698303762957727
8.248746552614573,0.24960645622272534
8.572556731909314,0.22490521306179154
8.909078300934132,0.202621673758433
9.258810253973934,0.182522557685415
9.622271173675122,0.16439668850342168
9.999999999999984,0.14805264944462407
