k [1/Mpc],P(k) [Mpc^3]
0.0001,2793.728144212368
0.00010392556829367125,2886.565885589056
0.00010800523745162529,2982.4797773365726
0.00011224505680853065,3081.570659786356
0.00011665131316981963,3183.9423916972974
0.00012123054013376525,3289.702182488502
0.00012598952777950273,3398.960838388745
0.00013093533273536104,3511.832752260682
0.00013607528864243335,3628.4356998242088
0.00014141701702890234,3748.890839928261
0.00014696843861124463,3873.3231203138425
0.00015273778503907136,4001.8614341584725
0.00015873361110102093,4134.638722200343
0.00016496480740980205,4271.791837601713
0.0001714406135851971,4413.461397479255
0.00017817063195457305,4559.7922727091745
0.00018516484179121546,4710.933765436729
0.000192433614111598,4867.039731461344
0.00019998772705352857,5028.268457078325
0.0002078383818579757,5194.78223310076
0.00021599721947827182,5366.747987453422
0.0002244763378413224,5544.337188169993
0.0002332883097864157,5727.725920635833
0.00024244620170823283,5917.0952402218
0.0002519635929317015,6112.630992956202
0.0002618545958474233,6314.524135458065
0.0002721338768375308,6522.970259125917
0.0002828166780230032,6738.1692343432005
0.0002939188398646886,6960.3260981207895
0.0003054568246515432,7189.650573219165
0.00031744774091091926,7426.357435835231
0.00032990936877709396,7670.666396196202
0.00034286018635565856,7922.801362525362
0.00035631939712285854,8182.991396754508
0.000370306958400514,8451.470031929037
0.00038484361094874304,8728.475412982109
0.0003999509097203664,9014.250413801568
0.00041565125582259895,9309.040959249072
0.00043196792973341727,9613.097425208334
0.0004489251258218605,9926.67422687946
0.0004665479882234472,10250.029498112503
0.000484862648123908,10583.425584190445
0.000503896262506515,10927.127056817451
0.0005236770544204653,11281.401736366914
0.0005442343548300266,11646.519906433063
0.0005655986461065005,12022.752717031126
0.0005878016072274912,12410.374006759315
0.0006108761607505036,12809.658905875403
0.0006348565216305217,13220.88403298003
0.0006597782479539537,13644.326398086538
0.0006856782936641739,14080.259593139794
0.0007125950633568407,14528.956835933934
0.0007405684692262436,14990.68886168911
0.0007696399902471156,15465.72331296444
0.0007998527336796708,15954.324967882381
0.000831251498989063,16456.749686443225
0.0008638828442740447,16973.247742897012
0.000897795155303332,17504.06069374529
0.0009330387172620361,18049.418136362012
0.0009696657893145519,18609.54106245484
0.001007730682094461,19184.634214647933
0.0010472898382363582,19774.88842170052
0.0010884019160690055,20380.47880437124
0.0011311278765939214,21001.55781788981
0.001175531073878369,21638.26082308179
0.0012216773489967915,22290.699458417872
0.0012696351276599736,22958.96131238593
0.0013194755216767058,23643.109702017282
0.0013712724343984,24343.1729966873
0.0014251026703029975,25059.15095187724
0.0014810460488806749,25791.00706003497
0.0015391855229902056,26538.66463405088
0.001599607301861487,27302.011772868034
0.0016624009789266115,28080.890964533075
0.0017276596646690358,28875.10283075245
0.0017954801246878305,29684.402703128333
0.0018659629231817451,30508.49426571458
0.001939212572065829,31347.03371666266
0.0020153376859417325,32199.6168123341
0.002094451143151469,33065.78115537824
0.002176670253153458,33945.006947243884
0.002262116930469025,34836.70730246227
0.002350917875457286,35740.23456324021
0.002443204762186487,36654.868059594766
0.0025391144336803463,37579.81269204521
0.002638789104828933,38514.204149952726
0.002742376573264949,39457.09457597645
0.0028500304385181063,40407.46190466812
0.0029619103297725525,41364.20180963547
0.0030781821425650787,42326.121610008646
0.003199018284775064,43291.95046041729
0.0033245979322709396,44260.31906000924
0.003455107294592217,45229.771257171196
0.0035907398910610534,46198.769295284015
0.0037316968377327513,47165.6881992748
0.0038781871456107214,48128.81622976187
0.0040304280305680515,49086.23001336323
0.00418864523543527,50035.82733363973
0.004353073364731888,50975.53726665665
0.00452395623253805,51903.62142348758
0.004701547224022131,52818.35772641041
0.004886109671160325,53717.20120571748
0.005077917243205399,54596.67487247437
0.005277254352483535,55453.324858611
0.005484416576121017,56284.651518475024
0.005699711094326071,57088.48296787415
0.005923457145875801,57862.09778826316
0.006155986501483508,58601.84644391638
0.006397643955748424,59304.01332519593
0.0066487878384172625,59965.51729290845
0.0069097905457156435,60583.65502159834
0.007181039092537346,61155.43819825475
0.007462935686310132,61677.06564038755
0.007755898323389004,62144.62769107578
0.00806036140886134,62554.104393196954
0.008376776400682916,62901.41811918582
0.008705612479099857,63182.560599299926
0.009047357242349292,63393.49825573169
0.00940251742967013,63530.3281910114
0.009771619672696168,63589.029060938265
0.010155211276345676,63565.40615591817
0.010553861030365234,63455.47998848496
0.010968160052731372,63255.15104097372
0.011398722666160517,62960.54443637956
0.011846187309026826,62567.98008400007
0.012311217482038896,62073.752627166396
0.012794502732078732,61474.69323433271
0.013296759674662111,60767.79721308714
0.013818733056536317,59950.52171506746
0.014361196859990781,59021.00614808011
0.014924955450518284,57977.67027607287
0.015510844769528393,56819.90783781811
0.016119733573881575,55547.86955904121
0.01675252472408214,54162.57149013076
0.017410156523040152,52666.33316507158
0.018093604107387147,51062.4759071327
0.01880388089340914,49355.711067620294
0.019542040079740527,47552.27502249319
0.02030917620904734,45659.885156724464
0.021106426791015535,43687.7807092704
0.021934973989050584,41647.165607427065
0.02279604637318978,39550.61862107025
0.023690920741826323,37412.254680176724
0.02462092401494623,35248.275565243144
0.02558743520168586,33075.105428432806
0.02659188744512693,30911.263291709707
0.027635770147361564,28775.738910931857
0.028720631177978267,26686.654921544978
0.029848079169243254,24664.10507744618
0.03101978590138095,22725.243859636765
0.03223748878149028,20887.25460713841
0.0335029934197723,19166.82876018943
0.03481817630688963,17575.50793338496
0.03618498759642746,16124.015566170547
0.037605453996581675,14818.912197387466
0.03908168177536263,13664.774559021918
0.04061585988376978,12667.069470694474
0.04221026320156896,11826.68474620582
0.04386725591048496,11134.957375130742
0.0455892949998106,10580.976409327284
0.047378933909631396,10150.666990534053
0.049238826317067365,9828.203306667778
0.05117173007114603,9598.086536105275
0.05318051128214196,9444.003913903205
0.05526814857144601,9343.95869553712
0.057437737488265785,9269.454990131957
0.0596924950997073,9185.130828153207
0.0620357647610427,9052.643432679091
0.06447102107323864,8836.114208008194
0.06700187503509585,8509.322630773962
0.06963207939763882,8060.668477726037
0.0723655342286965,7496.406818205328
0.07520629269592405,6834.661595931176
0.07815856707684081,6105.539412662615
0.08122673500479707,5352.087962555431
0.08441534596012978,4624.926809115949
0.0877291280161335,3973.6140112629955
0.09117299484984914,3436.979572375236
0.09475205302806537,3035.683228576086
0.09847160957933764,2770.51646393627
0.1023371798632519,2628.7320328899
0.10635449574860109,2587.524480899227
0.11052951411260206,2613.134481979516
0.1148684256737553,2659.6253081808663
0.1193776641714435,2674.015391392307
0.1240639159058831,2608.6250224775276
0.12893412965257148,2436.285280424118
0.13399552696593373,2166.342341869092
0.1392556128874462,1847.880634816774
0.14472218707411338,1545.483740248192
0.15040335536380234,1308.304696391582
0.15630754179458153,1160.910078769665
0.16244350109588662,1103.3779076224048
0.16882033167003618,1107.979076378597
0.17544748908334581,1127.5049775414916
0.1823348000868439,1112.814442354697
0.189492477187382,1032.387472022408
0.19693113379074215,896.9793580620527
0.20466179993919872,752.5489686602067
0.21269593866686892,645.0042555995446
0.22104546299710207,593.4238496103926
0.22972275360711503,582.8798853799601
0.23874067718606454,578.986830391509
0.2481126055137766,546.764002102349
0.25785243528842716,482.1386864683233
0.26797460873256895,412.6817823202784
0.27849413500806414,367.10480530531424
0.28942661247167484,348.6662180951987
0.3007882518043098,337.1227033635807
0.31259590004822796,311.7619324532273
0.324867065587837,274.2982408094917
0.3376199441111335,243.09953728252566
0.35087344559027084,226.12483086034513
0.36464722232127456,213.4885465833819
0.37896169806447155,194.47890770656917
0.3938380983288488,173.1172604830458
0.4092984818452433,157.93160293388036
0.4253657732750382,146.93731954144414
0.44206379720285277,133.99334973197355
0.45941731346364734,120.62157108442605
0.47745205385661277,110.42870048686277
0.4961947603002895,101.41129776087753
0.5156732244854959,91.87364286589259
0.5359163290848509,83.60148207806981
0.556954090580013,76.43970746487312
0.5788177037701272,69.57736015134678
0.6015395880274836,63.30555048783387
0.6251534353689703,57.58382810952445
0.6496942604146115,52.36634336424815
0.6751984523072497,47.61074861394375
0.7017038286703824,43.2779707015615
0.7292496916841444,39.331806465270496
0.7578768863625915,35.73820885311156
0.7876278611187046,32.46592044115621
0.8185467307069019,29.48647589965834
0.850679341636415,26.773946947524017
0.8840733401525058,24.30471337778756
0.9187782428863317,22.05741144825825
0.9548455102782278,20.012782205396686
0.9923286228832539,18.153183585102038
1.0312831606721837,16.46243443159096
1.0717668854455022,14.925701995731004
1.1138398264826193,13.529394210731894
1.1575643695533022,12.26102718245295
1.2030053494233226,11.109161273141282
1.2502301459914542,10.06334975050755
1.299308784200415,9.114056319390714
1.3503140378698726,8.252578455193357
1.4033215376054824,7.470978018656414
1.4584098829439835,6.762019901220729
1.5156607589006013,6.119107228706297
1.575159057091621,5.53622535242244
1.6369930016117014,5.0078922613817864
1.7012542798525885,4.529113022981636
1.7680381784572046,4.095337153531008
1.8374437246107238,3.7024199271652924
1.9095738328780953,3.3465889176534738
1.9845354578058014,3.024411722616097
2.0624397525140905,2.7327661981115914
2.143402233514853,2.4688132100185274
2.227542951999554,2.229971739324643
2.314986671851158,2.0138960315161234
2.405863054644063,1.8184546813886333
2.5003068519063225,1.64171156187891
2.598458104929248,1.4819083961628015
2.7004623524206774,1.3374486735381008
2.806470846309834,1.2068825271274042
2.916640776023701,1.0888943170467231
3.031135501567576,0.9822907740359114
3.150124795755327,0.8859898518497905
3.2737850959485697,0.7990105714690109
3.4022997656780634,0.7204639174009806
3.5358593665351745,0.649544492651633
3.6746619407366854,0.5855224979969516
3.8189133047818515,0.5277367451032228
3.968827354637162,0.4755883405608126
4.1246263829013445,0.42853492609122257
4.286541408420921,0.3860852751507461
4.4548125188449825,0.34779464109663066
4.629689226627261,0.31326061793293325
4.811430839003257,0.2821191818197753
5.000306842491082,0.25404108947350784
5.196597302486189,0.22872861552098753
5.400593278542364,0.2059126142975571
5.612597255954967,0.18534978444110303
5.8329235942862,0.1668202103687309
6.06189899349756,0.1501251502844205
6.29986297838068,0.13508502945089096
6.547168402004727,0.12153759388621335
6.804181968927091,0.10933624125052999
7.071284778942991,0.09834859349935861
7.348872892180382,0.08845514333838253
7.637357916378006,0.07954801859636457
7.937167617217536,0.07152986629853293
8.248746552614573,0.06431289188393181
8.572556731909314,0.057817914442594286
8.909078300934132,0.051973475607993924
9.258810253973934,0.04671509633136484
9.622271173675122,0.04198460615337475
9.999999999999984,0.037729509776578754
