k [1/Mpc],P(k) [Mpc^3]
0.0001,34.894001877771785
0.00010392556829367125,36.36838893583277
0.00010800523745162529,37.90504877683582
0.00011224505680853065,39.50660854040106
0.00011665131316981963,41.17580615869348
0.00012123054013376525,42.915495871958846
0.00012598952777950273,44.728652733394405
0.00013093533273536104,46.61837585925685
0.00013607528864243335,48.587891479944254
0.00014141701702890234,50.64056082194326
0.00014696843861124463,52.77988740402976
0.00015273778503907136,55.00952289030391
0.00015873361110102093,57.33327202386699
0.00016496480740980205,59.75509782642869
0.0001714406135851971,62.27912914017993
0.00017817063195457305,64.9096678229249
0.00018516484179121546,67.65119593323429
0.000192433614111598,70.5083828815669
0.00019998772705352857,73.48609070590825
0.0002078383818579757,76.58938335237157
0.00021599721947827182,79.82353519970992
0.0002244763378413224,83.19403864391089
0.0002332883097864157,86.70661466997014
0.00024244620170823283,90.36722405048913
0.0002519635929317015,94.18207691738417
0.0002618545958474233,98.15763943810649
0.0002721338768375308,102.30063766422124
0.0002828166780230032,106.6180739866592
0.0002939188398646886,111.11723800685297
0.0003054568246515432,115.80571767062152
0.00031744774091091926,120.69141344929706
0.00032990936877709396,125.7825518179083
0.00034286018635565856,131.08769784541582
0.00035631939712285854,136.61576004539225
0.000370306958400514,142.37599630076812
0.00038484361094874304,148.37803968438226
0.0003999509097203664,154.63191490904768
0.00041565125582259895,161.1480536531925
0.00043196792973341727,167.9373043196681
0.0004489251258218605,175.0109357496487
0.0004665479882234472,182.3806656750126
0.000484862648123908,190.05867532552156
0.000503896262506515,198.0576266198458
0.0005236770544204653,206.3906799397145
0.0005442343548300266,215.07149181912345
0.0005655986461065005,224.1142479560519
0.0005878016072274912,233.53368554775028
0.0006108761607505036,243.34511060542138
0.0006348565216305217,253.56441990619012
0.0006597782479539537,264.20809091602604
0.0006856782936641739,275.2932150120604
0.0007125950633568407,286.83752671540094
0.0007405684692262436,298.85941248622225
0.0007696399902471156,311.37794544795054
0.0007998527336796708,324.4128712525224
0.000831251498989063,337.984631809648
0.0008638828442740447,352.1144136834163
0.000897795155303332,366.8241591838663
0.0009330387172620361,382.1365987497174
0.0009696657893145519,398.07521784351707
0.001007730682094461,414.6642504657169
0.0010472898382363582,431.92876237246094
0.0010884019160690055,449.8946446394231
0.0011311278765939214,468.58865198202193
0.001175531073878369,488.03837677462525
0.0012216773489967915,508.2721877598791
0.0012696351276599736,529.3193437762908
0.0013194755216767058,551.2099580940874
0.0013712724343984,573.9750260025688
0.0014251026703029975,597.646430127393
0.0014810460488806749,622.2568012875706
0.0015391855229902056,647.8396546300227
0.001599607301861487,674.4293356084265
0.0016624009789266115,702.0609954137002
0.0017276596646690358,730.7706564276104
0.0017954801246878305,760.5950230124853
0.0018659629231817451,791.57158550386
0.001939212572065829,823.7385394647744
0.0020153376859417325,857.1346253853787
0.002094451143151469,891.7992972673804
0.002176670253153458,927.772496028368
0.002262116930469025,965.0946801767897
0.002350917875457286,1003.8068150212049
0.002443204762186487,1043.9500942258355
0.0025391144336803463,1085.5661005154673
0.002638789104828933,1128.6964458921505
0.002742376573264949,1173.382655796052
0.0028500304385181063,1219.6663309597047
0.0029619103297725525,1267.588767795444
0.0030781821425650787,1317.1910644378183
0.003199018284775064,1368.5138115654556
0.0033245979322709396,1421.5967487338044
0.003455107294592217,1476.4789731761966
0.0035907398910610534,1533.1983238905016
0.0037316968377327513,1591.7914241958997
0.0038781871456107214,1652.2935352597772
0.0040304280305680515,1714.7379463366267
0.00418864523543527,1779.1562160651308
0.004353073364731888,1845.5773141955103
0.00452395623253805,1914.0274139352898
0.004701547224022131,1984.529982199918
0.004886109671160325,2057.104649933902
0.005077917243205399,2131.7676144472307
0.005277254352483535,2208.530861272604
0.005484416576121017,2287.4014818632113
0.005699711094326071,2368.3818342967174
0.005923457145875801,2451.466474380482
0.006155986501483508,2536.643148328729
0.006397643955748424,2623.895800927227
0.0066487878384172625,2713.2070603298453
0.0069097905457156435,2804.553328209045
0.007181039092537346,2897.8883454724123
0.007462935686310132,2993.14498190734
0.007755898323389004,3090.2499273820636
0.00806036140886134,3189.1365132022797
0.008376776400682916,3289.7328713802644
0.008705612479099857,3391.9440217461215
0.009047357242349292,3495.6471838274174
0.00940251742967013,3600.707903840686
0.009771619672696168,3706.9927465598485
0.010155211276345676,3814.3619732901343
0.010553861030365234,3922.6545655935965
0.010968160052731372,4031.678065518837
0.011398722666160517,4141.222681929127
0.011846187309026826,4251.056341065654
0.012311217482038896,4360.926703484685
0.012794502732078732,4470.564648275855
0.013296759674662111,4579.682682042431
0.013818733056536317,4687.9769763573295
0.014361196859990781,4795.118680623802
0.014924955450518284,4900.753666463561
0.015510844769528393,5004.510681866437
0.016119733573881575,5105.994765621479
0.01675252472408214,5204.794539325153
0.017410156523040152,5300.481905946988
0.018093604107387147,5392.61052135572
0.01880388089340914,5480.724509472106
0.019542040079740527,5564.357025051663
0.02030917620904734,5643.0351918320885
0.021106426791015535,5716.286914181145
0.021934973989050584,5783.645987971803
0.02279604637318978,5844.6542899438255
0.023690920741826323,5898.877304795221
0.02462092401494623,5945.906711354853
0.02558743520168586,5985.362927463712
0.02659188744512693,6016.930141325195
0.027635770147361564,6040.332022537222
0.028720631177978267,6055.362152725581
0.029848079169243254,6061.901538830296
0.03101978590138095,6059.88659366744
0.03223748878149028,6049.412960145182
0.0335029934197723,6030.667875734608
0.03481817630688963,6003.897288620415
0.03618498759642746,5969.433737203278
0.037605453996581675,5927.668877706797
0.03908168177536263,5879.388946515746
0.04061585988376978,5825.6584771031585
0.04221026320156896,5767.3569132764
0.04386725591048496,5704.70064696306
0.0455892949998106,5637.786607776829
0.047378933909631396,5567.424060892998
0.049238826317067365,5495.216028707417
0.05117173007114603,5422.610736790831
0.05318051128214196,5350.175863944333
0.05526814857144601,5278.129780439826
0.057437737488265785,5206.373624814893
0.0596924950997073,5134.391507175563
0.0620357647610427,5061.509302358331
0.06447102107323864,4986.650091546902
0.06700187503509585,4908.685474914968
0.06963207939763882,4826.415702063894
0.0723655342286965,4738.6570054879485
0.07520629269592405,4644.197600224903
0.07815856707684081,4541.886796610924
0.08122673500479707,4430.674747444085
0.08441534596012978,4309.985570801788
0.0877291280161335,4179.9176472807185
0.09117299484984914,4041.7122948551623
0.09475205302806537,3897.8154799904273
0.09847160957933764,3751.487984149876
0.1023371798632519,3606.3550726258063
0.10635449574860109,3466.855991640893
0.11052951411260206,3335.5708049379073
0.1148684256737553,3213.3807936888743
0.1193776641714435,3101.008826136011
0.1240639159058831,2997.7687755102734
0.12893412965257148,2901.2614653250034
0.13399552696593373,2807.527589254694
0.1392556128874462,2711.882016923301
0.14472218707411338,2610.4492518402753
0.15040335536380234,2501.3407908935537
0.15630754179458153,2385.2344028910697
0.16244350109588662,2265.3596538228717
0.16882033167003618,2146.7655780995065
0.17544748908334581,2034.7841197223179
0.1823348000868439,1933.3664901315663
0.189492477187382,1843.9157073801093
0.19693113379074215,1764.294453939523
0.20466179993919872,1688.866816006001
0.21269593866686892,1611.5555673792965
0.22104546299710207,1529.6747156942895
0.22972275360711503,1444.401359103267
0.23874067718606454,1359.7046679022917
0.2481126055137766,1280.8363788491833
0.25785243528842716,1210.5793350446456
0.26797460873256895,1147.6278128514364
0.27849413500806414,1088.2570522493168
0.28942661247167484,1028.462770388128
0.3007882518043098,967.2356422483161
0.31259590004822796,907.292986707595
0.324867065587837,852.223404958681
0.3376199441111335,802.5438174303488
0.35087344559027084,755.8874773535592
0.36464722232127456,710.1110781045674
0.37896169806447155,665.1288023582862
0.3938380983288488,622.6242497166063
0.4092984818452433,583.6190596130514
0.4253657732750382,547.0967240693395
0.44206379720285277,511.8023435891997
0.45941731346364734,478.1334145223015
0.47745205385661277,446.7072277967692
0.4961947603002895,417.35991802885235
0.5156732244854959,389.5080405657636
0.5359163290848509,363.1379845775053
0.556954090580013,338.517395690261
0.5788177037701272,315.3868038622165
0.6015395880274836,293.60750747498565
0.6251534353689703,273.18169455928705
0.6496942604146115,254.07328255317287
0.6751984523072497,236.14513723637754
0.7017038286703824,219.36800937535475
0.7292496916841444,203.69301526559616
0.7578768863625915,189.0265559979234
0.7876278611187046,175.33400352128214
0.8185467307069019,162.5504933683043
0.850679341636415,150.62739862229253
0.8840733401525058,139.51339921967485
0.9187782428863317,129.1596450584971
0.9548455102782278,119.51971695630098
0.9923286228832539,110.5496813925761
1.0312831606721837,102.20787192782551
1.0717668854455022,94.45474803627333
1.1138398264826193,87.25283059322616
1.1575643695533022,80.56663467458344
1.2030053494233226,74.36257104210524
1.2502301459914542,68.60886462255762
1.299308784200415,63.27554326224243
1.3503140378698726,58.334368352545965
1.4033215376054824,53.75875920365955
1.4584098829439835,49.523716347116974
1.5156607589006013,45.60573207980417
1.575159057091621,41.98273275292841
1.6369930016117014,38.63402001228839
1.7012542798525885,35.54020055383542
1.7680381784572046,32.68311785888133
1.8374437246107238,30.04578079167559
1.9095738328780953,27.612293854415167
1.9845354578058014,25.367810920873797
2.0624397525140905,23.298477729931495
2.143402233514853,21.391374171103287
2.227542951999554,19.63445863092025
2.314986671851158,18.016508490678664
2.405863054644063,16.527074194343218
2.5003068519063225,15.156438406223963
2.598458104929248,13.895570012010081
2.7004623524206774,12.73608033147808
2.806470846309834,11.670180678784158
2.916640776023701,10.690640910803802
3.031135501567576,9.790756401616047
3.150124795755327,8.964313939600244
3.2737850959485697,8.205558531850198
3.4022997656780634,7.509162125114975
3.5358593665351745,6.870192687358729
3.6746619407366854,6.284087097028032
3.8189133047818515,5.7466274758560605
3.968827354637162,5.253916859777138
4.1246263829013445,4.802356309431124
4.286541408420921,4.388623326468285
4.4548125188449825,4.009651121689812
4.629689226627261,3.662610914709207
4.811430839003257,3.3448948639635887
5.000306842491082,3.054099723121397
5.196597302486189,2.788011612274434
5.400593278542364,2.544591456920125
5.612597255954967,2.321961733291639
5.8329235942862,2.1183949509561426
6.06189899349756,1.9323022631054825
6.29986297838068,1.7622228245266547
6.547168402004727,1.6068138284688784
6.804181968927091,1.4648407233780685
7.071284778942991,1.3351693763145203
7.348872892180382,1.2167586434441742
7.637357916378006,1.1086530173630296
7.937167617217536,1.0099758282547957
8.248746552614573,0.9199235207837212
8.572556731909314,0.837760329551058
8.909078300934132,0.7628114425654102
9.258810253973934,0.6944579605469389
9.622271173675122,0.6321324576317303
9.999999999999984,0.5753146518579352
