k [1/Mpc],P(k) [Mpc^3]
0.0001,4606.079299282966
0.00010392556829367125,4759.1429951309
0.00010800523745162529,4917.278012536707
0.00011224505680853065,5080.65074475529
0.00011665131316981963,5249.432927472958
0.00012123054013376525,5423.801623100881
0.00012598952777950273,5603.939154007718
0.00013093533273536104,5790.033592697812
0.00013607528864243335,5982.278993086756
0.00014141701702890234,6180.875569786684
0.00014696843861124463,6386.029677482267
0.00015273778503907136,6597.953559018676
0.00015873361110102093,6816.865958967664
0.00016496480740980205,7042.992403053
0.0001714406135851971,7276.565394711473
0.00017817063195457305,7517.82441759255
0.00018516484179121546,7767.015312618191
0.000192433614111598,8024.391067029832
0.00019998772705352857,8290.212058381901
0.0002078383818579757,8564.746139571469
0.00021599721947827182,8848.268985982764
0.0002244763378413224,9141.063572984624
0.0002332883097864157,9443.420741050148
0.00024244620170823283,9755.639098769261
0.0002519635929317015,10078.024458347718
0.0002618545958474233,10410.890965885164
0.0002721338768375308,10754.560724309227
0.0002828166780230032,11109.364138518917
0.0002939188398646886,11475.639835008522
0.0003054568246515432,11853.733256137693
0.00031744774091091926,12243.99827886914
0.00032990936877709396,12646.796873212365
0.00034286018635565856,13062.49914743933
0.00035631939712285854,13491.483561499737
0.000370306958400514,13934.13449191362
0.00038484361094874304,14390.844104102598
0.0003999509097203664,14862.011969814646
0.00041565125582259895,15348.044388779468
0.00043196792973341727,15849.355511967016
0.0004489251258218605,16366.36482337087
0.0004665479882234472,16899.49834817116
0.000484862648123908,17449.188104889527
0.000503896262506515,18015.869922068396
0.0005236770544204653,18599.985731408884
0.0005442343548300266,19201.980824486178
0.0005655986461065005,19822.304265008268
0.0005878016072274912,20461.40902101832
0.0006108761607505036,21119.748264424154
0.0006348565216305217,21797.77800534645
0.0006597782479539537,22495.952813954646
0.0006856782936641739,23214.72476732812
0.0007125950633568407,23954.5456863745
0.0007405684692262436,24715.86148026678
0.0007696399902471156,25499.114957415346
0.0007998527336796708,26304.740419162106
0.000831251498989063,27133.159073264444
0.0008638828442740447,27984.784191396848
0.000897795155303332,28860.010746141517
0.0009330387172620361,29759.21885041163
0.0009696657893145519,30682.770675995325
0.001007730682094461,31631.00089804251
0.0010472898382363582,32604.22462198023
0.0010884019160690055,33602.725671804976
0.0011311278765939214,34626.75720262186
0.001175531073878369,35676.54261927617
0.0012216773489967915,36752.26257807142
0.0012696351276599736,37854.06274196997
0.0013194755216767058,38982.04255612085
0.0013712724343984,40136.251340171904
0.0014251026703029975,41316.691409205436
0.0014810460488806749,42523.29601525963
0.0015391855229902056,43755.940374269754
0.001599607301861487,45014.43576104392
0.0016624009789266115,46298.52071522541
0.0017276596646690358,47607.86765475213
0.0017954801246878305,48942.06369334747
0.0018659629231817451,50300.615679079005
0.001939212572065829,51682.943561325876
0.0020153376859417325,53088.36203881792
0.002094451143151469,54516.096119825874
0.002176670253153458,55965.265698152594
0.002262116930469025,57434.8859404536
0.002350917875457286,58923.86658607923
0.002443204762186487,60430.98955820712
0.0025391144336803463,61954.92487883353
0.002638789104828933,63494.21536726217
0.002742376573264949,65047.272416644366
0.0028500304385181063,66612.38188214393
0.0029619103297725525,68187.66443725082
0.0030781821425650787,69771.10228995605
0.003199018284775064,71360.52182493874
0.0033245979322709396,72953.57533849952
0.003455107294592217,74547.77917379743
0.0035907398910610534,76140.50655259163
0.0037316968377327513,77728.994997108
0.0038781871456107214,79310.22889590122
0.0040304280305680515,80880.77865751235
0.00418864523543527,82437.06983267632
0.004353073364731888,83975.94309179073
0.00452395623253805,85494.54100981478
0.004701547224022131,86989.3736587792
0.004886109671160325,88454.90910774012
0.005077917243205399,89885.05010225909
0.005277254352483535,91274.73575092922
0.005484416576121017,92620.08431037162
0.005699711094326071,93916.90721410519
0.005923457145875801,95159.21498952196
0.006155986501483508,96340.36385106348
0.006397643955748424,97454.24239495979
0.0066487878384172625,98495.65306082279
0.0069097905457156435,99459.35024684214
0.007181039092537346,100338.7586517065
0.007462935686310132,101126.68360621079
0.007755898323389004,101815.7595553276
0.00806036140886134,102398.18755356649
0.008376776400682916,102866.24559803745
0.008705612479099857,103211.95285364514
0.009047357242349292,103427.29158816309
0.00940251742967013,103504.31750186601
0.009771619672696168,103434.45756488347
0.010155211276345676,103209.47914806187
0.010553861030365234,102820.81407075922
0.010968160052731372,102259.66726995616
0.011398722666160517,101517.90268789961
0.011846187309026826,100586.79029564213
0.012311217482038896,99458.4702245561
0.012794502732078732,98125.5005204334
0.013296759674662111,96580.48748607951
0.013818733056536317,94817.85130732611
0.014361196859990781,92831.82702861573
0.014924955450518284,90618.3679907206
0.015510844769528393,88175.34900687466
0.016119733573881575,85501.18457022424
0.01675252472408214,82598.03239205008
0.017410156523040152,79469.15459691978
0.018093604107387147,76120.74586757546
0.01880388089340914,72563.40556637535
0.019542040079740527,68808.98326084946
0.02030917620904734,64875.4059516102
0.021106426791015535,60783.56394998359
0.021934973989050584,56558.02226045907
0.02279604637318978,52230.24654957465
0.023690920741826323,47832.888348426626
0.02462092401494623,43405.383395146666
0.02558743520168586,38990.33459562543
0.02659188744512693,34631.403801964756
0.027635770147361564,30378.43739668288
0.028720631177978267,26278.91713730644
0.029848079169243254,22382.122044615673
0.03101978590138095,18734.81838891055
0.03223748878149028,15375.153151557543
0.0335029934197723,12340.524117974337
0.03481817630688963,9659.377124768022
0.03618498759642746,7350.230660088362
0.037605453996581675,5416.946561160234
0.03908168177536263,3843.591067649928
0.04061585988376978,2609.4844500650875
0.04221026320156896,1690.2802173179166
0.04386725591048496,1044.541329335621
0.0455892949998106,617.2243044555012
0.047378933909631396,350.9172165760815
0.049238826317067365,199.37811396182335
0.05117173007114603,125.41453618274134
0.05318051128214196,97.49045077902183
0.05526814857144601,103.83507299467259
0.057437737488265785,147.50746855674223
0.0596924950997073,241.3479994255502
0.0620357647610427,406.4497310074684
0.06447102107323864,655.8856682107669
0.06700187503509585,990.9770960354032
0.06963207939763882,1392.164934091393
0.0723655342286965,1816.5748564695748
0.07520629269592405,2201.1947884922156
0.07815856707684081,2474.437252629921
0.08122673500479707,2570.434651654538
0.08441534596012978,2451.5431571682498
0.0877291280161335,2127.158282066732
0.09117299484984914,1658.1131204687383
0.09475205302806537,1139.3895575013519
0.09847160957933764,670.4789807165128
0.1023371798632519,322.4482479989985
0.10635449574860109,117.46537656254439
0.11052951411260206,29.88373547184026
0.1148684256737553,5.805333081559818
0.1193776641714435,5.037089662032702
0.1240639159058831,21.080435998321214
0.12893412965257148,84.52741683043739
0.13399552696593373,217.55241169062475
0.1392556128874462,397.86047248557713
0.14472218707411338,548.3104165303606
0.15040335536380234,585.2371666713342
0.15630754179458153,480.2936060224957
0.16244350109588662,292.2735813328174
0.16882033167003618,123.29325605045513
0.17544748908334581,32.89533636567647
0.1823348000868439,6.964105106752553
0.189492477187382,7.427621911766798
0.19693113379074215,32.028538864779755
0.20466179993919872,97.3302679999581
0.21269593866686892,173.18567866919636
0.22104546299710207,189.83350083603565
0.22972275360711503,129.07307719257045
0.23874067718606454,52.252641527672814
0.2481126055137766,14.007694745287447
0.25785243528842716,8.15465300796009
0.26797460873256895,22.26487556524239
0.27849413500806414,56.42084810057432
0.28942661247167484,76.61227149022966
0.3007882518043098,54.15712691728006
0.31259590004822796,21.180401995649735
0.324867065587837,8.834983970857436
0.3376199441111335,13.567982221242739
0.35087344559027084,29.25475838611804
0.36464722232127456,33.84857540185564
0.37896169806447155,19.17435628792379
0.3938380983288488,8.707831273587539
0.4092984818452433,10.009438256337736
0.4253657732750382,17.118636267646057
0.44206379720285277,16.04438453887057
0.45941731346364734,8.679708645816714
0.47745205385661277,7.000114124473962
0.4961947603002895,10.044128362430323
0.5156732244854959,9.507203024419645
0.5359163290848509,6.19377070329761
0.556954090580013,5.276815090576202
0.5788177037701272,4.785250569793562
0.6015395880274836,4.452090006017514
0.6251534353689703,4.20441513637612
0.6496942604146115,3.987361471749057
0.6751984523072497,3.757162215582992
0.7017038286703824,3.485778934082396
0.7292496916841444,3.1861522304905963
0.7578768863625915,2.8809933764471425
0.7876278611187046,2.5876853587422532
0.8185467307069019,2.3182408937770886
0.850679341636415,2.080017951675492
0.8840733401525058,1.8743923647421983
0.9187782428863317,1.6952777525293374
0.9548455102782278,1.5369307130008711
0.9923286228832539,1.3949123645377153
1.0312831606721837,1.2657994537233996
1.0717668854455022,1.1469952672887815
1.1138398264826193,1.0372761191074926
1.1575643695533022,0.936544149164086
1.2030053494233226,0.8446114205765716
1.2502301459914542,0.7611568486330665
1.299308784200415,0.6857622608431525
1.3503140378698726,0.6179286533446122
1.4033215376054824,0.5569524672205453
1.4584098829439835,0.5020782305012937
1.5156607589006013,0.45264189869777294
1.575159057091621,0.4080607789598749
1.6369930016117014,0.36782253994921477
1.7012542798525885,0.3314808685065004
1.7680381784572046,0.2986648891621469
1.8374437246107238,0.2690458706028868
1.9095738328780953,0.24232367314765982
1.9845354578058014,0.21822454773361358
2.0624397525140905,0.1964990668701706
2.143402233514853,0.1769188805370511
2.227542951999554,0.15927377104210058
2.314986671851158,0.14337356170457335
2.405863054644063,0.12904671647025906
2.5003068519063225,0.1161385120745221
2.598458104929248,0.10450939890685605
2.7004623524206774,0.09403378639431872
2.806470846309834,0.08459862509307671
2.916640776023701,0.07610179857297367
3.031135501567576,0.06845106350418471
3.150124795755327,0.06156311272582621
3.2737850959485697,0.05536271258810504
3.4022997656780634,0.04978182033280717
3.5358593665351745,0.0447589912451425
3.6746619407366854,0.0402388336407225
3.8189133047818515,0.03617141731497126
3.968827354637162,0.03251173819365313
4.1246263829013445,0.029219253137274845
4.286541408420921,0.02625749864345856
4.4548125188449825,0.023593609128458218
4.629689226627261,0.021197940331148853
4.811430839003257,0.01904375895834951
5.000306842491082,0.017106961539375364
5.196597302486189,0.015365804908120468
5.400593278542364,0.013800665557678518
5.612597255954967,0.012393869981926974
5.8329235942862,0.011129507219265384
6.06189899349756,0.009993254266248789
6.29986297838068,0.008972218675353435
6.547168402004727,0.00805479683788885
6.804181968927091,0.007230545980723634
7.071284778942991,0.006490068582604723
7.348872892180382,0.005824908462505709
7.637357916378006,0.005227457139672717
7.937167617217536,0.004690870302636908
8.248746552614573,0.004208998528660702
8.572556731909314,0.003776311822183222
8.909078300934132,0.003387832861042052
9.258810253973934,0.003039082474895678
9.622271173675122,0.002726030471510811
9.999999999999984,0.0024450483435382118
