k [1/Mpc],P(k) [Mpc^3]
0.0001,1073.9081412174412
0.00010392556829367125,1122.3913441772063
0.00010800523745162529,1173.0519803173831
0.00011224505680853065,1225.986437682633
0.00011665131316981963,1281.2951863254557
0.00012123054013376525,1339.082857032999
0.00012598952777950273,1399.4585218724897
0.00013093533273536104,1462.5357744044682
0.00013607528864243335,1528.432935610255
0.00014141701702890234,1597.2732384293272
0.00014696843861124463,1669.1848318693628
0.00015273778503907136,1744.3011344304248
0.00015873361110102093,1822.7608925457455
0.00016496480740980205,1904.7083364745424
0.0001714406135851971,1990.293494610787
0.00017817063195457305,2079.672077126742
0.00018516484179121546,2173.005876962033
0.000192433614111598,2270.462893371527
0.00019998772705352857,2372.2173444499144
0.0002078383818579757,2478.4501079108663
0.00021599721947827182,2589.3483377718835
0.0002244763378413224,2705.1058366800467
0.0002332883097864157,2825.923410407005
0.00024244620170823283,2952.008639531415
0.0002519635929317015,3083.5764492044646
0.0002618545958474233,3220.8487509823185
0.0002721338768375308,3364.054526646763
0.0002828166780230032,3513.4303091094257
0.0002939188398646886,3669.2193662803356
0.0003054568246515432,3831.6724552986416
0.00031744774091091926,4001.0476782978867
0.00032990936877709396,4177.610127270497
0.00034286018635565856,4361.632560335785
0.00035631939712285854,4553.39426787362
0.000370306958400514,4753.181524644786
0.00038484361094874304,4961.287712731368
0.0003999509097203664,5178.012340544661
0.00041565125582259895,5403.661875251465
0.00043196792973341727,5638.548594261143
0.0004489251258218605,5882.990388562243
0.0004665479882234472,6137.311033340707
0.000484862648123908,6401.838090163872
0.000503896262506515,6676.903901232819
0.0005236770544204653,6962.844498926026
0.0005442343548300266,7259.998401071989
0.0005655986461065005,7568.7072040728335
0.0005878016072274912,7889.311910322999
0.0006108761607505036,8222.15360736467
0.0006348565216305217,8567.572447815557
0.0006597782479539537,8925.904055194698
0.0006856782936641739,9297.48135154044
0.0007125950633568407,9682.629032830357
0.0007405684692262436,10081.662688064709
0.0007696399902471156,10494.889438918843
0.0007998527336796708,10922.601330099871
0.000831251498989063,11365.077700214562
0.0008638828442740447,11822.579681587971
0.000897795155303332,12295.345984601037
0.0009330387172620361,12783.596206132708
0.0009696657893145519,13287.526920723492
0.001007730682094461,13807.31058620438
0.0010472898382363582,14343.087543573498
0.0010884019160690055,14894.955037902824
0.0011311278765939214,15462.9763054608
0.001175531073878369,16047.193540872093
0.0012216773489967915,16647.623267247753
0.0012696351276599736,17264.23415392436
0.0013194755216767058,17896.915082621872
0.0013712724343984,18545.49692138842
0.0014251026703029975,19209.764847101786
0.0014810460488806749,19889.45785030654
0.0015391855229902056,20584.25648142303
0.001599607301861487,21293.77013659369
0.0016624009789266115,22017.539641842304
0.0017276596646690358,22755.03906448905
0.0017954801246878305,23505.67397202743
0.0018659629231817451,24268.777594032646
0.001939212572065829,25043.60419855573
0.0020153376859417325,25829.328243487813
0.002094451143151469,26625.045136958044
0.002176670253153458,27429.76949918475
0.002262116930469025,28242.43426711738
0.002350917875457286,29061.886520420114
0.002443204762186487,29886.886546792004
0.0025391144336803463,30716.10701817637
0.002638789104828933,31548.1146576246
0.002742376573264949,32381.38392880689
0.0028500304385181063,33214.322409939254
0.0029619103297725525,34045.28642955314
0.0030781821425650787,34872.53768702036
0.003199018284775064,35694.03912624659
0.0033245979322709396,36507.53430920525
0.003455107294592217,37310.925492778166
0.0035907398910610534,38102.769241403126
0.0037316968377327513,38881.67594854902
0.0038781871456107214,39644.86349621225
0.0040304280305680515,40388.149144123745
0.00418864523543527,41107.52086230386
0.004353073364731888,41800.76002473713
0.00452395623253805,42466.22547095268
0.004701547224022131,43101.398601697714
0.004886109671160325,43702.36502493062
0.005077917243205399,44265.17906566163
0.005277254352483535,44787.02002821772
0.005484416576121017,45265.70720741168
0.005699711094326071,45698.656278863535
0.005923457145875801,46082.12070897306
0.006155986501483508,46412.22217620883
0.006397643955748424,46684.88925221406
0.0066487878384172625,46895.940884916505
0.0069097905457156435,47041.37234332155
0.007181039092537346,47117.4258730599
0.007462935686310132,47120.611200169435
0.007755898323389004,47047.13767435201
0.00806036140886134,46892.7630746534
0.008376776400682916,46653.57891638753
0.008705612479099857,46325.69520485776
0.009047357242349292,45905.61847267475
0.00940251742967013,45390.01711702364
0.009771619672696168,44775.17619645787
0.010155211276345676,44058.15727568174
0.010553861030365234,43236.220493708905
0.010968160052731372,42307.255286086336
0.011398722666160517,41270.125153169196
0.011846187309026826,40123.54703690441
0.012311217482038896,38867.73862147404
0.012794502732078732,37503.77962278173
0.013296759674662111,36033.678715775735
0.013818733056536317,34461.656508990185
0.014361196859990781,32792.34430749113
0.014924955450518284,31032.694623561103
0.015510844769528393,29191.730800822024
0.016119733573881575,27279.60942817424
0.01675252472408214,25309.902918977703
0.017410156523040152,23297.1600443268
0.018093604107387147,21258.28962617837
0.01880388089340914,19213.027026511994
0.019542040079740527,17181.407300995106
0.02030917620904734,15186.2828915143
0.021106426791015535,13250.25824306956
0.021934973989050584,11395.57504574712
0.02279604637318978,9645.563785745786
0.023690920741826323,8021.541146657039
0.02462092401494623,6542.685933198175
0.02558743520168586,5223.65791985997
0.02659188744512693,4073.1467605578678
0.027635770147361564,3094.874159309795
0.028720631177978267,2287.3464090481193
0.029848079169243254,1641.8559242585611
0.03101978590138095,1145.1796209500033
0.03223748878149028,781.2498827399579
0.0335029934197723,525.7948768232301
0.03481817630688963,359.4776770476623
0.03618498759642746,262.3518152854352
0.037605453996581675,214.21664887364003
0.03908168177536263,202.55775631116973
0.04061585988376978,227.27726989517726
0.04221026320156896,292.4147091634225
0.04386725591048496,405.8100113818446
0.0455892949998106,580.2090619986602
0.047378933909631396,824.8423505519538
0.049238826317067365,1136.3706007669427
0.05117173007114603,1490.0632789704468
0.05318051128214196,1849.7566922004696
0.05526814857144601,2169.3116527072216
0.057437737488265785,2396.94214268442
0.0596924950997073,2483.608163369684
0.0620357647610427,2396.697671824122
0.06447102107323864,2135.055998220441
0.06700187503509585,1741.9683463050046
0.06963207939763882,1281.8477593528492
0.0723655342286965,835.2237099015647
0.07520629269592405,477.5252761143889
0.07815856707684081,237.3667491298778
0.08122673500479707,105.60555982292503
0.08441534596012978,49.629694432562715
0.0877291280161335,38.315352343982454
0.09117299484984914,57.01673043170862
0.09475205302806537,120.90788737220684
0.09847160957933764,244.705722784939
0.1023371798632519,415.3896977879799
0.10635449574860109,572.9973346879475
0.11052951411260206,644.5350244409784
0.1148684256737553,590.3662060842902
0.1193776641714435,431.8777465823771
0.1240639159058831,247.4405837482187
0.12893412965257148,112.9026555440023
0.13399552696593373,48.040379785899844
0.1392556128874462,31.994686448575642
0.14472218707411338,48.93438198359147
0.15040335536380234,101.57940474758246
0.15630754179458153,176.155633053025
0.16244350109588662,221.43638343788075
0.16882033167003618,196.91120595720005
0.17544748908334581,125.34736903853636
0.1823348000868439,61.77221448900116
0.189492477187382,34.08322310672875
0.19693113379074215,36.081896849760824
0.20466179993919872,60.02485773440177
0.21269593866686892,87.61405890813377
0.22104546299710207,87.98604295775705
0.22972275360711503,60.66016812760806
0.23874067718606454,35.19386982001041
0.2481126055137766,27.957697644379294
0.25785243528842716,35.65493720960606
0.26797460873256895,45.44959160598096
0.27849413500806414,41.707608192819
0.28942661247167484,29.045058748725925
0.3007882518043098,22.33258417567691
0.31259590004822796,24.173644052602704
0.324867065587837,26.820532013299893
0.3376199441111335,23.14625012499826
0.35087344559027084,17.996325348127254
0.36464722232127456,16.961027848964335
0.37896169806447155,17.536463725842733
0.3938380983288488,15.608569232849755
0.4092984818452433,13.19046617789368
0.4253657732750382,12.58889864141557
0.44206379720285277,11.940969352770146
0.45941731346364734,10.469501874594132
0.47745205385661277,9.603431047052904
0.4961947603002895,8.969319679856126
0.5156732244854959,8.298139078647486
0.5359163290848509,7.605891007943609
0.556954090580013,6.925740952481569
0.5788177037701272,6.282443694652324
0.6015395880274836,5.692940453640929
0.6251534353689703,5.167452713530625
0.6496942604146115,4.704573995922011
0.6751984523072497,4.293201070569683
0.7017038286703824,3.923814802674149
0.7292496916841444,3.5888171760486545
0.7578768863625915,3.282153920037924
0.7876278611187046,2.999331871728099
0.8185467307069019,2.7385645926557234
0.850679341636415,2.4988510700478783
0.8840733401525058,2.279097876605028
0.9187782428863317,2.078150994505463
0.9548455102782278,1.8948221848490243
0.9923286228832539,1.7277615051804118
1.0312831606721837,1.575458361853784
1.0717668854455022,1.4365342678316462
1.1138398264826193,1.3097520817567705
1.1575643695533022,1.194000125211207
1.2030053494233226,1.088284284565004
1.2502301459914542,0.9917494852309681
1.299308784200415,0.9036299546693706
1.3503140378698726,0.8232195520985154
1.4033215376054824,0.7498675665176107
1.4584098829439835,0.6829748073595426
1.5156607589006013,0.6219859489344215
1.575159057091621,0.5663846932479522
1.6369930016117014,0.5156988682781637
1.7012542798525885,0.46949749236328214
1.7680381784572046,0.4273871847733087
1.8374437246107238,0.3890090037686373
1.9095738328780953,0.3540362414754278
1.9845354578058014,0.3221708813174304
2.0624397525140905,0.29314057459166004
2.143402233514853,0.26669646613904036
2.227542951999554,0.2426112052737111
2.314986671851158,0.22067718127273692
2.405863054644063,0.2007048870119634
2.5003068519063225,0.18252124194924105
2.598458104929248,0.16596818076293293
2.7004623524206774,0.1509013775065636
2.806470846309834,0.1371890627759767
2.916640776023701,0.12471084244562561
3.031135501567576,0.11335681403638735
3.150124795755327,0.10302674897476956
3.2737850959485697,0.09362925294330011
3.4022997656780634,0.08508099696757154
3.5358593665351745,0.07730601956098138
3.6746619407366854,0.07023508891125343
3.8189133047818515,0.06380510186548156
3.968827354637162,0.05795854644083604
4.1246263829013445,0.05264301278942162
4.286541408420921,0.0478107460428797
4.4548125188449825,0.043418235061958986
4.629689226627261,0.039425841826390286
4.811430839003257,0.035797463337704095
5.000306842491082,0.03250022010459663
5.196597302486189,0.02950417167342562
5.400593278542364,0.026782059701153806
5.612597255954967,0.02430907450868608
5.8329235942862,0.02206263009331611
6.06189899349756,0.020022165856317713
6.29986297838068,0.018168967252461345
6.547168402004727,0.016486001395002003
6.804181968927091,0.014957758248001518
7.071284778942991,0.013570120782427423
7.348872892180382,0.012310250030426137
7.637357916378006,0.011166470506612566
7.937167617217536,0.010128165572673618
8.248746552614573,0.009185685120248114
8.572556731909314,0.008330263998722963
8.909078300934132,0.00755393228458946
9.258810253973934,0.006849441842959175
9.622271173675122,0.0062102017912411805
9.999999999999984,0.005630218794253634
