k [1/Mpc],P(k) [Mpc^3]
0.0001,190.54854945158576
0.00010392556829367125,197.4565241608521
0.00010800523745162529,204.6148510131354
0.00011224505680853065,212.03257338692399
0.00011665131316981963,219.71907388431848
0.00012123054013376525,227.6840939725022
0.00012598952777950273,235.93772747040632
0.00013093533273536104,244.49041394055388
0.00013607528864243335,253.35295971704247
0.00014141701702890234,262.5365621998329
0.00014696843861124463,272.05282749687126
0.00015273778503907136,281.91378052700793
0.00015873361110102093,292.13187847315606
0.00016496480740980205,302.72002637105453
0.0001714406135851971,313.69159172706134
0.00017817063195457305,325.06041499713933
0.00018516484179121546,336.8408316179794
0.000192433614111598,349.047692644804
0.00019998772705352857,361.69638357415397
0.0002078383818579757,374.8028403051704
0.00021599721947827182,388.3835586406822
0.0002244763378413224,402.45561957099216
0.0002332883097864157,417.0367093988045
0.00024244620170823283,432.1451354841364
0.0002519635929317015,447.79985596147486
0.0002618545958474233,464.0205053957678
0.0002721338768375308,480.82741811386705
0.0002828166780230032,498.24164300582083
0.0002939188398646886,516.2849466540151
0.0003054568246515432,534.9798581674012
0.00031744774091091926,554.3496967440313
0.00032990936877709396,574.4185978728466
0.00034286018635565856,595.2115419073656
0.00035631939712285854,616.7543640182773
0.000370306958400514,639.0737950732288
0.00038484361094874304,662.197484576178
0.0003999509097203664,686.1540179244425
0.00041565125582259895,710.9729660531391
0.00043196792973341727,736.6848882470622
0.0004489251258218605,763.3213748171898
0.0004665479882234472,790.9150896757122
0.000484862648123908,819.4997832897603
0.000503896262506515,849.1103481792744
0.0005236770544204653,879.7828141891634
0.0005442343548300266,911.5543798507936
0.0005655986461065005,944.4634766798058
0.0005878016072274912,978.5497500015983
0.0006108761607505036,1013.8541367921039
0.0006348565216305217,1050.418907663644
0.0006597782479539537,1088.2876940509886
0.0006856782936641739,1127.5055340676026
0.0007125950633568407,1168.1187631537257
0.0007405684692262436,1210.1751101093441
0.0007696399902471156,1253.7238191847791
0.0007998527336796708,1298.8156959051091
0.000831251498989063,1345.5031338070846
0.0008638828442740447,1393.8399415690017
0.000897795155303332,1443.8813807883012
0.0009330387172620361,1495.6843728847616
0.0009696657893145519,1549.307544922303
0.001007730682094461,1604.8112651025124
0.0010472898382363582,1662.2574495829203
0.0010884019160690055,1721.7094682358825
0.0011311278765939214,1783.2324288499087
0.001175531073878369,1846.8930886527892
0.0012216773489967915,1912.759948558226
0.0012696351276599736,1980.9031846053572
0.0013194755216767058,2051.394430995197
0.0013712724343984,2124.307057110638
0.0014251026703029975,2199.71580275482
0.0014810460488806749,2277.696830563154
0.0015391855229902056,2358.3279476663115
0.001599607301861487,2441.6883324373316
0.0016624009789266115,2527.858743792726
0.0017276596646690358,2616.920983297695
0.0017954801246878305,2708.957631445653
0.0018659629231817451,2804.052585023919
0.001939212572065829,2902.290599895936
0.0020153376859417325,3003.7574838945907
0.002094451143151469,3108.5397928694374
0.002176670253153458,3216.7242302553313
0.002262116930469025,3328.398195223062
0.002350917875457286,3443.64889058242
0.002443204762186487,3562.563389281713
0.0025391144336803463,3685.2287479956617
0.002638789104828933,3811.730979651737
0.002742376573264949,3942.1556632848906
0.0028500304385181063,4076.586988921334
0.0029619103297725525,4215.107308534701
0.0030781821425650787,4357.7976873187945
0.003199018284775064,4504.7365965847075
0.0033245979322709396,4656.000329570711
0.003455107294592217,4811.661923017171
0.0035907398910610534,4971.7896735490285
0.0037316968377327513,5136.448456437421
0.0038781871456107214,5305.698110999913
0.0040304280305680515,5479.593501555301
0.00418864523543527,5658.183871299962
0.004353073364731888,5841.509989845839
0.00452395623253805,6029.60600188466
0.004701547224022131,6222.497404961674
0.004886109671160325,6420.200293738666
0.005077917243205399,6622.721780006289
0.005277254352483535,6830.055478658431
0.005484416576121017,7042.183614525615
0.005699711094326071,7259.07542076681
0.005923457145875801,7480.684739213557
0.006155986501483508,7706.951385018988
0.006397643955748424,7937.791101029436
0.0066487878384172625,8173.098519955086
0.0069097905457156435,8412.754951663335
0.007181039092537346,8656.633693788359
0.007462935686310132,8904.590627506137
0.007755898323389004,9156.421651613884
0.00806036140886134,9411.862156495847
0.008376776400682916,9670.627122936723
0.008705612479099857,9932.441997047448
0.009047357242349292,10197.018205694754
0.00940251742967013,10464.006103354926
0.009771619672696168,10732.974690663805
0.010155211276345676,11003.458589007529
0.010553861030365234,11274.982694125021
0.010968160052731372,11547.051979036105
0.011398722666160517,11819.115548857257
0.011846187309026826,12090.530010504224
0.012311217482038896,12360.60442596201
0.012794502732078732,12628.578202523382
0.013296759674662111,12893.62674090698
0.013818733056536317,13154.878876027504
0.014361196859990781,13411.397370388942
0.014924955450518284,13662.200327372911
0.015510844769528393,13906.230116474444
0.016119733573881575,14142.343606272805
0.01675252472408214,14369.354774353695
0.017410156523040152,14585.991629332317
0.018093604107387147,14790.934340468197
0.01880388089340914,14982.814432066643
0.019542040079740527,15160.187977580274
0.02030917620904734,15321.597341250206
0.021106426791015535,15465.53263508646
0.021934973989050584,15590.462274502688
0.02279604637318978,15694.869448830686
0.023690920741826323,15777.221161681025
0.02462092401494623,15836.036104687752
0.02558743520168586,15869.895582846695
0.02659188744512693,15877.46047742676
0.027635770147361564,15857.513886784564
0.028720631177978267,15808.977400138123
0.029848079169243254,15730.9362113011
0.03101978590138095,15622.756412929726
0.03223748878149028,15484.17410509512
0.0335029934197723,15315.146409134213
0.03481817630688963,15115.821468144331
0.03618498759642746,14886.555874312835
0.037605453996581675,14628.42704495988
0.03908168177536263,14344.147727486841
0.04061585988376978,14036.705749836114
0.04221026320156896,13708.163935888131
0.04386725591048496,13359.759168914436
0.0455892949998106,12993.350567014542
0.047378933909631396,12613.485045072464
0.049238826317067365,12225.247017132811
0.05117173007114603,11833.316183631607
0.05318051128214196,11441.948524098982
0.05526814857144601,11055.159821055315
0.057437737488265785,10677.781197091983
0.0596924950997073,10314.468535602333
0.0620357647610427,9968.862923922932
0.06447102107323864,9643.762301452458
0.06700187503509585,9340.883351388817
0.06963207939763882,9060.98409847863
0.0723655342286965,8803.509193847569
0.07520629269592405,8566.843743679976
0.07815856707684081,8348.057565947163
0.08122673500479707,8143.248173673384
0.08441534596012978,7947.116706088568
0.0877291280161335,7753.265561462091
0.09117299484984914,7554.4090920368235
0.09475205302806537,7342.782048765997
0.09847160957933764,7111.240301137101
0.1023371798632519,6854.259825433013
0.10635449574860109,6569.129962494254
0.11052951411260206,6256.871827189665
0.1148684256737553,5922.22188644554
0.1193776641714435,5573.367913848774
0.1240639159058831,5221.606753205268
0.12893412965257148,4880.544866706414
0.13399552696593373,4562.974996271216
0.1392556128874462,4279.721681376048
0.14472218707411338,4038.8628659564365
0.15040335536380234,3842.992058287144
0.15630754179458153,3688.3925826522227
0.16244350109588662,3565.147256202001
0.16882033167003618,3458.2436014978884
0.17544748908334581,3349.718082505457
0.1823348000868439,3222.2812528895106
0.189492477187382,3064.1321018035705
0.19693113379074215,2873.255117497416
0.20466179993919872,2659.291681068919
0.21269593866686892,2441.745092973481
0.22104546299710207,2243.81244138635
0.22972275360711503,2083.2467256356435
0.23874067718606454,1965.6899726552012
0.2481126055137766,1883.4154452562805
0.25785243528842716,1817.5858065043622
0.26797460873256895,1744.1373779974847
0.27849413500806414,1645.6920268570288
0.28942661247167484,1521.5894452207153
0.3007882518043098,1388.1089173649293
0.31259590004822796,1269.2577587739129
0.324867065587837,1181.5365709540185
0.3376199441111335,1123.182891498601
0.35087344559027084,1075.3589314757505
0.36464722232127456,1015.8583574322416
0.37896169806447155,937.653302883294
0.3938380983288488,853.9685975837144
0.4092984818452433,784.8872736070231
0.4253657732750382,737.3772697378341
0.44206379720285277,699.5464826910447
0.45941731346364734,654.1637950903576
0.47745205385661277,599.1731471036469
0.4961947603002895,548.496849448479
0.5156732244854959,511.4702349012346
0.5359163290848509,480.87897534970256
0.556954090580013,445.60156837780715
0.5788177037701272,407.73911660083655
0.6015395880274836,376.8068213797301
0.6251534353689703,351.9023195646014
0.6496942604146115,325.45512230373436
0.6751984523072497,298.475360891347
0.7017038286703824,276.17459396716754
0.7292496916841444,256.1588988894217
0.7578768863625915,235.44809356439245
0.7876278611187046,216.87833070015495
0.8185467307069019,200.56924413393503
0.850679341636415,184.42392163862715
0.8840733401525058,169.8290453590466
0.9187782428863317,156.54398210053617
0.9548455102782278,144.12922675552798
0.9923286228832539,132.55163569566943
1.0312831606721837,121.79722078157891
1.0717668854455022,111.8435171083333
1.1138398264826193,102.66142791747461
1.1575643695533022,94.2149320932536
1.2030053494233226,86.44961328253461
1.2502301459914542,79.3071112185816
1.299308784200415,72.7346785771534
1.3503140378698726,66.68463688771178
1.4033215376054824,61.11383052699946
1.4584098829439835,55.984287163017825
1.5156607589006013,51.264001351116136
1.575159057091621,46.92335725219113
1.6369930016117014,42.93449960605164
1.7012542798525885,39.271275966676185
1.7680381784572046,35.90915225499437
1.8374437246107238,32.82478117143449
1.9095738328780953,29.996137333906677
1.9845354578058014,27.402849239338767
2.0624397525140905,25.026095147870514
2.143402233514853,22.848491424126795
2.227542951999554,20.854006735015414
2.314986671851158,19.02792262807883
2.405863054644063,17.356656204053717
2.5003068519063225,15.827651923187501
2.598458104929248,14.429311003338336
2.7004623524206774,13.150924718838517
2.806470846309834,11.98259867337284
2.916640776023701,10.915192820698987
3.031135501567576,9.940290298141814
3.150124795755327,9.050145530995792
3.2737850959485697,8.23763375417848
3.4022997656780634,7.49620430131899
3.5358593665351745,6.819838931520734
3.6746619407366854,6.203009200651235
3.8189133047818515,5.64063728206001
3.968827354637162,5.128061193839341
4.1246263829013445,4.661002525444068
4.286541408420921,4.235535741600139
4.4548125188449825,3.848059470482019
4.629689226627261,3.495273063916386
4.811430839003257,3.1741529806597804
5.000306842491082,2.881930516764467
5.196597302486189,2.6160712093044505
5.400593278542364,2.3742555207933664
5.612597255954967,2.1543614437618452
5.8329235942862,1.9544486725671826
6.06189899349756,1.772743636679207
6.29986297838068,1.6076256938171836
6.547168402004727,1.4576142519379136
6.804181968927091,1.3213564849539716
7.071284778942991,1.197617397606908
7.348872892180382,1.0852701739384742
7.637357916378006,0.9832869799457225
7.937167617217536,0.8907305286596047
8.248746552614573,0.8067469820625579
8.572556731909314,0.7305589752592264
8.909078300934132,0.6614578112741888
9.258810253973934,0.5987974944007483
9.622271173675122,0.5419893762923257
9.999999999999984,0.4904969602692904
