k [1/Mpc],P(k) [Mpc^3]
0.0001,347.6483419128513
0.00010392556829367125,363.3813832341421
0.00010800523745162529,379.825841291255
0.00011224505680853065,397.01383986794264
0.00011665131316981963,414.978934619511
0.00012123054013376525,433.75614031462993
0.00012598952777950273,453.3820313467376
0.00013093533273536104,473.8948459986611
0.00013607528864243335,495.33456413459993
0.00014141701702890234,517.7429502214653
0.00014696843861124463,541.1635821046086
0.00015273778503907136,565.641964821567
0.00015873361110102093,591.2256462933804
0.00016496480740980205,617.9643169457574
0.0001714406135851971,645.9098797127971
0.00017817063195457305,675.1164898659068
0.00018516484179121546,705.6406767342237
0.000192433614111598,737.5414778212216
0.00019998772705352857,770.8805527870443
0.0002078383818579757,805.7222895182341
0.00021599721947827182,842.1338768868313
0.0002244763378413224,880.1854302888759
0.0002332883097864157,919.9501298608279
0.00024244620170823283,961.5042938568914
0.0002519635929317015,1004.927560389548
0.0002618545958474233,1050.3030263437784
0.0002721338768375308,1097.717387803046
0.0002828166780230032,1147.2610919183758
0.0002939188398646886,1199.0283954198342
0.0003054568246515432,1253.1175792250544
0.00031744774091091926,1309.631088015191
0.00032990936877709396,1368.675636093044
0.00034286018635565856,1430.3624652136161
0.00035631939712285854,1494.8074292720974
0.000370306958400514,1562.1312107289673
0.00038484361094874304,1632.4595223294648
0.0003999509097203664,1705.9231977147326
0.00041565125582259895,1782.658488853396
0.00043196792973341727,1862.8071076632316
0.0004489251258218605,1946.5164210115731
0.0004665479882234472,2033.9397460079451
0.000484862648123908,2125.2362898947513
0.000503896262506515,2220.571564684824
0.0005236770544204653,2320.1175946377757
0.0005442343548300266,2424.0530842588914
0.0005655986461065005,2532.5637201238983
0.0005878016072274912,2645.8420285993534
0.0006108761607505036,2764.0877782942493
0.0006348565216305217,2887.508113507178
0.0006597782479539537,3016.3174053670164
0.0006856782936641739,3150.7379181203546
0.0007125950633568407,3290.999926652312
0.0007405684692262436,3437.3419762461403
0.0007696399902471156,3590.0108941715825
0.0007998527336796708,3749.261086346619
0.000831251498989063,3915.3554976970986
0.0008638828442740447,4088.565619463673
0.000897795155303332,4269.1715655173875
0.0009330387172620361,4457.462361338893
0.0009696657893145519,4653.734716602584
0.001007730682094461,4858.293967184389
0.0010472898382363582,5071.454055653335
0.0010884019160690055,5293.537065187033
0.0011311278765939214,5524.873881335154
0.001175531073878369,5765.802129433816
0.0012216773489967915,6016.666840377083
0.0012696351276599736,6277.820967287906
0.0013194755216767058,6549.624254862814
0.0013712724343984,6832.444020516723
0.0014251026703029975,7126.652794018802
0.0014810460488806749,7432.628013691226
0.0015391855229902056,7750.752860291898
0.001599607301861487,8081.413686775902
0.0016624009789266115,8425.0011427868
0.0017276596646690358,8781.908209692907
0.0017954801246878305,9152.5285725286
0.0018659629231817451,9537.257550272045
0.001939212572065829,9936.487661696334
0.0020153376859417325,10350.60953912921
0.002094451143151469,10780.011084225842
0.002176670253153458,11225.074627535387
0.002262116930469025,11686.177576406826
0.002350917875457286,12163.687129480439
0.002443204762186487,12657.959678754472
0.0025391144336803463,13169.340144939444
0.002638789104828933,13698.156159195
0.002742376573264949,14244.719857657603
0.0028500304385181063,14809.323823113515
0.0029619103297725525,15392.238474148984
0.0030781821425650787,15993.711091342255
0.003199018284775064,16613.95673887108
0.0033245979322709396,17253.160186902343
0.003455107294592217,17911.47284723916
0.0035907398910610534,18589.008031065234
0.0037316968377327513,19285.84063657142
0.0038781871456107214,20001.99554149542
0.0040304280305680515,20737.448112260066
0.00418864523543527,21492.126380205053
0.004353073364731888,22265.90912351283
0.00452395623253805,23058.619207022493
0.004701547224022131,23869.984486349582
0.004886109671160325,24699.63693722415
0.005077917243205399,25547.1664078089
0.005277254352483535,26412.215223999385
0.005484416576121017,27294.390954888615
0.005699711094326071,28193.01206354905
0.005923457145875801,29107.02361293017
0.006155986501483508,30035.280233545396
0.006397643955748424,30976.865327584143
0.0066487878384172625,31930.914867644085
0.0069097905457156435,32896.3232412856
0.007181039092537346,33871.572288876356
0.007462935686310132,34855.002944859654
0.007755898323389004,35845.10069440003
0.00806036140886134,36840.42046103459
0.008376776400682916,37839.34137713191
0.008705612479099857,38839.87081811609
0.009047357242349292,39839.843811020684
0.00940251742967013,40836.94200772013
0.009771619672696168,41828.69569041362
0.010155211276345676,42812.51311757171
0.010553861030365234,43785.68414103586
0.010968160052731372,44745.389363793576
0.011398722666160517,45688.70008489762
0.011846187309026826,46612.582763594
0.012311217482038896,47513.90506782498
0.012794502732078732,48389.33513257356
0.013296759674662111,49235.41396060371
0.013818733056536317,50048.62602240509
0.014361196859990781,50825.41461351136
0.014924955450518284,51562.20290684338
0.015510844769528393,52255.391459864724
0.016119733573881575,52901.38577318172
0.01675252472408214,53496.64478516614
0.017410156523040152,54037.72589496387
0.018093604107387147,54521.29314881356
0.01880388089340914,54944.2137538246
0.019542040079740527,55303.595443712205
0.02030917620904734,55596.77005524361
0.021106426791015535,55821.50225640031
0.021934973989050584,55975.87191242093
0.02279604637318978,56058.424054227966
0.023690920741826323,56068.33549809193
0.02462092401494623,56005.14893425865
0.02558743520168586,55869.17768716092
0.02659188744512693,55661.28947467635
0.027635770147361564,55382.94121970807
0.028720631177978267,55036.67441884155
0.029848079169243254,54625.38808455994
0.03101978590138095,54152.268294336194
0.03223748878149028,53620.74204246195
0.0335029934197723,53034.92765917414
0.03481817630688963,52401.42033063266
0.03618498759642746,51727.24918490979
0.037605453996581675,51014.686003374765
0.03908168177536263,50260.09399364758
0.04061585988376978,49461.9654023976
0.04221026320156896,48633.83767771452
0.04386725591048496,47794.72844738592
0.0455892949998106,46952.28624556232
0.047378933909631396,46093.232614803615
0.049238826317067365,45203.42466010903
0.05117173007114603,44276.45644105733
0.05318051128214196,43310.98309917357
0.05526814857144601,42307.122093369304
0.057437737488265785,41268.29295466554
0.0596924950997073,40198.54442050725
0.0620357647610427,39101.48272924131
0.06447102107323864,37980.34087241511
0.06700187503509585,36834.61376645321
0.06963207939763882,35658.722639935695
0.0723655342286965,34455.020884167294
0.07520629269592405,33239.39667694618
0.07815856707684081,32030.587014885383
0.08122673500479707,30849.20958179833
0.08441534596012978,29706.61275583875
0.0877291280161335,28605.529715183202
0.09117299484984914,27542.069902664476
0.09475205302806537,26511.07797152433
0.09847160957933764,25508.181211801802
0.1023371798632519,24525.437808712835
0.10635449574860109,23551.009388858456
0.11052951411260206,22572.14699110981
0.1148684256737553,21583.452550415514
0.1193776641714435,20590.422921188772
0.1240639159058831,19605.833451173865
0.12893412965257148,18647.397133896993
0.13399552696593373,17732.73913443998
0.1392556128874462,16868.709300923118
0.14472218707411338,16050.080868132478
0.15040335536380234,15267.250344971702
0.15630754179458153,14514.801754280694
0.16244350109588662,13782.622651959657
0.16882033167003618,13061.52156585521
0.17544748908334581,12356.6909915221
0.1823348000868439,11677.805967442075
0.189492477187382,11029.66319687023
0.19693113379074215,10418.190868443966
0.20466179993919872,9839.93492022764
0.21269593866686892,9284.754958563066
0.22104546299710207,8751.614901919413
0.22972275360711503,8239.8657425401
0.23874067718606454,7751.3030905425285
0.2481126055137766,7288.498820950813
0.25785243528842716,6850.154834413463
0.26797460873256895,6433.8424377859965
0.27849413500806414,6038.017152250882
0.28942661247167484,5662.012637096051
0.3007882518043098,5306.370279444742
0.31259590004822796,4970.198652410887
0.324867065587837,4652.251941224183
0.3376199441111335,4351.92869964468
0.35087344559027084,4068.336563008083
0.36464722232127456,3801.146418441796
0.37896169806447155,3549.4191500824513
0.3938380983288488,3312.3938163556945
0.4092984818452433,3089.6280417096473
0.4253657732750382,2880.1617469269827
0.44206379720285277,2683.617817542419
0.45941731346364734,2499.177365108923
0.47745205385661277,2326.158710060014
0.4961947603002895,2164.084820528016
0.5156732244854959,2012.29689516484
0.5359163290848509,1870.1770043556119
0.556954090580013,1737.2232422426202
0.5788177037701272,1612.9555128055288
0.6015395880274836,1496.8928424492908
0.6251534353689703,1388.5884325733969
0.6496942604146115,1287.5331673062053
0.6751984523072497,1193.3460011634497
0.7017038286703824,1105.6043367293266
0.7292496916841444,1023.8847418241091
0.7578768863625915,947.8053260574555
0.7876278611187046,877.0077110779544
0.8185467307069019,811.1757862884511
0.850679341636415,750.0022580965583
0.8840733401525058,693.1835293092972
0.9187782428863317,640.4332222417455
0.9548455102782278,591.4816921958499
0.9923286228832539,546.0752324357985
1.0312831606721837,503.97541212084144
1.0717668854455022,464.95905735393217
1.1138398264826193,428.81679137713667
1.1575643695533022,395.3518517869741
1.2030053494233226,364.3794801319098
1.2502301459914542,335.7263300065929
1.299308784200415,309.2298100647111
1.3503140378698726,284.7372263118717
1.4033215376054824,262.1056421835187
1.4584098829439835,241.20149202708825
1.5156607589006013,221.90004368870675
1.575159057091621,204.08488472571284
1.6369930016117014,187.647394160895
1.7012542798525885,172.48620199620987
1.7680381784572046,158.50687974034417
1.8374437246107238,145.62154051090243
1.9095738328780953,133.74842715080786
1.9845354578058014,122.81152262154454
2.0624397525140905,112.74020695057712
2.143402233514853,103.46893005600523
2.227542951999554,94.93681964929544
2.314986671851158,87.08736723995447
2.405863054644063,79.86814128806802
2.5003068519063225,73.23051586726184
2.598458104929248,67.1293665313542
2.7004623524206774,61.52282481378841
2.806470846309834,56.372140875749245
2.916640776023701,51.64147160259902
3.031135501567576,47.297674650853196
3.150124795755327,43.31011654271857
3.2737850959485697,39.650505865334566
3.4022997656780634,36.29272072833429
3.5358593665351745,33.21263560576515
3.6746619407366854,30.387976295679533
3.8189133047818515,27.798185389674842
3.968827354637162,25.424295882545305
4.1246263829013445,23.24880350494181
4.286541408420921,21.255565596722978
4.4548125188449825,19.429709484356994
4.629689226627261,17.757536954774892
4.811430839003257,16.226435303871497
5.000306842491082,14.824794538805314
5.196597302486189,13.54192930912534
5.400593278542364,12.36800937297696
5.612597255954967,11.293994657700143
5.8329235942862,10.311574032430109
6.06189899349756,9.413108600391006
6.29986297838068,8.591578498042852
6.547168402004727,7.840531766612897
6.804181968927091,7.154043020115851
7.071284778942991,6.526673052099579
7.348872892180382,5.953430096891174
7.637357916378006,5.42973406787151
7.937167617217536,4.951385328168518
8.248746552614573,4.514537563164516
8.572556731909314,4.1156632472706915
8.909078300934132,3.7515267456642856
9.258810253973934,3.4191609958093085
9.622271173675122,3.115845939229781
9.999999999999984,2.839082130254998
