k [1/Mpc],P(k) [Mpc^3]
0.0001,157.50679074722663
0.00010392556829367125,164.63672248716063
0.00010800523745162529,172.08930414161247
0.00011224505680853065,179.87912326820626
0.00011665131316981963,188.0214257123225
0.00012123054013376525,196.53214466954577
0.00012598952777950273,205.4279319795056
0.00013093533273536104,214.72618618234762
0.00013607528864243335,224.44508537752822
0.00014141701702890234,234.60362737025918
0.00014696843861124463,245.22167190931756
0.00015273778503907136,256.31997573876686
0.00015873361110102093,267.9202233671627
0.00016496480740980205,280.0450635769195
0.0001714406135851971,292.7181632055851
0.00017817063195457305,305.96426190288605
0.00018516484179121546,319.80921651128216
0.000192433614111598,334.2800355629122
0.00019998772705352857,349.4049143653695
0.0002078383818579757,365.21330834756003
0.00021599721947827182,381.73600646642575
0.0002244763378413224,399.00518845849706
0.0002332883097864157,417.05446645180143
0.00024244620170823283,435.91891995764865
0.0002519635929317015,455.63518561548597
0.0002618545958474233,476.24153685233875
0.0002721338768375308,497.7779568593075
0.0002828166780230032,520.2862049470848
0.0002939188398646886,543.8098690289673
0.0003054568246515432,568.3944615790117
0.00031744774091091926,594.0875035375483
0.00032990936877709396,620.9386048101347
0.00034286018635565856,648.9995619457553
0.00035631939712285854,678.3244134367338
0.000370306958400514,708.969552047877
0.00038484361094874304,740.9938470229818
0.0003999509097203664,774.4587511742976
0.00041565125582259895,809.4284037370737
0.00043196792973341727,845.9696449216024
0.0004489251258218605,884.1521389591555
0.0004665479882234472,924.0485711077872
0.000484862648123908,965.7347986259349
0.000503896262506515,1009.2899602669261
0.0005236770544204653,1054.7964893837845
0.0005442343548300266,1102.3402139103414
0.0005655986461065005,1152.0106115401613
0.0005878016072274912,1203.9009725343924
0.0006108761607505036,1258.1085471469924
0.0006348565216305217,1314.7345706156125
0.0006597782479539537,1373.8843067667117
0.0006856782936641739,1435.667377960528
0.0007125950633568407,1500.19790647541
0.0007405684692262436,1567.594703205973
0.0007696399902471156,1637.9813976851474
0.0007998527336796708,1711.4864897271484
0.000831251498989063,1788.2436532434488
0.0008638828442740447,1868.3917051250035
0.000897795155303332,1952.07479760047
0.0009330387172620361,2039.4427686055742
0.0009696657893145519,2130.65127061883
0.001007730682094461,2225.8620167291797
0.0010472898382363582,2325.2425798965282
0.0010884019160690055,2428.9664192495657
0.0011311278765939214,2537.213457028605
0.001175531073878369,2650.170032816228
0.0012216773489967915,2768.0292394787907
0.0012696351276599736,2890.9908547221366
0.0013194755216767058,3019.2611539413747
0.0013712724343984,3153.053536264738
0.0014251026703029975,3292.5880673638594
0.0014810460488806749,3438.0918302533314
0.0015391855229902056,3589.799117261281
0.001599607301861487,3747.950891638939
0.0016624009789266115,3912.79552424372
0.0017276596646690358,4084.5881067539967
0.0017954801246878305,4263.590493181968
0.0018659629231817451,4450.071820469907
0.001939212572065829,4644.307607206602
0.0020153376859417325,4846.580433715697
0.002094451143151469,5057.178845598108
0.002176670253153458,5276.396633444974
0.002262116930469025,5504.534019999137
0.002350917875457286,5741.896533281428
0.002443204762186487,5988.795370429642
0.0025391144336803463,6245.546249129678
0.002638789104828933,6512.467545880598
0.002742376573264949,6789.881878779383
0.0028500304385181063,7078.1144349411625
0.0029619103297725525,7377.492884146995
0.0030781821425650787,7688.346589608824
0.003199018284775064,8011.003421213095
0.0033245979322709396,8345.791409687445
0.003455107294592217,8693.036337227726
0.0035907398910610534,9053.060675090042
0.0037316968377327513,9426.183527444924
0.0038781871456107214,9812.715873214618
0.0040304280305680515,10212.961994332101
0.00418864523543527,10627.215795891323
0.004353073364731888,11055.757399497405
0.00452395623253805,11498.854933981524
0.004701547224022131,11956.757460980287
0.004886109671160325,12429.695908800059
0.005077917243205399,12917.879965142081
0.005277254352483535,13421.491261634195
0.005484416576121017,13940.686643155308
0.005699711094326071,14475.588960159457
0.005923457145875801,15026.286224285574
0.006155986501483508,15592.827078473048
0.006397643955748424,16175.201666587609
0.0066487878384172625,16773.35418510591
0.0069097905457156435,17387.192773461087
0.007181039092537346,18016.588066844328
0.007462935686310132,18661.342005351456
0.007755898323389004,19321.097333586047
0.00806036140886134,19995.39244662806
0.008376776400682916,20683.705906138235
0.008705612479099857,21385.46534032843
0.009047357242349292,22100.02026356681
0.00940251742967013,22826.632920377007
0.009771619672696168,23564.477139679508
0.010155211276345676,24312.592511590003
0.010553861030365234,25069.81979719968
0.010968160052731372,25834.871340055855
0.011398722666160517,26606.295167780092
0.011846187309026826,27382.481746692614
0.012311217482038896,28161.67555786076
0.012794502732078732,28941.927046432498
0.013296759674662111,29721.136584188498
0.013818733056536317,30497.013211654044
0.014361196859990781,31267.068467927067
0.014924955450518284,32028.652718140267
0.015510844769528393,32778.86269780781
0.016119733573881575,33514.620385144706
0.01675252472408214,34232.66603725342
0.017410156523040152,34929.53433027735
0.018093604107387147,35601.634453995575
0.01880388089340914,36245.18437395416
0.019542040079740527,36856.27708853265
0.02030917620904734,37430.92751273509
0.021106426791015535,37965.06106594533
0.021934973989050584,38454.60056891263
0.02279604637318978,38895.504060317
0.023690920741826323,39283.80473595709
0.02462092401494623,39615.70091891482
0.02558743520168586,39887.71529278315
0.02659188744512693,40096.62534179948
0.027635770147361564,40239.67074420529
0.028720631177978267,40314.619053748196
0.029848079169243254,40319.73671233228
0.03101978590138095,40254.54148192837
0.03223748878149028,40119.23748590613
0.0335029934197723,39914.60012939206
0.03481817630688963,39642.09754112647
0.03618498759642746,39303.99363469132
0.037605453996581675,38906.74978441651
0.03908168177536263,38458.98621700175
0.04061585988376978,37967.7165759805
0.04221026320156896,37436.071299050935
0.04386725591048496,36867.02122453699
0.0455892949998106,36269.23078761644
0.047378933909631396,35655.45881841145
0.049238826317067365,35037.73796150646
0.05117173007114603,34426.88528273577
0.05318051128214196,33832.77856870058
0.05526814857144601,33262.65523258681
0.057437737488265785,32721.467073515032
0.0596924950997073,32211.39482150473
0.0620357647610427,31730.209661950987
0.06447102107323864,31273.58205624735
0.06700187503509585,30833.41208889491
0.06963207939763882,30399.626786792767
0.0723655342286965,29959.20389218416
0.07520629269592405,29496.891196859207
0.07815856707684081,28995.339765056342
0.08122673500479707,28435.776403312688
0.08441534596012978,27800.194912808965
0.0877291280161335,27073.673525989776
0.09117299484984914,26249.34434445568
0.09475205302806537,25330.82820704979
0.09847160957933764,24333.78930446263
0.1023371798632519,23285.44367427555
0.10635449574860109,22223.643161261854
0.11052951411260206,21185.999317698406
0.1148684256737553,20204.16938817061
0.1193776641714435,19309.835710110114
0.1240639159058831,18527.066073123315
0.12893412965257148,17865.17529970757
0.13399552696593373,17313.281412662243
0.1392556128874462,16838.310549062462
0.14472218707411338,16390.81020637585
0.15040335536380234,15915.41153248303
0.15630754179458153,15363.836020351951
0.16244350109588662,14708.78523533723
0.16882033167003618,13955.033658533286
0.17544748908334581,13141.102788889022
0.1823348000868439,12328.838327707173
0.189492477187382,11585.875179314393
0.19693113379074215,10963.835095655413
0.20466179993919872,10474.85561455192
0.21269593866686892,10083.087564309122
0.22104546299710207,9723.001181694392
0.22972275360711503,9327.175424735295
0.23874067718606454,8851.229793743214
0.2481126055137766,8302.948408720347
0.25785243528842716,7743.073462200453
0.26797460873256895,7243.34634369075
0.27849413500806414,6844.418752978274
0.28942661247167484,6530.01585746308
0.3007882518043098,6236.848399363906
0.31259590004822796,5905.476040568693
0.324867065587837,5527.035011905561
0.3376199441111335,5147.963595395332
0.35087344559027084,4820.724430543733
0.36464722232127456,4557.302703395318
0.37896169806447155,4317.693094693439
0.3938380983288488,4058.5893785816993
0.4092984818452433,3783.885420614619
0.4253657732750382,3531.3564051987855
0.44206379720285277,3317.8756079998675
0.45941731346364734,3122.195291736028
0.47745205385661277,2919.706970746102
0.4961947603002895,2720.063965527347
0.5156732244854959,2542.810093802021
0.5359163290848509,2382.1833443589658
0.556954090580013,2223.691556953195
0.5788177037701272,2070.895233725444
0.6015395880274836,1932.8485831395024
0.6251534353689703,1803.4283069145101
0.6496942604146115,1678.6371143790539
0.6751984523072497,1562.9370093321907
0.7017038286703824,1455.444904639297
0.7292496916841444,1353.418310971868
0.7578768863625915,1258.3577557152655
0.7876278611187046,1169.6573117418918
0.8185467307069019,1086.5140899759713
0.850679341636415,1008.7609700925153
0.8840733401525058,936.133264267221
0.9187782428863317,868.3642937608939
0.9548455102782278,805.1687134216072
0.9923286228832539,746.2652448830864
1.0312831606721837,691.387711835299
1.0717668854455022,640.2844229058347
1.1138398264826193,592.717545327042
1.1575643695533022,548.4635257811547
1.2030053494233226,507.31331214382556
1.2502301459914542,469.0692669458257
1.299308784200415,433.54440621899056
1.3503140378698726,400.5620086107292
1.4033215376054824,369.95519803435144
1.4584098829439835,341.5661973090367
1.5156607589006013,315.246121948515
1.575159057091621,290.8549553158042
1.6369930016117014,268.2611351087397
1.7012542798525885,247.34113768043963
1.7680381784572046,227.97904406742404
1.8374437246107238,210.06604210208565
1.9095738328780953,193.5001924979517
1.9845354578058014,178.18611023308918
2.0624397525140905,164.03460015644683
2.143402233514853,150.96230749242176
2.227542951999554,138.89137248409315
2.314986671851158,127.74910628288865
2.405863054644063,117.46770820377388
2.5003068519063225,107.98397548986138
2.598458104929248,99.23902461519461
2.7004623524206774,91.17802418468395
2.806470846309834,83.74991815366018
2.916640776023701,76.90720585172227
3.031135501567576,70.60573894821982
3.150124795755327,64.80450537977536
3.2737850959485697,59.46542486416214
3.4022997656780634,54.55315136900531
3.5358593665351745,50.03487920924987
3.6746619407366854,45.880191629206145
3.8189133047818515,42.06090437915301
3.968827354637162,38.55091285175556
4.1246263829013445,35.32604856573295
4.286541408420921,32.36393949848654
4.4548125188449825,29.643883640421144
4.629689226627261,27.14674019845631
4.811430839003257,24.85481918666609
5.000306842491082,22.751777475537317
5.196597302486189,20.822521452435936
5.400593278542364,19.05311411817061
5.612597255954967,17.430692683289692
5.8329235942862,15.94339158214038
6.06189899349756,14.580268838037389
6.29986297838068,13.331237496444718
6.547168402004727,12.186999575837657
6.804181968927091,11.138982571069741
7.071284778942991,10.179292414035991
7.348872892180382,9.300663527797294
7.637357916378006,8.496410608811319
7.937167617217536,7.760384131544962
8.248746552614573,7.086935474776455
8.572556731909314,6.470877469713561
8.909078300934132,5.90743908964446
9.258810253973934,5.3922329713518184
9.622271173675122,4.921225916119384
9.999999999999984,4.4907082062659445
