k [1/Mpc],P(k) [Mpc^3]
0.0001,189.1902865075669
0.00010392556829367125,195.4836730963516
0.00010800523745162529,201.98631878533826
0.00011224505680853065,208.70516414392276
0.00011665131316981963,215.64738557448695
0.00012123054013376525,222.82040520076677
0.00012598952777950273,230.23189033665932
0.00013093533273536104,237.88975119738768
0.00013607528864243335,245.80215469153924
0.00014141701702890234,253.97753843997413
0.00014696843861124463,262.4246211202656
0.00015273778503907136,271.15240898550377
0.00015873361110102093,280.17019899626234
0.00016496480740980205,289.48758991502916
0.0001714406135851971,299.1145005575837
0.00017817063195457305,309.0611910496476
0.00018516484179121546,319.3382623981772
0.000192433614111598,329.95663768437436
0.00019998772705352857,340.92756835515445
0.0002078383818579757,352.26267794088943
0.00021599721947827182,363.97401037700905
0.0002244763378413224,376.0740196030919
0.0002332883097864157,388.57554050980593
0.00024244620170823283,401.4917782387406
0.0002519635929317015,414.83636270809353
0.0002618545958474233,428.6233863927884
0.0002721338768375308,442.86741148956094
0.0002828166780230032,457.5834644274272
0.0002939188398646886,472.78703346239797
0.0003054568246515432,488.49410169042585
0.00031744774091091926,504.7211625368906
0.00032990936877709396,521.4852356982765
0.00034286018635565856,538.8038775616396
0.00035631939712285854,556.6951635365652
0.000370306958400514,575.1777301622449
0.00038484361094874304,594.2708035268287
0.0003999509097203664,613.9942172063306
0.00041565125582259895,634.3684249457788
0.00043196792973341727,655.4144811099926
0.0004489251258218605,677.1540764503446
0.0004665479882234472,699.6095681925896
0.000484862648123908,722.8039892476958
0.000503896262506515,746.7610747653041
0.0005236770544204653,771.5052036915282
0.0005442343548300266,797.0614271573864
0.0005655986461065005,823.4555581617687
0.0005878016072274912,850.7142322069458
0.0006108761607505036,878.8648927291521
0.0006348565216305217,907.9356675958405
0.0006597782479539537,937.9553400951447
0.0006856782936641739,968.9535187737462
0.0007125950633568407,1000.9607266443865
0.0007405684692262436,1034.0083889047212
0.0007696399902471156,1068.12872334173
0.0007998527336796708,1103.3546422958448
0.000831251498989063,1139.719933731044
0.0008638828442740447,1177.2593054937836
0.000897795155303332,1216.0084034969607
0.0009330387172620361,1256.0037331754327
0.0009696657893145519,1297.2824471142396
0.001007730682094461,1339.8825731774011
0.0010472898382363582,1383.843115255209
0.0010884019160690055,1429.2040734362208
0.0011311278765939214,1476.0063428582673
0.001175531073878369,1524.2913083177168
0.0012216773489967915,1574.1011141059523
0.0012696351276599736,1625.4787613276537
0.0013194755216767058,1678.468062420634
0.0013712724343984,1733.1136843085092
0.0014251026703029975,1789.4607971967064
0.0014810460488806749,1847.5551912828025
0.0015391855229902056,1907.443284479944
0.001599607301861487,1969.171766240682
0.0016624009789266115,2032.787920596588
0.0017276596646690358,2098.3393287476606
0.0017954801246878305,2165.873828825585
0.0018659629231817451,2235.439632110248
0.001939212572065829,2307.084763701165
0.0020153376859417325,2380.8573953822674
0.002094451143151469,2456.805579089229
0.002176670253153458,2534.9769621781106
0.002262116930469025,2615.4190719179765
0.002350917875457286,2698.178467850528
0.002443204762186487,2783.301016219246
0.0025391144336803463,2870.831846089769
0.002638789104828933,2960.814739381517
0.002742376573264949,3053.2925646662857
0.0028500304385181063,3148.30638606291
0.0029619103297725525,3245.8954203797107
0.0030781821425650787,3346.0972037991755
0.003199018284775064,3448.946468166035
0.0033245979322709396,3554.475757490722
0.003455107294592217,3662.714510850098
0.0035907398910610534,3773.6884883435746
0.0037316968377327513,3887.420397731232
0.0038781871456107214,4003.92826368425
0.0040304280305680515,4123.225998255936
0.00418864523543527,4245.322770488635
0.004353073364731888,4370.221599667089
0.00452395623253805,4497.920509430876
0.004701547224022131,4628.410492587318
0.004886109671160325,4761.67567561288
0.005077917243205399,4897.6931503704645
0.005277254352483535,5036.429934220124
0.005484416576121017,5177.845135686506
0.005699711094326071,5321.888232234006
0.005923457145875801,5468.498339550774
0.006155986501483508,5617.604274430674
0.006397643955748424,5769.116817424285
0.0066487878384172625,5922.933254777546
0.0069097905457156435,6078.9433419220695
0.007181039092537346,6237.031879050993
0.007462935686310132,6397.069907260112
0.007755898323389004,6558.880822867106
0.00806036140886134,6722.251861965605
0.008376776400682916,6886.961860169365
0.008705612479099857,7052.798951411482
0.009047357242349292,7219.539525314757
0.00940251742967013,7386.911461292816
0.009771619672696168,7554.5936586555445
0.010155211276345676,7722.247245682708
0.010553861030365234,7889.530473651148
0.010968160052731372,8056.088037567928
0.011398722666160517,8221.52069657902
0.011846187309026826,8385.371316002203
0.012311217482038896,8547.155556599202
0.012794502732078732,8706.343024401684
0.013296759674662111,8862.369790478535
0.013818733056536317,9014.641456532661
0.014361196859990781,9162.520497847949
0.014924955450518284,9305.345524305425
0.015510844769528393,9442.401422398363
0.016119733573881575,9572.928649530835
0.01675252472408214,9696.142589309813
0.017410156523040152,9811.201576438207
0.018093604107387147,9917.245963904476
0.01880388089340914,10013.3804164431
0.019542040079740527,10098.670489179285
0.02030917620904734,10172.182629274017
0.021106426791015535,10232.943951131192
0.021934973989050584,10279.985829137053
0.02279604637318978,10312.350817554989
0.023690920741826323,10329.075826767948
0.02462092401494623,10329.251151756062
0.02558743520168586,10312.00374540415
0.02659188744512693,10276.524870488034
0.027635770147361564,10222.099478161383
0.028720631177978267,10148.094873436166
0.029848079169243254,10054.009101155812
0.03101978590138095,9939.552738823366
0.03223748878149028,9804.661247992322
0.0335029934197723,9649.421271542118
0.03481817630688963,9473.997953510832
0.03618498759642746,9278.71625841558
0.037605453996581675,9064.618926959238
0.03908168177536263,8833.758728624622
0.04061585988376978,8588.203031369205
0.04221026320156896,8329.077913852934
0.04386725591048496,8057.090098635179
0.0455892949998106,7773.845254835646
0.047378933909631396,7482.976733964878
0.049238826317067365,7188.152928372896
0.05117173007114603,6892.4644521332975
0.05318051128214196,6598.473290561137
0.05526814857144601,6308.828492545548
0.057437737488265785,6027.0941385474025
0.0596924950997073,5756.508310475315
0.0620357647610427,5499.783291969861
0.06447102107323864,5259.097292576238
0.06700187503509585,5035.950015769249
0.06963207939763882,4831.3008859558095
0.0723655342286965,4645.296125686474
0.07520629269592405,4477.508394613926
0.07815856707684081,4326.621042228921
0.08122673500479707,4190.681837003643
0.08441534596012978,4066.9611781333833
0.0877291280161335,3951.8513598123773
0.09117299484984914,3841.050441097344
0.09475205302806537,3729.6453041571426
0.09847160957933764,3612.5332470225235
0.1023371798632519,3485.015856144011
0.10635449574860109,3343.5090662389034
0.11052951411260206,3186.1088532259164
0.1148684256737553,3013.1486407518255
0.1193776641714435,2827.1633034006313
0.1240639159058831,2632.9555135039245
0.12893412965257148,2437.6587574176137
0.13399552696593373,2248.7342137019627
0.1392556128874462,2073.8303462609692
0.14472218707411338,1919.9112650994673
0.15040335536380234,1791.6550503443314
0.15630754179458153,1690.6226120833905
0.16244350109588662,1614.836200477845
0.16882033167003618,1558.8172430531215
0.17544748908334581,1513.9903036204173
0.1823348000868439,1469.7606537861218
0.189492477187382,1415.60045844616
0.19693113379074215,1343.8870621092856
0.20466179993919872,1252.6224563301907
0.21269593866686892,1146.94728343971
0.22104546299710207,1038.0800050529465
0.22972275360711503,939.1725703599745
0.23874067718606454,860.2702911185481
0.2481126055137766,805.2850765218436
0.25785243528842716,770.9859844108053
0.26797460873256895,747.3104274065888
0.27849413500806414,720.6365836563516
0.28942661247167484,680.2475712247925
0.3007882518043098,624.1838281180612
0.31259590004822796,561.0130218583555
0.324867065587837,504.61164467146745
0.3376199441111335,464.88727728493035
0.35087344559027084,441.7502327713612
0.36464722232127456,425.3628610698756
0.37896169806447155,403.21162070374567
0.3938380983288488,369.8798865188297
0.4092984818452433,331.84994228885796
0.4253657732750382,300.7796886831688
0.44206379720285277,281.7379676199691
0.45941731346364734,268.6778129675617
0.47745205385661277,251.52474285400245
0.4961947603002895,228.12216301859885
0.5156732244854959,205.96641062653782
0.5359163290848509,191.20736011965244
0.556954090580013,180.4720558076226
0.5788177037701272,166.84783892501136
0.6015395880274836,150.93933518409867
0.6251534353689703,138.43455801747817
0.6496942604146115,129.47587569245525
0.6751984523072497,119.45234242940658
0.7017038286703824,108.47829317530699
0.7292496916841444,99.93821484906722
0.7578768863625915,92.68499701484868
0.7876278611187046,84.62691086048486
0.8185467307069019,77.48533672212218
0.850679341636415,71.5642770621367
0.8840733401525058,65.54209755422389
0.9187782428863317,59.795860259607586
0.9548455102782278,54.675563098920044
0.9923286228832539,50.09103282392122
1.0312831606721837,45.943772525726054
1.0717668854455022,42.15495528228281
1.1138398264826193,38.661731021742206
1.1575643695533022,35.41700030932168
1.2030053494233226,32.40430727636286
1.2502301459914542,29.618177150869787
1.299308784200415,27.05103074910637
1.3503140378698726,24.693605503709094
1.4033215376054824,22.53541773417644
1.4584098829439835,20.563639870792382
1.5156607589006013,18.76185954941616
1.575159057091621,17.114644462403703
1.6369930016117014,15.608119744607654
1.7012542798525885,14.229793450403962
1.7680381784572046,12.968430479818537
1.8374437246107238,11.814364532633784
1.9095738328780953,10.759123565372288
1.9845354578058014,9.794833116341225
2.0624397525140905,8.914168545604126
2.143402233514853,8.110326422492278
2.227542951999554,7.376973132273717
2.314986671851158,6.708145180250455
2.405863054644063,6.098331731344491
2.5003068519063225,5.542477429215717
2.598458104929248,5.035946107160566
2.7004623524206774,4.574487404150792
2.806470846309834,4.154213762182486
2.916640776023701,3.771572479838502
3.031135501567576,3.423304907520463
3.150124795755327,3.106422379305577
3.2737850959485697,2.818185146341924
3.4022997656780634,2.5560825324885323
3.5358593665351745,2.3178126623796196
3.6746619407366854,2.101267791141928
3.8189133047818515,1.9045202428036911
3.968827354637162,1.725807701678726
4.1246263829013445,1.5635196216785565
4.286541408420921,1.4161846941671095
4.4548125188449825,1.2824592965674395
4.629689226627261,1.1611168397253413
4.811430839003257,1.0510379645646435
5.000306842491082,0.9512015205478884
5.196597302486189,0.860676258439522
5.400593278542364,0.7786130464296516
5.612597255954967,0.7042379359335056
5.8329235942862,0.6368459014260796
6.06189899349756,0.5757949074367552
6.29986297838068,0.5205004585217926
6.547168402004727,0.47043054689693403
6.804181968927091,0.42510087637187177
7.071284778942991,0.38407095580786355
7.348872892180382,0.34694034362091597
7.637357916378006,0.313345099212095
7.937167617217536,0.2829545419861829
8.248746552614573,0.2554684957229371
8.572556731909314,0.23061461991683688
8.909078300934132,0.2081455234064842
9.258810253973934,0.1878365125491273
9.622271173675122,0.16948357239634482
9.999999999999984,0.15290143616197593
