k [1/Mpc],P(k) [Mpc^3]
0.0001,2898.3763213699585
0.00010392556829367125,3020.4925330642527
0.00010800523745162529,3147.723193392773
0.00011224505680853065,3280.278839109977
0.00011665131316981963,3418.378201806603
0.00012123054013376525,3562.2482804062097
0.00012598952777950273,3712.1249466114705
0.00013093533273536104,3868.253008875605
0.00013607528864243335,4030.886605587489
0.00014141701702890234,4200.289533971107
0.00014696843861124463,4376.7350989119695
0.00015273778503907136,4560.506876353937
0.00015873361110102093,4751.898693152845
0.00016496480740980205,4951.214859181979
0.0001714406135851971,5158.770804608053
0.00017817063195457305,5374.89259163444
0.00018516484179121546,5599.917766370005
0.000192433614111598,5834.195481558252
0.00019998772705352857,6078.086331121898
0.0002078383818579757,6331.963280059497
0.00021599721947827182,6596.210477317628
0.0002244763378413224,6871.224006876254
0.0002332883097864157,7157.41257909329
0.00024244620170823283,7455.19673653068
0.0002519635929317015,7765.010081464754
0.0002618545958474233,8087.29815050757
0.0002721338768375308,8422.518413454412
0.0002828166780230032,8771.141261745901
0.0002939188398646886,9133.647749451193
0.0003054568246515432,9510.53126926265
0.00031744774091091926,9902.296974287307
0.00032990936877709396,10309.460687599822
0.00034286018635565856,10732.550366890666
0.00035631939712285854,11172.103100880367
0.000370306958400514,11628.666036044255
0.00038484361094874304,12102.796482877318
0.0003999509097203664,12595.059333572666
0.00041565125582259895,13106.028921092657
0.00043196792973341727,13636.286054132383
0.0004489251258218605,14186.417397235651
0.0004665479882234472,14757.015984100944
0.000484862648123908,15348.676042556528
0.000503896262506515,15961.995299964205
0.0005236770544204653,16597.57227888803
0.0005442343548300266,17256.003367204135
0.0005655986461065005,17937.884199413795
0.0005878016072274912,18643.80093341845
0.0006108761607505036,19374.33193225618
0.0006348565216305217,20130.0454251712
0.0006597782479539537,20911.49117924548
0.0006856782936641739,21719.204981564788
0.0007125950633568407,22553.695920402
0.0007405684692262436,23415.44467318568
0.0007696399902471156,24304.905348591587
0.0007998527336796708,25222.490559946746
0.000831251498989063,26168.577437961667
0.0008638828442740447,27143.4954731931
0.000897795155303332,28147.517513683022
0.0009330387172620361,29180.868099217183
0.0009696657893145519,30243.715231025348
0.001007730682094461,31336.168677273778
0.0010472898382363582,32458.262687141705
0.0010884019160690055,33609.93228919402
0.0011311278765939214,34791.03515730586
0.001175531073878369,36001.38181533068
0.0012216773489967915,37240.72596426303
0.0012696351276599736,38508.715831216046
0.0013194755216767058,39804.824678659694
0.0013712724343984,41128.401637154326
0.0014251026703029975,42478.700780480714
0.0014810460488806749,43854.88145134779
0.0015391855229902056,45255.98274140549
0.001599607301861487,46680.89741573003
0.0016624009789266115,48128.37974459419
0.0017276596646690358,49597.05153413615
0.0017954801246878305,51085.400349654505
0.0018659629231817451,52591.77324249152
0.001939212572065829,54114.36458388032
0.0020153376859417325,55651.21657012559
0.002094451143151469,57200.22319564479
0.002176670253153458,58759.128824791376
0.002262116930469025,60325.5286079869
0.002350917875457286,61896.861927327234
0.002443204762186487,63470.412854612885
0.0025391144336803463,65043.31085684017
0.002638789104828933,66612.49453984287
0.002742376573264949,68174.74345929692
0.0028500304385181063,69726.73393556822
0.0029619103297725525,71265.07353981523
0.0030781821425650787,72786.2118207877
0.003199018284775064,74286.0180419874
0.0033245979322709396,75759.95456136644
0.003455107294592217,77203.86536295131
0.0035907398910610534,78614.99350199822
0.0037316968377327513,79990.72592777717
0.0038781871456107214,81325.62468929721
0.0040304280305680515,82611.4513005302
0.00418864523543527,83840.41237480282
0.004353073364731888,85008.45390566031
0.00452395623253805,86112.74233792482
0.004701547224022131,87148.70558280777
0.004886109671160325,88109.01327316005
0.005077917243205399,88986.3600049681
0.005277254352483535,89775.78333589662
0.005484416576121017,90473.66126977373
0.005699711094326071,91075.61348883928
0.005923457145875801,91575.00512930535
0.006155986501483508,91965.02143644381
0.006397643955748424,92238.54978085279
0.0066487878384172625,92388.34901209344
0.0069097905457156435,92407.61363643197
0.007181039092537346,92290.1065601002
0.007462935686310132,92030.19153479334
0.007755898323389004,91621.71917444351
0.00806036140886134,91057.74126177965
0.008376776400682916,90332.04334633719
0.008705612479099857,89438.52614913695
0.009047357242349292,88371.93220789687
0.00940251742967013,87127.38384392874
0.009771619672696168,85699.33464927015
0.010155211276345676,84083.79310831214
0.010553861030365234,82277.20089633318
0.010968160052731372,80277.24429744604
0.011398722666160517,78083.48890561135
0.011846187309026826,75695.23865041758
0.012311217482038896,73114.63841290513
0.012794502732078732,70345.43514603152
0.013296759674662111,67393.07981713887
0.013818733056536317,64267.09517658576
0.014361196859990781,60977.6672247872
0.014924955450518284,57539.17726978403
0.015510844769528393,53969.67773800997
0.016119733573881575,50289.10967610212
0.01675252472408214,46523.46978498778
0.017410156523040152,42700.25029916716
0.018093604107387147,38850.94408108436
0.01880388089340914,35011.834755368785
0.019542040079740527,31219.333644506816
0.02030917620904734,27514.53647813296
0.021106426791015535,23937.61497077658
0.021934973989050584,20527.619996094752
0.02279604637318978,17325.10162421172
0.023690920741826323,14366.527494957854
0.02462092401494623,11684.116690445488
0.02558743520168586,9301.65784545618
0.02659188744512693,7232.051490033801
0.027635770147361564,5479.239262727942
0.028720631177978267,4037.895092398889
0.029848079169243254,2890.040664253889
0.03101978590138095,2009.9642802930853
0.03223748878149028,1367.25812585409
0.0335029934197723,917.535164447208
0.03481817630688963,625.4953902248533
0.03618498759642746,455.17885572777186
0.037605453996581675,370.59285905340994
0.03908168177536263,349.41256856429675
0.04061585988376978,390.9232208185251
0.04221026320156896,501.5110409949677
0.04386725591048496,693.9846428565894
0.0455892949998106,989.3670218295166
0.047378933909631396,1402.4574478394675
0.049238826317067365,1926.5689244760842
0.05117173007114603,2518.9241655310816
0.05318051128214196,3117.961924096556
0.05526814857144601,3646.0613221817853
0.057437737488265785,4017.0329133734153
0.0596924950997073,4150.2736878400265
0.0620357647610427,3993.491199785759
0.06447102107323864,3547.272624509973
0.06700187503509585,2885.8341979404354
0.06963207939763882,2117.451075192991
0.0723655342286965,1375.705804492334
0.07520629269592405,784.268801759093
0.07815856707684081,388.71766389936545
0.08122673500479707,172.4435665983571
0.08441534596012978,80.80674891216395
0.0877291280161335,62.20491141671047
0.09117299484984914,92.29963449243476
0.09475205302806537,195.16328694958716
0.09847160957933764,393.85234587424463
0.1023371798632519,666.6392054163115
0.10635449574860109,916.9244451586454
0.11052951411260206,1028.4265759466155
0.1148684256737553,939.2778428080768
0.1193776641714435,685.1398593517312
0.1240639159058831,391.4129213021273
0.12893412965257148,178.07961301945926
0.13399552696593373,75.55484131539019
0.1392556128874462,50.17409450503658
0.14472218707411338,76.51764800942986
0.15040335536380234,158.37950724479478
0.15630754179458153,273.86446140189986
0.16244350109588662,343.2684922855405
0.16882033167003618,304.3695583023613
0.17544748908334581,193.19319476345666
0.1823348000868439,94.93264726220325
0.189492477187382,52.22866170476282
0.19693113379074215,55.13195846645345
0.20466179993919872,91.45153900987115
0.21269593866686892,133.10044237158067
0.22104546299710207,133.28009826533517
0.22972275360711503,91.62224878874675
0.23874067718606454,53.004187297118605
0.2481126055137766,41.98463479926986
0.25785243528842716,53.38933007910007
0.26797460873256895,67.85949135225688
0.27849413500806414,62.09286792018437
0.28942661247167484,43.11660060369629
0.3007882518043098,33.05651398982254
0.31259590004822796,35.67845301156602
0.324867065587837,39.47090645461696
0.3376199441111335,33.96535617734634
0.35087344559027084,26.332081260219823
0.36464722232127456,24.745676852482376
0.37896169806447155,25.51144220334419
0.3938380983288488,22.641328397685168
0.4092984818452433,19.078524009092174
0.4253657732750382,18.155916825106495
0.44206379720285277,17.17180115182222
0.45941731346364734,15.012330102239961
0.47745205385661277,13.73075216332814
0.4961947603002895,12.787134357058322
0.5156732244854959,11.796149121228371
0.5359163290848509,10.780911022827606
0.556954090580013,9.788528886155326
0.5788177037701272,8.853716423648907
0.6015395880274836,7.999806151992347
0.6251534353689703,7.240443231003784
0.6496942604146115,6.572865792166268
0.6751984523072497,5.980830705994277
0.7017038286703824,5.450478125878932
0.7292496916841444,4.970765254688735
0.7578768863625915,4.532905680815118
0.7876278611187046,4.130361657660342
0.8185467307069019,3.7603854724622217
0.850679341636415,3.421334762203547
0.8840733401525058,3.111458355810255
0.9187782428863317,2.8289412932161637
0.9548455102782278,2.5719416760658746
0.9923286228832539,2.338418660498723
1.0312831606721837,2.126136892551684
1.0717668854455022,1.9330634240988045
1.1138398264826193,1.7573773714628145
1.1575643695533022,1.597445772386571
1.2030053494233226,1.451810486962814
1.2502301459914542,1.3192143734741044
1.299308784200415,1.1985325390194344
1.3503140378698726,1.0887312940542548
1.4033215376054824,0.988861386635363
1.4584098829439835,0.8980517276603328
1.5156607589006013,0.8154983028946515
1.575159057091621,0.7404569521111812
1.6369930016117014,0.6722492167656143
1.7012542798525885,0.6102576368741864
1.7680381784572046,0.5539202740322162
1.8374437246107238,0.5027258743572145
1.9095738328780953,0.45621034143913475
1.9845354578058014,0.41395154580010823
2.0624397525140905,0.37556488363391666
2.143402233514853,0.340699992075104
2.227542951999554,0.3090377528000633
2.314986671851158,0.28028762860111794
2.405863054644063,0.25418520460265587
2.5003068519063225,0.23048971726731743
2.598458104929248,0.20898195753822474
2.7004623524206774,0.18946237758066806
2.806470846309834,0.17174934414934487
2.916640776023701,0.15567742178508137
3.031135501567576,0.14109605403895517
3.150124795755327,0.12786834735770694
3.2737850959485697,0.1158698471190905
3.4022997656780634,0.10498742049765418
3.5358593665351745,0.09511824460213322
3.6746619407366854,0.08616888442940107
3.8189133047818515,0.07805443055537101
3.968827354637162,0.07069772811135602
4.1246263829013445,0.06402867701497547
4.286541408420921,0.05798359417171962
4.4548125188449825,0.05250462928698274
4.629689226627261,0.04753923902184787
4.811430839003257,0.043039708640080616
5.000306842491082,0.03896271316514475
5.196597302486189,0.03526891788187787
5.400593278542364,0.03192261805410278
5.612597255954967,0.028891412304996374
5.8329235942862,0.02614589123901328
6.06189899349756,0.02365936262418401
6.29986297838068,0.02140760326610505
6.547168402004727,0.019368632420382812
6.804181968927091,0.017522495375431008
7.071284778942991,0.015851084343607248
7.348872892180382,0.014337979561085434
7.637357916378006,0.01296829334225619
7.937167617217536,0.01172852814472017
8.248746552614573,0.010606451130219834
8.572556731909314,0.009590983100588668
8.909078300934132,0.008672079837852857
9.258810253973934,0.00784063400905899
9.622271173675122,0.007088388805473096
9.999999999999984,0.006407858462599446
