k [1/Mpc],P(k) [Mpc^3]
0.0001,156.38404848780146
0.00010392556829367125,162.9917715735121
0.00010800523745162529,169.878609444246
0.00011224505680853065,177.0563242686643
0.00011665131316981963,184.53716722135337
0.00012123054013376525,192.33391955341642
0.00012598952777950273,200.45991622616538
0.00013093533273536104,208.929052920194
0.00013607528864243335,217.75579781733265
0.00014141701702890234,226.95522316525398
0.00014696843861124463,236.54303066621483
0.00015273778503907136,246.5355748890141
0.00015873361110102093,256.949896393549
0.00016496480740980205,267.80375953511225
0.0001714406135851971,279.11567968851773
0.00017817063195457305,290.9049437727506
0.00018516484179121546,303.191630312103
0.000192433614111598,315.9966547718377
0.00019998772705352857,329.3418091969682
0.0002078383818579757,343.24979876721505
0.00021599721947827182,357.7442726431113
0.0002244763378413224,372.8498408025485
0.0002332883097864157,388.59212871863446
0.00024244620170823283,404.99784163224086
0.0002519635929317015,422.0948204968707
0.0002618545958474233,439.91206261144697
0.0002721338768375308,458.47970896278827
0.0002828166780230032,477.82911075354116
0.0002939188398646886,497.9929245827634
0.0003054568246515432,519.0051941601986
0.00031744774091091926,540.9013751506141
0.00032990936877709396,563.7183357407438
0.00034286018635565856,587.4944088654412
0.00035631939712285854,612.269490467914
0.000370306958400514,638.0850896305358
0.00038484361094874304,664.9844015759279
0.0003999509097203664,693.0123594017257
0.00041565125582259895,722.2156872543653
0.00043196792973341727,752.6429928879013
0.0004489251258218605,784.3448125864911
0.0004665479882234472,817.3736964719129
0.000484862648123908,851.7842697266717
0.000503896262506515,887.6332456114864
0.0005236770544204653,924.9795693065395
0.0005442343548300266,963.8844628182416
0.0005655986461065005,1004.4115044486709
0.0005878016072274912,1046.6267500768683
0.0006108761607505036,1090.598776017029
0.0006348565216305217,1136.3988025829458
0.0006597782479539537,1184.1007331072856
0.0006856782936641739,1233.7811923482695
0.0007125950633568407,1285.5197033994655
0.0007405684692262436,1339.398667805354
0.0007696399902471156,1395.5035069462763
0.0007998527336796708,1453.9227823335336
0.000831251498989063,1514.7481966743464
0.0008638828442740447,1578.0747909064448
0.000897795155303332,1644.000893891103
0.0009330387172620361,1712.6282061736456
0.0009696657893145519,1784.0620058804077
0.001007730682094461,1858.4110487653131
0.0010472898382363582,1935.7878044780814
0.0010884019160690055,2016.3084010048244
0.0011311278765939214,2100.0925404736277
0.001175531073878369,2187.263856012489
0.0012216773489967915,2277.9497192561507
0.0012696351276599736,2372.281430026928
0.0013194755216767058,2470.394193372206
0.0013712724343984,2572.426634836772
0.0014251026703029975,2678.5213984140105
0.0014810460488806749,2788.8249702220887
0.0015391855229902056,2903.4876883621214
0.001599607301861487,3022.6638451311865
0.0016624009789266115,3146.5106629117786
0.0017276596646690358,3275.18898160183
0.0017954801246878305,3408.86335716039
0.0018659629231817451,3547.7018418194666
0.001939212572065829,3691.876097402196
0.0020153376859417325,3841.559660530551
0.002094451143151469,3996.9283944337562
0.002176670253153458,4158.161097791637
0.002262116930469025,4325.438981356709
0.002350917875457286,4498.945835437797
0.002443204762186487,4678.866265965511
0.0025391144336803463,4865.385273997085
0.002638789104828933,5058.689064108791
0.002742376573264949,5258.963345992379
0.0028500304385181063,5466.393932254772
0.0029619103297725525,5681.165890342739
0.0030781821425650787,5903.462354348079
0.003199018284775064,6133.465032741595
0.0033245979322709396,6371.351117035592
0.003455107294592217,6617.2935839083475
0.0035907398910610534,6871.460970750073
0.0037316968377327513,7134.014553895915
0.0038781871456107214,7405.109622496614
0.0040304280305680515,7684.892458801877
0.00418864523543527,7973.4991814827945
0.004353073364731888,8271.056019979931
0.00452395623253805,8577.673621690616
0.004701547224022131,8893.449080717575
0.004886109671160325,9218.46347300697
0.005077917243205399,9552.778313042012
0.005277254352483535,9896.43755111798
0.005484416576121017,10249.46101867972
0.005699711094326071,10611.84488638831
0.005923457145875801,10983.556967752895
0.006155986501483508,11364.522551853219
0.006397643955748424,11754.63589397294
0.0066487878384172625,12153.771604315
0.0069097905457156435,12561.784148434243
0.007181039092537346,12978.481817481514
0.007462935686310132,13403.555842913791
0.007755898323389004,13836.62441377472
0.00806036140886134,14277.270894206637
0.008376776400682916,14725.054880489773
0.008705612479099857,15179.487231123103
0.009047357242349292,15640.012914963956
0.00940251742967013,16106.014348775148
0.009771619672696168,16576.79418624633
0.010155211276345676,17051.52797950114
0.010553861030365234,17529.309938823306
0.010968160052731372,18009.131440235193
0.011398722666160517,18489.87859964584
0.011846187309026826,18970.349550766008
0.012311217482038896,19449.21057895984
0.012794502732078732,19925.029782069454
0.013296759674662111,20396.258961283485
0.013818733056536317,20861.209952172252
0.014361196859990781,21318.10062447775
0.014924955450518284,21764.984611478954
0.015510844769528393,22199.790276570144
0.016119733573881575,22620.342412315433
0.01675252472408214,23024.308804315606
0.017410156523040152,23409.28188038781
0.018093604107387147,23772.728961432716
0.01880388089340914,24112.00806539044
0.019542040079740527,24424.440949989013
0.02030917620904734,24707.253919680308
0.021106426791015535,24957.668656175516
0.021934973989050584,25172.92026213287
0.02279604637318978,25350.26012380188
0.023690920741826323,25487.04794337988
0.02462092401494623,25580.783176183682
0.02558743520168586,25629.144882510696
0.02659188744512693,25630.078021346242
0.027635770147361564,25581.909113866925
0.028720631177978267,25483.285127211264
0.029848079169243254,25333.389345975218
0.03101978590138095,25131.94755822013
0.03223748878149028,24879.194247050662
0.0335029934197723,24576.48310494637
0.03481817630688963,24225.72246295587
0.03618498759642746,23829.392705945236
0.037605453996581675,23390.66976313392
0.03908168177536263,22913.240441540027
0.04061585988376978,22403.737667729907
0.04221026320156896,21870.1255624932
0.04386725591048496,21319.150712500046
0.0455892949998106,20754.983559681044
0.047378933909631396,20181.412931802726
0.049238826317067365,19606.311823376025
0.05117173007114603,19040.773923658388
0.05318051128214196,18494.35756579438
0.05526814857144601,17973.90617480381
0.057437737488265785,17484.925678865904
0.0596924950997073,17030.893686967647
0.0620357647610427,16614.009545308745
0.06447102107323864,16233.725984126831
0.06700187503509585,15887.763472973083
0.06963207939763882,15571.206754749202
0.0723655342286965,15277.47336006289
0.07520629269592405,14997.33661270598
0.07815856707684081,14719.64753949168
0.08122673500479707,14430.934519960327
0.08441534596012978,14116.30742588646
0.0877291280161335,13761.013001182007
0.09117299484984914,13352.366113999777
0.09475205302806537,12882.99451142996
0.09847160957933764,12351.566162531282
0.1023371798632519,11765.847081556063
0.10635449574860109,11143.364518590253
0.11052951411260206,10503.6063819169
0.1148684256737553,9869.112108464384
0.1193776641714435,9265.975241543852
0.1240639159058831,8719.64433563705
0.12893412965257148,8250.558605705466
0.13399552696593373,7869.553909412883
0.1392556128874462,7574.290179405984
0.14472218707411338,7348.175553504924
0.15040335536380234,7162.292092776833
0.15630754179458153,6979.897647658693
0.16244350109588662,6763.592591200593
0.16882033167003618,6485.0877382866565
0.17544748908334581,6134.73430815832
0.1823348000868439,5726.151352880004
0.189492477187382,5293.924528687074
0.19693113379074215,4884.517989563097
0.20466179993919872,4540.309260113912
0.21269593866686892,4282.441345237421
0.22104546299710207,4103.976679301191
0.22972275360711503,3973.2222507902993
0.23874067718606454,3841.804146013711
0.2481126055137766,3664.191724634103
0.25785243528842716,3425.8178850188488
0.26797460873256895,3152.204512822468
0.27849413500806414,2892.179809820227
0.28942661247167484,2688.58352553439
0.3007882518043098,2550.5977846336264
0.31259590004822796,2449.3540035595597
0.324867065587837,2337.357177172176
0.3376199441111335,2185.7093365179026
0.35087344559027084,2008.5431838900392
0.36464722232127456,1847.7694306061987
0.37896169806447155,1731.1740653839527
0.3938380983288488,1645.5990943090248
0.4092984818452433,1555.2045679574212
0.4253657732750382,1442.1114033682452
0.44206379720285277,1326.0192255181073
0.45941731346364734,1233.9986179989573
0.47745205385661277,1163.15312411241
0.4961947603002895,1089.4243054762258
0.5156732244854959,1006.1883035882743
0.5359163290848509,930.5453868717638
0.556954090580013,870.3364455099722
0.5788177037701272,812.2881241751543
0.6015395880274836,750.7917813031946
0.6251534353689703,695.6135475307158
0.6496942604146115,648.2173763835345
0.6751984523072497,600.8933554172671
0.7017038286703824,555.6049420434722
0.7292496916841444,515.8505355282164
0.7578768863625915,477.819270780522
0.7876278611187046,441.7777932682378
0.8185467307069019,408.6614467535086
0.850679341636415,378.1097515937859
0.8840733401525058,349.73680948414165
0.9187782428863317,323.2959417958955
0.9548455102782278,298.6798428626317
0.9923286228832539,275.7925531080225
1.0312831606721837,254.53899481137358
1.0717668854455022,234.82562712478241
1.1138398264826193,216.5604389503902
1.1575643695533022,199.64761496826296
1.2030053494233226,183.99230604592438
1.2502301459914542,169.50585432672457
1.299308784200415,156.10550406500602
1.3503140378698726,143.71403205909513
1.4033215376054824,132.25959774498676
1.4584098829439835,121.67597099311281
1.5156607589006013,111.90136771807008
1.575159057091621,102.87794269231458
1.6369930016117014,94.55158208521149
1.7012542798525885,86.87170180024123
1.7680381784572046,79.79098401672351
1.8374437246107238,73.26516822179806
1.9095738328780953,67.25300970593364
1.9845354578058014,61.71611030970907
2.0624397525140905,56.61874283032195
2.143402233514853,51.92768317817376
2.227542951999554,47.61203831477716
2.314986671851158,43.64310610729713
2.405863054644063,39.99424681724987
2.5003068519063225,36.64074782420584
2.598458104929248,33.559695721407
2.7004623524206774,30.729854693045084
2.806470846309834,28.131549339542847
2.916640776023701,25.746563444455738
3.031135501567576,23.558041370299378
3.150124795755327,21.550393490494372
3.2737850959485697,19.709207500581094
3.4022997656780634,18.02116258619447
3.5358593665351745,16.473950274242096
3.6746619407366854,15.056207813819979
3.8189133047818515,13.757450380320183
3.968827354637162,12.568007048324137
4.1246263829013445,11.478960877599608
4.286541408420921,10.48209036365108
4.4548125188449825,9.56981931528638
4.629689226627261,8.735171579277628
4.811430839003257,7.97172581746895
5.000306842491082,7.273573389523364
5.196597302486189,6.635279274785696
5.400593278542364,6.0518459054726135
5.612597255954967,5.518679299048909
5.8329235942862,5.0315577595971055
6.06189899349756,4.586602947951419
6.29986297838068,4.180253072612977
6.547168402004727,3.8092367635185553
6.804181968927091,3.470549163477485
7.071284778942991,3.1614339115355183
7.348872892180382,2.8793636518592676
7.637357916378006,2.6220215909947466
7.937167617217536,2.3872846171949402
8.248746552614573,2.1732100415184052
8.572556731909314,1.9780198928942572
8.909078300934132,1.8000847679716991
9.258810253973934,1.6379117964801373
9.622271173675122,1.4901336361828896
9.999999999999984,1.3554970063680982
