k [1/Mpc],P(k) [Mpc^3]
0.0001,1035.1338992353215
0.00010392556829367125,1072.625346704414
0.00010800523745162529,1111.4712796977474
0.00011224505680853065,1151.7202534585072
0.00011665131316981963,1193.4225350709262
0.00012123054013376525,1236.6301208863142
0.00012598952777950273,1281.3967423832441
0.00013093533273536104,1327.7779996548543
0.00013607528864243335,1375.831437474838
0.00014141701702890234,1425.616610481847
0.00014696843861124463,1477.1951030339737
0.00015273778503907136,1530.6304955262863
0.00015873361110102093,1585.9885312555296
0.00016496480740980205,1643.337207993071
0.0001714406135851971,1702.7468515137907
0.00017817063195457305,1764.2901446054414
0.00018516484179121546,1828.0420091169547
0.000192433614111598,1894.0798189822183
0.00019998772705352857,1962.483487665784
0.0002078383818579757,2033.335519113158
0.00021599721947827182,2106.7211217098056
0.0002244763378413224,2182.7281162722215
0.0002332883097864157,2261.447102597144
0.00024244620170823283,2342.971469596226
0.0002519635929317015,2427.3972926923157
0.0002618545958474233,2514.8236385123355
0.0002721338768375308,2605.3525094101337
0.0002828166780230032,2699.0889621602564
0.0002939188398646886,2796.1411247064266
0.0003054568246515432,2896.6198889955945
0.00031744774091091926,3000.639339351331
0.00032990936877709396,3108.3167061836734
0.00034286018635565856,3219.772413880835
0.00035631939712285854,3335.1301707683397
0.000370306958400514,3454.5164036663105
0.00038484361094874304,3578.060753255632
0.0003999509097203664,3705.89601548571
0.00041565125582259895,3838.1580076551013
0.00043196792973341727,3974.9858836694766
0.0004489251258218605,4116.521538535266
0.0004665479882234472,4262.909942144472
0.000484862648123908,4414.299034335085
0.000503896262506515,4570.839202869287
0.0005236770544204653,4732.683891061238
0.0005442343548300266,4899.988930506567
0.0005655986461065005,5072.912669482434
0.0005878016072274912,5251.616031465844
0.0006108761607505036,5436.261587884704
0.0006348565216305217,5627.014249836628
0.0006597782479539537,5824.040182076352
0.0006856782936641739,6027.506535288176
0.0007125950633568407,6237.582030335155
0.0007405684692262436,6454.435491511031
0.0007696399902471156,6678.236571609945
0.0007998527336796708,6909.154331304891
0.000831251498989063,7147.356009793483
0.0008638828442740447,7393.008348431692
0.000897795155303332,7646.2748255788765
0.0009330387172620361,7907.316511039335
0.0009696657893145519,8176.291198140393
0.001007730682094461,8453.350790939116
0.0010472898382363582,8738.64333224476
0.0010884019160690055,9032.309788837454
0.0011311278765939214,9334.4841037536
0.001175531073878369,9645.293333183
0.0012216773489967915,9964.854013309106
0.0012696351276599736,10293.274108311858
0.0013194755216767058,10630.649817668456
0.0013712724343984,10977.06433028083
0.0014251026703029975,11332.588486356684
0.0014810460488806749,11697.274526112236
0.0015391855229902056,12071.158859013472
0.001599607301861487,12454.260198817878
0.0016624009789266115,12846.576866634834
0.0017276596646690358,13248.088336940906
0.0017954801246878305,13658.74961384193
0.0018659629231817451,14078.492291269355
0.001939212572065829,14507.22235844899
0.0020153376859417325,14944.814671220363
0.002094451143151469,15391.116904752427
0.002176670253153458,15845.94480586635
0.002262116930469025,16309.081856066005
0.002350917875457286,16780.27862295355
0.002443204762186487,17259.245909989488
0.0025391144336803463,17745.658762720785
0.002638789104828933,18239.151582229766
0.002742376573264949,18739.3163495789
0.0028500304385181063,19245.703745838997
0.0029619103297725525,19757.811103545588
0.0030781821425650787,20275.089437865907
0.003199018284775064,20796.937761548324
0.0033245979322709396,21322.697041615604
0.003455107294592217,21851.660589666666
0.0035907398910610534,22383.071321563413
0.0037316968377327513,22916.123276694863
0.0038781871456107214,23449.926252979752
0.0040304280305680515,23983.456961015596
0.00418864523543527,24515.637207484586
0.004353073364731888,25045.50019793447
0.00452395623253805,25572.158373935956
0.004701547224022131,26094.52434152792
0.004886109671160325,26610.884019323094
0.005077917243205399,27119.33319735252
0.005277254352483535,27618.25957437356
0.005484416576121017,28106.390465931134
0.005699711094326071,28582.34561273463
0.005923457145875801,29044.17971001734
0.006155986501483508,29489.725321009024
0.006397643955748424,29916.954121504536
0.0066487878384172625,30324.09653066748
0.0069097905457156435,30709.34862379372
0.007181039092537346,31070.474906307307
0.007462935686310132,31405.0228134701
0.007755898323389004,31710.459432536885
0.00806036140886134,31984.088546712934
0.008376776400682916,32223.20834265442
0.008705612479099857,32425.006061082266
0.009047357242349292,32586.626535300355
0.00940251742967013,32705.206666659822
0.009771619672696168,32777.653029148416
0.010155211276345676,32800.946767439855
0.010553861030365234,32771.929478196835
0.010968160052731372,32687.336169600214
0.011398722666160517,32544.077965543445
0.011846187309026826,32338.842078431226
0.012311217482038896,32068.56089867959
0.012794502732078732,31730.269562837646
0.013296759674662111,31320.987801297473
0.013818733056536317,30838.294195132916
0.014361196859990781,30279.682452669018
0.014924955450518284,29643.183022385034
0.015510844769528393,28927.437701695944
0.016119733573881575,28131.253991899317
0.01675252472408214,27254.664652675372
0.017410156523040152,26298.072262378566
0.018093604107387147,25262.861266252094
0.01880388089340914,24151.90210037705
0.019542040079740527,22968.519577220082
0.02030917620904734,21718.11519161818
0.021106426791015535,20407.151334969705
0.021934973989050584,19043.405693559023
0.02279604637318978,17637.0790549132
0.023690920741826323,16198.894331084339
0.02462092401494623,14742.004638441895
0.02558743520168586,13280.795504783558
0.02659188744512693,11830.181408686423
0.027635770147361564,10407.368198171569
0.028720631177978267,9028.947645362303
0.029848079169243254,7712.3212137793025
0.03101978590138095,6474.220967833588
0.03223748878149028,5328.582099919182
0.0335029934197723,4289.236537283097
0.03481817630688963,3367.0509996061755
0.03618498759642746,2569.542000927257
0.037605453996581675,1899.1684403057184
0.03908168177536263,1351.450955034212
0.04061585988376978,920.178343587363
0.04221026320156896,597.7645884716904
0.04386725591048496,370.46849773050013
0.0455892949998106,219.54464849898756
0.047378933909631396,125.18107968980172
0.049238826317067365,71.3289253804152
0.05117173007114603,44.9976936501975
0.05318051128214196,35.07992348250121
0.05526814857144601,37.47095933151343
0.057437737488265785,53.38496103220172
0.0596924950997073,87.59973733154246
0.0620357647610427,147.95175522449978
0.06447102107323864,239.43939314731367
0.06700187503509585,362.81502131642054
0.06963207939763882,511.17136064183893
0.0723655342286965,668.9340492967254
0.07520629269592405,812.9103634608251
0.07815856707684081,916.4627345569504
0.08122673500479707,954.770765631441
0.08441534596012978,913.2428256680477
0.0877291280161335,794.6954266534547
0.09117299484984914,621.254064619793
0.09475205302806537,428.1357590204226
0.09847160957933764,252.66705357772003
0.1023371798632519,121.86462339506402
0.10635449574860109,44.522719633592395
0.11052951411260206,11.359543363835519
0.1148684256737553,2.2131319779200282
0.1193776641714435,1.9258126409472354
0.1240639159058831,8.08291703499294
0.12893412965257148,32.504261990250576
0.13399552696593373,83.89977485503638
0.1392556128874462,153.87989028940598
0.14472218707411338,212.6824972531511
0.15040335536380234,227.66241278829014
0.15630754179458153,187.37878597144876
0.16244350109588662,114.35557910256236
0.16882033167003618,48.379491459922356
0.17544748908334581,12.945251404850445
0.1823348000868439,2.7484994557896543
0.189492477187382,2.9399118414444088
0.19693113379074215,12.713813196178693
0.20466179993919872,38.74724235677055
0.21269593866686892,69.1447222458488
0.22104546299710207,76.01058903808904
0.22972275360711503,51.831178764007454
0.23874067718606454,21.04349410435907
0.2481126055137766,5.657576721213504
0.25785243528842716,3.303113139030591
0.26797460873256895,9.044663553415376
0.27849413500806414,22.986134036818154
0.28942661247167484,31.302487038486497
0.3007882518043098,22.191686195724518
0.31259590004822796,8.704083831330903
0.324867065587837,3.6412358764395614
0.3376199441111335,5.608057962088132
0.35087344559027084,12.12684771955287
0.36464722232127456,14.071681091552101
0.37896169806447155,7.994302221085651
0.3938380983288488,3.6410274706580283
0.4092984818452433,4.197375621136899
0.4253657732750382,7.1993199646583586
0.44206379720285277,6.767052631412721
0.45941731346364734,3.671434798765459
0.47745205385661277,2.9695454293931633
0.4961947603002895,4.273180994125222
0.5156732244854959,4.0564486502019985
0.5359163290848509,2.650345659347621
0.556954090580013,2.264505874120137
0.5788177037701272,2.0594935676129347
0.6015395880274836,1.9216481516806199
0.6251534353689703,1.8199929611848704
0.6496942604146115,1.731027256119288
0.6751984523072497,1.6358083652759132
0.7017038286703824,1.5220415214598755
0.7292496916841444,1.3952349990156192
0.7578768863625915,1.2652527218644487
0.7876278611187046,1.1397265612869532
0.8185467307069019,1.0240046862782368
0.850679341636415,0.9214348744951215
0.8840733401525058,0.8327454133969444
0.9187782428863317,0.7553474826436756
0.9548455102782278,0.6867748668598649
0.9923286228832539,0.625116854444696
1.0312831606721837,0.5688966405335918
1.0717668854455022,0.5169925344566416
1.1138398264826193,0.46889025391881967
1.1575643695533022,0.4245797354605488
1.2030053494233226,0.38400964915682256
1.2502301459914542,0.34706716446992
1.299308784200415,0.3135935561390538
1.3503140378698726,0.2833910063157333
1.4033215376054824,0.2561651478798245
1.4584098829439835,0.2315940950381683
1.5156607589006013,0.20939438086325785
1.575159057091621,0.18931686587445248
1.6369930016117014,0.1711421452423072
1.7012542798525885,0.15467897344614673
1.7680381784572046,0.13976909847345595
1.8374437246107238,0.12627212961711656
1.9095738328780953,0.11405943036583586
1.9845354578058014,0.10301326150291294
2.0624397525140905,0.0930259702675796
2.143402233514853,0.08399860611548574
2.227542951999554,0.07583965348828159
2.314986671851158,0.06846605932604365
2.405863054644063,0.06180269265785005
2.5003068519063225,0.055781588401894025
2.598458104929248,0.050341267904763745
2.7004623524206774,0.04542625183282915
2.806470846309834,0.04098646527267024
2.916640776023701,0.036976539307352584
3.031135501567576,0.03335536690021898
3.150124795755327,0.030085710558023764
3.2737850959485697,0.027133839031256483
3.4022997656780634,0.024469147392903717
3.5358593665351745,0.02206391290901743
3.6746619407366854,0.019893069912680476
3.8189133047818515,0.017933957321263704
3.968827354637162,0.016166089370850498
4.1246263829013445,0.014570957042420403
4.286541408420921,0.01313186771716974
4.4548125188449825,0.011833731423768873
4.629689226627261,0.010662896017753477
4.811430839003257,0.00960701270838639
5.000306842491082,0.008654913842070159
5.196597302486189,0.007796494294486392
5.400593278542364,0.007022605342414133
5.612597255954967,0.0063249827820514425
5.8329235942862,0.00569616456597604
6.06189899349756,0.005129413501389452
6.29986297838068,0.004618647348192989
6.547168402004727,0.004158375707108827
6.804181968927091,0.0037436428275501705
7.071284778942991,0.0033699757947121332
7.348872892180382,0.0030333378260466227
7.637357916378006,0.0027300860587878687
7.937167617217536,0.002456933842837154
8.248746552614573,0.002210919813455412
8.572556731909314,0.0019893731246371916
8.909078300934132,0.0017898826373235204
9.258810253973934,0.0016102720163390003
9.622271173675122,0.0014485772030891093
9.999999999999984,0.00130302446886623
