k [1/Mpc],P(k) [Mpc^3]
0.0001,565.0330231507522
0.00010392556829367125,587.2025952021547
0.00010800523745162529,610.2411060134405
0.00011224505680853065,634.1825185263851
0.00011665131316981963,659.0620920598858
0.00012123054013376525,684.9164015832664
0.00012598952777950273,711.7834329200481
0.00013093533273536104,739.7026966179194
0.00013607528864243335,768.7152746843926
0.00014141701702890234,798.8638070928243
0.00014696843861124463,830.1924580927862
0.00015273778503907136,862.7470646331112
0.00015873361110102093,896.575293535246
0.00016496480740980205,931.7267205754353
0.0001714406135851971,968.252801757489
0.00017817063195457305,1006.2067832087581
0.00018516484179121546,1045.643878507144
0.000192433614111598,1086.6214623014678
0.00019998772705352857,1129.1991929876679
0.0002078383818579757,1173.4389937175613
0.00021599721947827182,1219.4049731015893
0.0002244763378413224,1267.163574979931
0.0002332883097864157,1316.783740675781
0.00024244620170823283,1368.3370019028027
0.0002519635929317015,1421.897561071193
0.0002618545958474233,1477.542246783469
0.0002721338768375308,1535.350629320316
0.0002828166780230032,1595.4052125238031
0.0002939188398646886,1657.7915381352414
0.0003054568246515432,1722.598282884001
0.00031744774091091926,1789.917137596892
0.00032990936877709396,1859.8428595179964
0.00034286018635565856,1932.4735944699062
0.00035631939712285854,2007.9110119470688
0.000370306958400514,2086.2604090377904
0.00038484361094874304,2167.630585333994
0.0003999509097203664,2252.1337738031098
0.00041565125582259895,2339.8860482740106
0.00043196792973341727,2431.007378925032
0.0004489251258218605,2525.621784516337
0.0004665479882234472,2623.8573019338255
0.000484862648123908,2725.845788210357
0.000503896262506515,2831.723365051772
0.0005236770544204653,2941.630337505016
0.0005442343548300266,3055.7113264583113
0.0005655986461065005,3174.115420538112
0.0005878016072274912,3296.995864775617
0.0006108761607505036,3424.5104987521554
0.0006348565216305217,3556.821704400486
0.0006597782479539537,3694.0964172966706
0.0006856782936641739,3836.5063192473744
0.0007125950633568407,3984.227097473443
0.0007405684692262436,4137.43899632772
0.0007696399902471156,4296.326895644328
0.0007998527336796708,4461.08009424598
0.000831251498989063,4631.892647871288
0.0008638828442740447,4808.962333726552
0.000897795155303332,4992.491027266713
0.0009330387172620361,5182.684789013959
0.0009696657893145519,5379.752928468179
0.001007730682094461,5583.908838912352
0.0010472898382363582,5795.368689892831
0.0010884019160690055,6014.351359124123
0.0011311278765939214,6241.078834397952
0.001175531073878369,6475.774242265549
0.0012216773489967915,6718.6630526505
0.0012696351276599736,6969.972022875938
0.0013194755216767058,7229.928389175603
0.0013712724343984,7498.760483260114
0.0014251026703029975,7776.6945101001
0.0014810460488806749,8063.955742046894
0.0015391855229902056,8360.767929664302
0.001599607301861487,8667.351425016084
0.0016624009789266115,8983.924215251744
0.0017276596646690358,9310.6976256561
0.0017954801246878305,9647.87675895897
0.0018659629231817451,9995.661115831137
0.001939212572065829,10354.241999854628
0.0020153376859417325,10723.803261617257
0.002094451143151469,11104.515929227098
0.002176670253153458,11496.537015479142
0.002262116930469025,11900.01185844337
0.002350917875457286,12315.071260350309
0.002443204762186487,12741.831632348545
0.0025391144336803463,13180.390416556962
0.002638789104828933,13630.822871350858
0.002742376573264949,14093.184465319802
0.0028500304385181063,14567.505746429586
0.0029619103297725525,15053.792902770385
0.0030781821425650787,15552.02458666749
0.003199018284775064,16062.146400565465
0.0033245979322709396,16584.074043191806
0.003455107294592217,17117.686116179193
0.0035907398910610534,17662.82398222493
0.0037316968377327513,18219.289595935526
0.0038781871456107214,18786.834175951644
0.0040304280305680515,19365.16572687448
0.00418864523543527,19953.9470588341
0.004353073364731888,20552.79390527874
0.00452395623253805,21161.26578456102
0.004701547224022131,21778.825655321994
0.004886109671160325,22404.867577609697
0.005077917243205399,23038.79106378593
0.005277254352483535,23680.03549404946
0.005484416576121017,24327.96323919152
0.005699711094326071,24981.576239543112
0.005923457145875801,25639.650067899252
0.006155986501483508,26300.999243483395
0.006397643955748424,26964.650721688846
0.0066487878384172625,27629.59550487578
0.0069097905457156435,28294.509329157845
0.007181039092537346,28957.80777460423
0.007462935686310132,29617.879782486114
0.007755898323389004,30273.256855478983
0.00806036140886134,30922.449895492337
0.008376776400682916,31563.7357483164
0.008705612479099857,32195.13966019182
0.009047357242349292,32814.59289024107
0.00940251742967013,33419.89570631883
0.009771619672696168,34008.76201812516
0.010155211276345676,34578.80551942955
0.010553861030365234,35127.52443321184
0.010968160052731372,35652.35980825099
0.011398722666160517,36150.64713240356
0.011846187309026826,36619.66458084565
0.012311217482038896,37056.61105040189
0.012794502732078732,37458.52438661634
0.013296759674662111,37822.43566911591
0.013818733056536317,38145.33538366156
0.014361196859990781,38424.21771914813
0.014924955450518284,38656.13282058032
0.015510844769528393,38838.12625437038
0.016119733573881575,38967.36320121198
0.01675252472408214,39041.14354620634
0.017410156523040152,39056.930593597564
0.018093604107387147,39012.438203596284
0.01880388089340914,38905.68954616504
0.019542040079740527,38735.033564947524
0.02030917620904734,38499.27045756358
0.021106426791015535,38197.74185450623
0.021934973989050584,37830.240724747935
0.02279604637318978,37397.38221798662
0.023690920741826323,36900.3955864506
0.02462092401494623,36341.22126769286
0.02558743520168586,35722.944480840946
0.02659188744512693,35049.11248458111
0.027635770147361564,34324.49459273226
0.028720631177978267,33554.73548281967
0.029848079169243254,32745.936403951055
0.03101978590138095,31905.754844944793
0.03223748878149028,31041.92691877194
0.0335029934197723,30162.80695875528
0.03481817630688963,29277.34623037676
0.03618498759642746,28394.092359628947
0.037605453996581675,27522.650775796923
0.03908168177536263,26672.22662910669
0.04061585988376978,25849.854927116587
0.04221026320156896,25059.873236143685
0.04386725591048496,24306.145091466646
0.0455892949998106,23594.96090375628
0.047378933909631396,22933.397088060843
0.049238826317067365,22321.7267233296
0.05117173007114603,21748.457261686577
0.05318051128214196,21202.113124466905
0.05526814857144601,20673.450332365406
0.057437737488265785,20153.832271352076
0.0596924950997073,19632.537174832738
0.0620357647610427,19098.296831455034
0.06447102107323864,18538.196044331795
0.06700187503509585,17938.42887407391
0.06963207939763882,17283.485159030544
0.0723655342286965,16565.96552511916
0.07520629269592405,15788.518464989153
0.07815856707684081,14965.54346166848
0.08122673500479707,14119.163527270723
0.08441534596012978,13275.741331844272
0.0877291280161335,12461.167772814299
0.09117299484984914,11698.497252432227
0.09475205302806537,11007.551888601463
0.09847160957933764,10403.576651194675
0.1023371798632519,9893.266329703667
0.10635449574860109,9469.98086839363
0.11052951411260206,9112.728884738326
0.1148684256737553,8788.427998799667
0.1193776641714435,8460.43656419138
0.1240639159058831,8097.286052200572
0.12893412965257148,7681.114670085499
0.13399552696593373,7213.679857718099
0.1392556128874462,6715.446668780353
0.14472218707411338,6217.653868244113
0.15040335536380234,5754.803816424662
0.15630754179458153,5358.249599130876
0.16244350109588662,5042.5211070670275
0.16882033167003618,4793.160534170522
0.17544748908334581,4575.722874509021
0.1823348000868439,4354.828811431937
0.189492477187382,4104.4428685155135
0.19693113379074215,3820.348745754036
0.20466179993919872,3526.486920030903
0.21269593866686892,3255.3917905302383
0.22104546299710207,3029.2819383059755
0.22972275360711503,2848.2927911953275
0.23874067718606454,2690.188281873366
0.2481126055137766,2529.1279465534344
0.25785243528842716,2352.3124279536346
0.26797460873256895,2172.0453306809322
0.27849413500806414,2008.907916911643
0.28942661247167484,1871.6891042583834
0.3007882518043098,1752.2472391554284
0.31259590004822796,1634.5719450645713
0.324867065587837,1513.9458567838926
0.3376199441111335,1398.9202265041436
0.35087344559027084,1297.5961732366045
0.36464722232127456,1207.1094866449907
0.37896169806447155,1120.100492374484
0.3938380983288488,1035.3733181263678
0.4092984818452433,957.4482732992237
0.4253657732750382,886.9973228154629
0.44206379720285277,820.9409279436595
0.45941731346364734,758.2298985485816
0.47745205385661277,700.3884654756625
0.4961947603002895,647.2028108870855
0.5156732244854959,597.3949177544259
0.5359163290848509,551.0563018638044
0.556954090580013,508.3138427440695
0.5788177037701272,468.59700352048435
0.6015395880274836,431.7582075256016
0.6251534353689703,397.71870083539864
0.6496942604146115,366.17569280083615
0.6751984523072497,336.99866910251217
0.7017038286703824,310.0286993144704
0.7292496916841444,285.10938566484356
0.7578768863625915,262.0944946511529
0.7876278611187046,240.84737422406312
0.8185467307069019,221.24041911890632
0.850679341636415,203.15504417422568
0.8840733401525058,186.4810106843092
0.9187782428863317,171.11529686455208
0.9548455102782278,156.9616740112733
0.9923286228832539,143.93033102813524
1.0312831606721837,131.9375010271183
1.0717668854455022,120.90498249051363
1.1138398264826193,110.75990147049525
1.1575643695533022,101.4345098790599
1.2030053494233226,92.86586660577426
1.2502301459914542,84.99553215122421
1.299308784200415,77.76927563199843
1.3503140378698726,71.13677918352246
1.4033215376054824,65.05140253569938
1.4584098829439835,59.46995195809539
1.5156607589006013,54.3524470272109
1.575159057091621,49.66190102745613
1.6369930016117014,45.36411055241945
1.7012542798525885,41.42744900733536
1.7680381784572046,37.822703271064725
1.8374437246107238,34.52290827498422
1.9095738328780953,31.503185427111287
1.9845354578058014,28.74059153821573
2.0624397525140905,26.213975831742122
2.143402233514853,23.90384538919468
2.227542951999554,21.792248281316855
2.314986671851158,19.86265971775618
2.405863054644063,18.09987477472669
2.5003068519063225,16.489908556376026
2.598458104929248,15.019900612432425
2.7004623524206774,13.678027331532055
2.806470846309834,12.453428013627507
2.916640776023701,11.336130684695354
3.031135501567576,10.316982582286002
3.150124795755327,9.38758573770851
3.2737850959485697,8.54023648960164
3.4022997656780634,7.767870444312035
3.5358593665351745,7.064012788911434
3.6746619407366854,6.42273106003397
3.8189133047818515,5.838591423225669
3.968827354637162,5.306618241266534
4.1246263829013445,4.822255796940675
4.286541408420921,4.381334542027477
4.4548125188449825,3.980040516539595
4.629689226627261,3.614886029987784
4.811430839003257,3.2826826276298924
5.000306842491082,2.980516179372515
5.196597302486189,2.70572375094623
5.400593278542364,2.455872777370572
5.612597255954967,2.228741883112132
5.8329235942862,2.0223030619232256
6.06189899349756,1.8347053063802494
6.29986297838068,1.6642594466651646
6.547168402004727,1.5094237949545917
6.804181968927091,1.368792227642103
7.071284778942991,1.2410828537417482
7.348872892180382,1.1251272855240193
7.637357916378006,1.0198608106260645
7.937167617217536,0.9243136874519993
8.248746552614573,0.8376035473118151
8.572556731909314,0.7589266744198926
8.909078300934132,0.6875509006941322
9.258810253973934,0.6228094075611472
9.622271173675122,0.564095043049787
9.999999999999984,0.5108540338067632
