k [1/Mpc],P(k) [Mpc^3]
0.0001,386.2920311342784
0.00010392556829367125,402.60170370106414
0.00010800523745162529,419.59871068473603
0.00011224505680853065,437.3118727419943
0.00011665131316981963,455.7711779937585
0.00012123054013376525,475.00785249998063
0.00012598952777950273,495.05440597229546
0.00013093533273536104,515.9446854025722
0.00013607528864243335,537.7139266655739
0.00014141701702890234,560.3987888623832
0.00014696843861124463,584.0374296373683
0.00015273778503907136,608.6695419967052
0.00015873361110102093,634.3364065244509
0.00016496480740980205,661.080980609698
0.0001714406135851971,688.9479504703578
0.00017817063195457305,717.9838078465262
0.00018516484179121546,748.2369006883847
0.000192433614111598,779.7574764582823
0.00019998772705352857,812.5977872804664
0.0002078383818579757,846.8120753825407
0.00021599721947827182,882.4566698499616
0.0002244763378413224,919.5901173164217
0.0002332883097864157,958.2732447982834
0.00024244620170823283,998.5692584781625
0.0002519635929317015,1040.5437205392598
0.0002618545958474233,1084.2646059525594
0.0002721338768375308,1129.8024733341056
0.0002828166780230032,1177.230431177139
0.0002939188398646886,1226.624301661628
0.0003054568246515432,1278.0626895033283
0.00031744774091091926,1331.6270029328389
0.00032990936877709396,1387.4016273860573
0.00034286018635565856,1445.4737933115475
0.00035631939712285854,1505.9337268715212
0.000370306958400514,1568.874818865309
0.00038484361094874304,1634.3935719464637
0.0003999509097203664,1702.5898146947368
0.00041565125582259895,1773.5665185552975
0.00043196792973341727,1847.4298222649522
0.0004489251258218605,1924.289345937524
0.0004665479882234472,2004.2580747619631
0.000484862648123908,2087.4525621655316
0.000503896262506515,2173.9927627341303
0.0005236770544204653,2264.001815095339
0.0005442343548300266,2357.6065027168092
0.0005655986461065005,2454.9370915069057
0.0005878016072274912,2556.1274561572873
0.0006108761607505036,2661.3149788925375
0.0006348565216305217,2770.639960443144
0.0006597782479539537,2884.2462054488983
0.0006856782936641739,3002.280682884864
0.0007125950633568407,3124.8934520630364
0.0007405684692262436,3252.237841319928
0.0007696399902471156,3384.46948411341
0.0007998527336796708,3521.746849801221
0.000831251498989063,3664.230707722145
0.0008638828442740447,3812.0834070882893
0.000897795155303332,3965.469589997891
0.0009330387172620361,4124.554777832384
0.0009696657893145519,4289.5056259374205
0.001007730682094461,4460.489647233625
0.0010472898382363582,4637.6734629795355
0.0010884019160690055,4821.2239248533515
0.0011311278765939214,5011.306555118972
0.001175531073878369,5208.085050643894
0.0012216773489967915,5411.721779274072
0.0012696351276599736,5622.375971424403
0.0013194755216767058,5840.204134102467
0.0013712724343984,6065.357813780394
0.0014251026703029975,6297.981504920619
0.0014810460488806749,6538.214374704941
0.0015391855229902056,6786.187805668318
0.001599607301861487,7042.025375192046
0.0016624009789266115,7305.84188398253
0.0017276596646690358,7577.740455568781
0.0017954801246878305,7857.813646221869
0.0018659629231817451,8146.140433474937
0.001939212572065829,8442.785165545005
0.0020153376859417325,8747.797758555917
0.002094451143151469,9061.210190439977
0.002176670253153458,9383.037094115462
0.002262116930469025,9713.273216854643
0.002350917875457286,10051.890949644576
0.002443204762186487,10398.841266610541
0.0025391144336803463,10754.05026826327
0.002638789104828933,11117.41892583897
0.002742376573264949,11488.82135134343
0.0028500304385181063,11868.100981182251
0.0029619103297725525,12255.072147541017
0.0030781821425650787,12649.518377234275
0.003199018284775064,13051.191246983133
0.0033245979322709396,13459.808549038546
0.003455107294592217,13875.048395334745
0.0035907398910610534,14296.55198550627
0.0037316968377327513,14723.926448570497
0.0038781871456107214,15156.74515440926
0.0040304280305680515,15594.538882021345
0.00418864523543527,16036.758125328344
0.004353073364731888,16482.790570541383
0.00452395623253805,16932.027956228987
0.004701547224022131,17383.935776815895
0.004886109671160325,17837.949537490585
0.005077917243205399,18293.221892652135
0.005277254352483535,18748.654475176187
0.005484416576121017,19203.13347046069
0.005699711094326071,19655.72404778899
0.005923457145875801,20105.51110327658
0.006155986501483508,20551.557085561475
0.006397643955748424,20992.908241629986
0.0066487878384172625,21428.56574526279
0.0069097905457156435,21857.37164191648
0.007181039092537346,22278.076803368203
0.007462935686310132,22689.38116059439
0.007755898323389004,23089.918283078077
0.00806036140886134,23478.29057391187
0.008376776400682916,23853.098765036833
0.008705612479099857,24212.943691293385
0.009047357242349292,24556.404008373785
0.00940251742967013,24882.002205835714
0.009771619672696168,25188.25063819225
0.010155211276345676,25473.642347000656
0.010553861030365234,25736.65286500944
0.010968160052731372,25975.776422007417
0.011398722666160517,26189.503301192442
0.011846187309026826,26376.35384297384
0.012311217482038896,26534.889967618874
0.012794502732078732,26663.710999803672
0.013296759674662111,26761.49319391373
0.013818733056536317,26827.00283509206
0.014361196859990781,26859.109842656522
0.014924955450518284,26856.806125538646
0.015510844769528393,26819.226611890328
0.016119733573881575,26745.65261282059
0.01675252472408214,26635.576921231204
0.017410156523040152,26488.71861463208
0.018093604107387147,26304.994700123625
0.01880388089340914,26084.66172141048
0.019542040079740527,25828.2088337999
0.02030917620904734,25536.433598270538
0.021106426791015535,25210.55046620578
0.021934973989050584,24851.970826571567
0.02279604637318978,24462.58534871149
0.023690920741826323,24044.59599757136
0.02462092401494623,23600.4239124665
0.02558743520168586,23133.011581052757
0.02659188744512693,22645.37616733023
0.027635770147361564,22140.76861337157
0.028720631177978267,21622.633960618656
0.029848079169243254,21094.352818900916
0.03101978590138095,20559.575048381423
0.03223748878149028,20021.85353438319
0.0335029934197723,19484.053021012252
0.03481817630688963,18948.102852716962
0.03618498759642746,18415.837710592266
0.037605453996581675,17890.23575369045
0.03908168177536263,17374.72536179031
0.04061585988376978,16870.640985344406
0.04221026320156896,16374.16517519022
0.04386725591048496,15881.018759868675
0.0455892949998106,15387.496439762086
0.047378933909631396,14890.453789560452
0.049238826317067365,14387.874444341747
0.05117173007114603,13881.289132430575
0.05318051128214196,13373.118245674115
0.05526814857144601,12863.167192761513
0.057437737488265785,12348.647123797551
0.0596924950997073,11828.035069420372
0.0620357647610427,11302.107247433289
0.06447102107323864,10774.291054506302
0.06700187503509585,10254.008779062284
0.06963207939763882,9750.0800157342
0.0723655342286965,9269.171610401081
0.07520629269592405,8814.451217916134
0.07815856707684081,8385.679626435072
0.08122673500479707,7983.124166901922
0.08441534596012978,7606.80961860721
0.0877291280161335,7254.93340826487
0.09117299484984914,6920.824736129332
0.09475205302806537,6594.688148179466
0.09847160957933764,6267.164398179806
0.1023371798632519,5934.477263555365
0.10635449574860109,5599.726450020256
0.11052951411260206,5270.044963169807
0.1148684256737553,4954.115976620677
0.1193776641714435,4656.573861262469
0.1240639159058831,4379.051692761075
0.12893412965257148,4122.502302860958
0.13399552696593373,3887.6146566440175
0.1392556128874462,3668.0949812009703
0.14472218707411338,3455.2124838400846
0.15040335536380234,3246.5231582143724
0.15630754179458153,3043.516441609876
0.16244350109588662,2847.469355562517
0.16882033167003618,2662.529262210974
0.17544748908334581,2491.7120957657007
0.1823348000868439,2333.1749534301057
0.189492477187382,2184.109470424766
0.19693113379074215,2042.0705387468804
0.20466179993919872,1906.798834421741
0.21269593866686892,1778.3554940595066
0.22104546299710207,1657.8491809943548
0.22972275360711503,1545.626955074101
0.23874067718606454,1440.3353834818438
0.2481126055137766,1341.2227993773013
0.25785243528842716,1247.8888393620018
0.26797460873256895,1160.4335264139288
0.27849413500806414,1078.6164221667098
0.28942661247167484,1002.162554106544
0.3007882518043098,930.4809795063828
0.31259590004822796,863.4844449104638
0.324867065587837,800.9277115652001
0.3376199441111335,742.5284344979578
0.35087344559027084,688.0342345911854
0.36464722232127456,637.2373558274751
0.37896169806447155,589.9290345228438
0.3938380983288488,545.8817263575171
0.4092984818452433,504.90194082886694
0.4253657732750382,466.8015831065605
0.44206379720285277,431.39819153859486
0.45941731346364734,398.5150477124691
0.47745205385661277,367.9854679445153
0.4961947603002895,339.65311808639353
0.5156732244854959,313.37041134070176
0.5359163290848509,288.9988240366986
0.556954090580013,266.41861248905855
0.5788177037701272,245.5074138362417
0.6015395880274836,226.15328741345863
0.6251534353689703,208.256535008044
0.6496942604146115,191.7122885153109
0.6751984523072497,176.4234780454534
0.7017038286703824,162.29823637984146
0.7292496916841444,149.24979550539308
0.7578768863625915,137.20402847895858
0.7876278611187046,126.08891817920276
0.8185467307069019,115.83699826352974
0.850679341636415,106.38523945810478
0.8840733401525058,97.67480290320667
0.9187782428863317,89.65076849076827
0.9548455102782278,82.26174764396369
0.9923286228832539,75.45985961922209
1.0312831606721837,69.20060684181438
1.0717668854455022,63.44265724082646
1.1138398264826193,58.14763855559557
1.1575643695533022,53.27997066706359
1.2030053494233226,48.80670204683716
1.2502301459914542,44.69727219063391
1.299308784200415,40.923345350672605
1.3503140378698726,37.45866285902096
1.4033215376054824,34.27890128472596
1.4584098829439835,31.361501790449015
1.5156607589006013,28.685569751757615
1.575159057091621,26.23180036743341
1.6369930016117014,23.982365895328527
1.7012542798525885,21.92080894929723
1.7680381784572046,20.031945877404826
1.8374437246107238,18.301784162851582
1.9095738328780953,16.717421127093555
1.9845354578058014,15.266958719471733
2.0624397525140905,13.939429735346925
2.143402233514853,12.724728962330843
2.227542951999554,11.61354349715633
2.314986671851158,10.597291041837245
2.405863054644063,9.66807597054509
2.5003068519063225,8.81863787278919
2.598458104929248,8.042302547149939
2.7004623524206774,7.332936709739672
2.806470846309834,6.684907418256141
2.916640776023701,6.093041934141579
3.031135501567576,5.552590274379694
3.150124795755327,5.059191992815881
3.2737850959485697,4.6088454663586305
3.4022997656780634,4.1978787275180665
3.5358593665351745,3.822921268749193
3.6746619407366854,3.480882977794025
3.8189133047818515,3.168932396736816
3.968827354637162,2.8844757130308154
4.1246263829013445,2.625137405845299
4.286541408420921,2.388742979838486
4.4548125188449825,2.1733025610135543
4.629689226627261,1.9769947396938348
4.811430839003257,1.7981526567903843
5.000306842491082,1.6352512767529073
5.196597302486189,1.4868956028635965
5.400593278542364,1.3518093310182113
5.612597255954967,1.2288254512886816
5.8329235942862,1.1168775512435727
6.06189899349756,1.0149913543396551
6.29986297838068,0.9222769441866072
6.547168402004727,0.8379215521133431
6.804181968927091,0.7611828717783344
7.071284778942991,0.6913833202152142
7.348872892180382,0.6279045650977034
7.637357916378006,0.5701824459242245
7.937167617217536,0.5177023305796887
8.248746552614573,0.46999519125995376
8.572556731909314,0.42663363287783446
8.909078300934132,0.387227806310572
9.258810253973934,0.35142216154637396
9.622271173675122,0.3188925036648612
9.999999999999984,0.2893431372139907
