k [1/Mpc],P(k) [Mpc^3]
0.0001,239.62135275263344
0.00010392556829367125,250.43944091182468
0.00010800523745162529,261.7433811585591
0.00011224505680853065,273.55466981442316
0.00011665131316981963,285.89572126013275
0.00012123054013376525,298.7899093273394
0.00012598952777950273,312.26158071251245
0.00013093533273536104,326.33605826627803
0.00013607528864243335,341.0397256170063
0.00014141701702890234,356.40006676965237
0.00014696843861124463,372.44571137288875
0.00015273778503907136,389.20645351691365
0.00015873361110102093,406.71322406628144
0.00016496480740980205,424.99819926177247
0.0001714406135851971,444.0948288497285
0.00017817063195457305,464.0378782404345
0.00018516484179121546,484.86348136212325
0.000192433614111598,506.6090927840103
0.00019998772705352857,529.313598083295
0.0002078383818579757,553.0173148363909
0.00021599721947827182,577.7619932470009
0.0002244763378413224,603.5909323570825
0.0002332883097864157,630.5489068430888
0.00024244620170823283,658.6822669566012
0.0002519635929317015,688.0389567907864
0.0002618545958474233,718.6684515146728
0.0002721338768375308,750.6219056312101
0.0002828166780230032,783.9519935247854
0.0002939188398646886,818.7129812940675
0.0003054568246515432,854.9608291992664
0.00031744774091091926,892.7530777821745
0.00032990936877709396,932.1489869697875
0.00034286018635565856,973.2093289729687
0.00035631939712285854,1015.9963595639548
0.000370306958400514,1060.5739842186122
0.00038484361094874304,1107.007525147918
0.0003999509097203664,1155.3638695032375
0.00041565125582259895,1205.7113375094532
0.00043196792973341727,1258.119538348869
0.0004489251258218605,1312.659503117207
0.0004665479882234472,1369.403238249646
0.000484862648123908,1428.4238533336215
0.000503896262506515,1489.795485525365
0.0005236770544204653,1553.5929589173168
0.0005442343548300266,1619.891964839241
0.0005655986461065005,1688.7684686444709
0.0005878016072274912,1760.298678410704
0.0006108761607505036,1834.558913589597
0.0006348565216305217,1911.624663148593
0.0006597782479539537,1991.5710642259469
0.0006856782936641739,2074.4721564797364
0.0007125950633568407,2160.4005327974337
0.0007405684692262436,2249.4273590065864
0.0007696399902471156,2341.6206490015634
0.0007998527336796708,2437.0458982738546
0.000831251498989063,2535.765419528648
0.0008638828442740447,2637.8374640810976
0.000897795155303332,2743.3165606561356
0.0009330387172620361,2852.251734293898
0.0009696657893145519,2964.6866641370966
0.001007730682094461,3080.6591472595205
0.0010472898382363582,3200.199645043637
0.0010884019160690055,3323.3318772774664
0.0011311278765939214,3450.072397365251
0.001175531073878369,3580.4300327148812
0.0012216773489967915,3714.4047117334303
0.0012696351276599736,3851.9853448505273
0.0013194755216767058,3993.15047977584
0.0013712724343984,4137.866157506132
0.0014251026703029975,4286.084957996684
0.0014810460488806749,4437.747158707593
0.0015391855229902056,4592.7808344985915
0.001599607301861487,4751.100795960636
0.0016624009789266115,4912.607841807349
0.0017276596646690358,5077.188230215266
0.0017954801246878305,5244.712733467304
0.0018659629231817451,5415.033910440197
0.001939212572065829,5587.9866122925205
0.0020153376859417325,5763.388740291356
0.002094451143151469,5941.041079394143
0.002176670253153458,6120.726703945353
0.002262116930469025,6302.210482472043
0.002350917875457286,6485.238947557433
0.002443204762186487,6669.540683838511
0.0025391144336803463,6854.827160327365
0.002638789104828933,7040.791908791652
0.002742376573264949,7227.106949834843
0.0028500304385181063,7413.422609153994
0.0029619103297725525,7599.371952194087
0.0030781821425650787,7784.574586949096
0.003199018284775064,7968.634583438609
0.0033245979322709396,8151.110064676511
0.003455107294592217,8331.496045051716
0.0035907398910610534,8509.28257162923
0.0037316968377327513,8684.091741416258
0.0038781871456107214,8855.613058185614
0.0040304280305680515,9023.375338017373
0.00418864523543527,9186.535681080675
0.004353073364731888,9344.19047697037
0.00452395623253805,9495.660547237845
0.004701547224022131,9640.438113052305
0.004886109671160325,9778.0203445521
0.005077917243205399,9907.897964756925
0.005277254352483535,10029.563792027468
0.005484416576121017,10142.406153640954
0.005699711094326071,10245.703303009284
0.005923457145875801,10338.728865296542
0.006155986501483508,10420.723761277543
0.006397643955748424,10490.933093825422
0.0066487878384172625,10548.614673392112
0.0069097905457156435,10593.039194233193
0.007181039092537346,10623.505646649466
0.007462935686310132,10639.279874782735
0.007755898323389004,10639.644341529742
0.00806036140886134,10623.908518295571
0.008376776400682916,10591.373680200766
0.008705612479099857,10541.406132270817
0.009047357242349292,10473.33108127768
0.00940251742967013,10386.489538416234
0.009771619672696168,10280.313010715174
0.010155211276345676,10154.25236745118
0.010553861030365234,10007.895277567513
0.010968160052731372,9840.89974429856
0.011398722666160517,9653.014363562057
0.011846187309026826,9444.173397353881
0.012311217482038896,9214.358323388144
0.012794502732078732,8963.76648877639
0.013296759674662111,8692.805297209376
0.013818733056536317,8402.069585115763
0.014361196859990781,8092.465779301472
0.014924955450518284,7765.100142263822
0.015510844769528393,7421.372318867772
0.016119733573881575,7063.0302104397415
0.01675252472408214,6692.137808588097
0.017410156523040152,6311.072461591503
0.018093604107387147,5922.556470703025
0.01880388089340914,5529.558275476288
0.019542040079740527,5135.2979397433055
0.02030917620904734,4743.426381022871
0.021106426791015535,4357.498373459438
0.021934973989050584,3981.165769061106
0.02279604637318978,3617.9710422547146
0.023690920741826323,3271.1703023256914
0.02462092401494623,2944.8706585451896
0.02558743520168586,2642.264927386011
0.02659188744512693,2365.5317854543214
0.027635770147361564,2116.076827704311
0.028720631177978267,1894.3041459511626
0.029848079169243254,1701.170880491639
0.03101978590138095,1537.0527932997288
0.03223748878149028,1401.5206494680779
0.0335029934197723,1294.052611308049
0.03481817630688963,1213.936032802831
0.03618498759642746,1159.29172037686
0.037605453996581675,1128.1642947967432
0.03908168177536263,1118.6070862258607
0.04061585988376978,1126.6831919295264
0.04221026320156896,1148.8248617332943
0.04386725591048496,1182.0658870673983
0.0455892949998106,1222.9624941884704
0.047378933909631396,1263.5536203916704
0.049238826317067365,1293.3960449776337
0.05117173007114603,1303.899921646649
0.05318051128214196,1288.4123825458394
0.05526814857144601,1243.6064962530174
0.057437737488265785,1168.6782288952022
0.0596924950997073,1065.6695496245459
0.0620357647610427,940.4651894333775
0.06447102107323864,803.3100960980555
0.06700187503509585,667.4818405856345
0.06963207939763882,546.2596196129721
0.0723655342286965,445.9906140159156
0.07520629269592405,371.37812576920015
0.07815856707684081,326.4644258542144
0.08122673500479707,307.4192422237833
0.08441534596012978,309.64041203660116
0.0877291280161335,328.5388721865015
0.09117299484984914,356.92921249873933
0.09475205302806537,384.66228138866046
0.09847160957933764,398.88013599909226
0.1023371798632519,388.30918188333413
0.10635449574860109,351.0218266365525
0.11052951411260206,296.5535591793568
0.1148684256737553,238.41084591329118
0.1193776641714435,188.91814600944912
0.1240639159058831,156.95552425649615
0.12893412965257148,144.08217241315597
0.13399552696593373,146.2602301197231
0.1392556128874462,156.84621811331508
0.14472218707411338,166.02011976444726
0.15040335536380234,163.75269536867967
0.15630754179458153,147.1472758246668
0.16244350109588662,122.26590806211246
0.16882033167003618,100.12961039791676
0.17544748908334581,87.15564579372686
0.1823348000868439,83.79505033050707
0.189492477187382,85.7155466842798
0.19693113379074215,85.62589055832414
0.20466179993919872,79.22503252653972
0.21269593866686892,68.36482526213206
0.22104546299710207,58.92976747231456
0.22972275360711503,54.0476384003474
0.23874067718606454,52.522749074273506
0.2481126055137766,50.57045431431593
0.25785243528842716,46.09437289657581
0.26797460873256895,40.772299616815495
0.27849413500806414,37.02839366917105
0.28942661247167484,34.91960694988469
0.3007882518043098,32.74898052768901
0.31259590004822796,29.780903353915235
0.324867065587837,26.97054967538888
0.3376199441111335,24.960301045848546
0.35087344559027084,23.17580615619734
0.36464722232127456,21.196188875894205
0.37896169806447155,19.37088130970663
0.3938380983288488,17.868679946282594
0.4092984818452433,16.434190646255125
0.4253657732750382,15.04324265548162
0.44206379720285277,13.819608212875272
0.45941731346364734,12.694383324229925
0.47745205385661277,11.634284704877333
0.4961947603002895,10.674338531052685
0.5156732244854959,9.792274944400843
0.5359163290848509,8.97931037231235
0.556954090580013,8.230667231877014
0.5788177037701272,7.5419548418186935
0.6015395880274836,6.9089776017679165
0.6251534353689703,6.327741994703584
0.6496942604146115,5.794456163564345
0.6751984523072497,5.305385366428155
0.7017038286703824,4.856875801793544
0.7292496916841444,4.445568458819371
0.7578768863625915,4.068387215397993
0.7876278611187046,3.7225142211467266
0.8185467307069019,3.4053693635031825
0.850679341636415,3.1146181598522418
0.8840733401525058,2.848136598189557
0.9187782428863317,2.603964427003401
0.9548455102782278,2.380292468047124
0.9923286228832539,2.175451742665168
1.0312831606721837,1.9879027415041668
1.0717668854455022,1.8162213944588061
1.1138398264826193,1.6590944168830808
1.1575643695533022,1.5153144030660874
1.2030053494233226,1.3837715900427894
1.2502301459914542,1.2634461973825848
1.299308784200415,1.1534014352387456
1.3503140378698726,1.0527773572446146
1.4033215376054824,0.9607843095414422
1.4584098829439835,0.8766971431498726
1.5156607589006013,0.7998501093743622
1.575159057091621,0.729632143793039
1.6369930016117014,0.6654824778204577
1.7012542798525885,0.6068865403705358
1.7680381784572046,0.5533723774734977
1.8374437246107238,0.5045072528869562
1.9095738328780953,0.4598944766150313
1.9845354578058014,0.41917048140472923
2.0624397525140905,0.3820020954999418
2.143402233514853,0.34808402618755635
2.227542951999554,0.3171366679111641
2.314986671851158,0.28890400540249955
2.405863054644063,0.2631516687473898
2.5003068519063225,0.23966514432651806
2.598458104929248,0.21824812187311435
2.7004623524206774,0.19872098025809848
2.806470846309834,0.18091941289868027
2.916640776023701,0.16469315049242877
3.031135501567576,0.14990478623771533
3.150124795755327,0.1364286966717667
3.2737850959485697,0.12415004239560544
3.4022997656780634,0.11296386150506361
3.5358593665351745,0.10277424734738154
3.6746619407366854,0.09349358224998107
3.8189133047818515,0.08504183406936079
3.968827354637162,0.07734591030077624
4.1246263829013445,0.07033905531381766
4.286541408420921,0.0639603163322671
4.4548125188449825,0.058154058015498444
4.629689226627261,0.052869506111203106
4.811430839003257,0.0480603292837796
5.000306842491082,0.04368425737462214
5.196597302486189,0.03970273867241248
5.400593278542364,0.03608061127528844
5.612597255954967,0.03278580435624591
5.8329235942862,0.029789070697032825
6.06189899349756,0.027063741983392522
6.29986297838068,0.024585501905458884
6.547168402004727,0.022332169731254337
6.804181968927091,0.020283529160857367
7.071284778942991,0.018421162498308174
7.348872892180382,0.016728292395818883
7.637357916378006,0.015189637351269032
7.937167617217536,0.01379128400167642
8.248746552614573,0.012520575035160474
8.572556731909314,0.01136598327246856
8.909078300934132,0.010317008799099817
9.258810253973934,0.009364088889367902
9.622271173675122,0.00849851562835595
9.999999999999984,0.007712348116000276
