k [1/Mpc],P(k) [Mpc^3]
0.0001,1694.4819269768725
0.00010392556829367125,1750.79081092091
0.00010800523745162529,1808.965371693772
0.00011224505680853065,1869.0668501119399
0.00011665131316981963,1931.1583336792414
0.00012123054013376525,1995.3049137876267
0.00012598952777950273,2061.573728644548
0.00013093533273536104,2130.034033434702
0.00013607528864243335,2200.7572552554225
0.00014141701702890234,2273.8169717654555
0.00014696843861124463,2349.289052246067
0.00015273778503907136,2427.251634318091
0.00015873361110102093,2507.7851590259074
0.00016496480740980205,2590.9725454420086
0.0001714406135851971,2676.8992078850156
0.00017817063195457305,2765.653163245141
0.00018516484179121546,2857.325029360204
0.000192433614111598,2952.0079912685665
0.00019998772705352857,3049.797997046581
0.0002078383818579757,3150.7934938138715
0.00021599721947827182,3255.0955834506094
0.0002244763378413224,3362.808290055427
0.0002332883097864157,3474.038563048308
0.00024244620170823283,3588.8964044604913
0.0002519635929317015,3707.49455022132
0.0002618545958474233,3829.948445263654
0.0002721338768375308,3956.3766145838317
0.0002828166780230032,4086.9002999099052
0.0002939188398646886,4221.643789907359
0.0003054568246515432,4360.734404380899
0.00031744774091091926,4504.302312046907
0.00032990936877709396,4652.480864479628
0.00034286018635565856,4805.405890676371
0.00035631939712285854,4963.215954862061
0.000370306958400514,5126.052655599186
0.00038484361094874304,5294.060186052119
0.0003999509097203664,5467.385768335592
0.00041565125582259895,5646.178795938635
0.00043196792973341727,5830.590669677881
0.0004489251258218605,6020.7755436441585
0.0004665479882234472,6216.889692898088
0.000484862648123908,6419.091890751044
0.000503896262506515,6627.542632946078
0.0005236770544204653,6842.403245437782
0.0005442343548300266,7063.837065003857
0.0005655986461065005,7292.008704088565
0.0005878016072274912,7527.084199065373
0.0006108761607505036,7769.2304822938995
0.0006348565216305217,8018.613465495977
0.0006597782479539537,8275.399588216162
0.0006856782936641739,8539.754653466614
0.0007125950633568407,8811.843469151969
0.0007405684692262436,9091.830212352139
0.0007696399902471156,9379.87560641476
0.0007998527336796708,9676.13834873226
0.000831251498989063,9980.773560135849
0.0008638828442740447,10293.930816631586
0.000897795155303332,10615.756120742968
0.0009330387172620361,10946.388130306517
0.0009696657893145519,11285.958973097393
0.001007730682094461,11634.593639590901
0.0010472898382363582,11992.405603259323
0.0010884019160690055,12359.50003379094
0.0011311278765939214,12735.97003846475
0.001175531073878369,13121.895785417462
0.0012216773489967915,13517.346162233724
0.0012696351276599736,13922.374653852987
0.0013194755216767058,14337.02090031085
0.0013712724343984,14761.305737137913
0.0014251026703029975,15195.226857733001
0.0014810460488806749,15638.763847786082
0.0015391855229902056,16091.87306690682
0.001599607301861487,16554.488543081778
0.0016624009789266115,17026.520629723127
0.0017276596646690358,17507.850300001963
0.0017954801246878305,17998.33294870949
0.0018659629231817451,18497.792671723902
0.001939212572065829,19006.021285005365
0.0020153376859417325,19522.780215004746
0.002094451143151469,20047.794135069285
0.002176670253153458,20580.753958258832
0.002262116930469025,21121.31290406499
0.002350917875457286,21669.08295994415
0.002443204762186487,22223.638858924274
0.0025391144336803463,22784.5125868575
0.002638789104828933,23351.194943354974
0.002742376573264949,23923.134004420746
0.0028500304385181063,24499.72940884826
0.0029619103297725525,25080.338020042378
0.0030781821425650787,25664.27271574785
0.003199018284775064,26250.802414445487
0.0033245979322709396,26839.15078198739
0.003455107294592217,27428.487033752004
0.0035907398910610534,28017.934251460825
0.0037316968377327513,28606.57748301284
0.0038781871456107214,29193.466611494445
0.0040304280305680515,29777.601670249864
0.00418864523543527,30357.864331686655
0.004353073364731888,30933.05654954341
0.00452395623253805,31502.02922255494
0.004701547224022131,32063.80954683494
0.004886109671160325,32617.404580093997
0.005077917243205399,33161.34447762336
0.005277254352483535,33693.761030563495
0.005484416576121017,34212.825681990595
0.005699711094326071,34717.09266803594
0.005923457145875801,35205.205063012334
0.006155986501483508,35675.81888178971
0.006397643955748424,36127.61435907247
0.0066487878384172625,36559.246735224835
0.0069097905457156435,36969.15550276262
0.007181039092537346,37355.688764211816
0.007462935686310132,37717.175330428625
0.007755898323389004,38051.90149450059
0.00806036140886134,38358.17174682879
0.008376776400682916,38634.35718655538
0.008705612479099857,38878.89691889823
0.009047357242349292,39090.26103584112
0.00940251742967013,39266.89698823587
0.009771619672696168,39407.30391055454
0.010155211276345676,39510.01751624237
0.010553861030365234,39573.61262616603
0.010968160052731372,39596.75798845092
0.011398722666160517,39578.179304415935
0.011846187309026826,39516.70895314948
0.012311217482038896,39411.2997087824
0.012794502732078732,39261.01453373144
0.013296759674662111,39065.08057641924
0.013818733056536317,38822.902028188
0.014361196859990781,38534.0728679376
0.014924955450518284,38198.39552198848
0.015510844769528393,37815.90212845737
0.016119733573881575,37386.84978296108
0.01675252472408214,36911.80133346488
0.017410156523040152,36391.63264650623
0.018093604107387147,35827.480375645806
0.01880388089340914,35220.92157254981
0.019542040079740527,34573.81101696354
0.02030917620904734,33888.36894279934
0.021106426791015535,33167.306905582285
0.021934973989050584,32413.518338224898
0.02279604637318978,31630.434023934227
0.023690920741826323,30821.781680032702
0.02462092401494623,29991.45375870922
0.02558743520168586,29143.878466054368
0.02659188744512693,28283.436061716802
0.027635770147361564,27414.65479126356
0.028720631177978267,26542.152669997424
0.029848079169243254,25670.315732575058
0.03101978590138095,24803.707242395107
0.03223748878149028,23946.618816377882
0.0335029934197723,23102.37781420918
0.03481817630688963,22273.095076303463
0.03618498759642746,21460.694621795654
0.037605453996581675,20668.350483800714
0.03908168177536263,19899.637287859827
0.04061585988376978,19155.621792830338
0.04221026320156896,18431.52609550652
0.04386725591048496,17722.212732100754
0.0455892949998106,17023.349292088413
0.047378933909631396,16331.36315497761
0.049238826317067365,15644.028573081776
0.05117173007114603,14963.018731204485
0.05318051128214196,14290.899407306244
0.05526814857144601,13627.376357715744
0.057437737488265785,12969.438506920635
0.0596924950997073,12315.494530559292
0.0620357647610427,11666.380434423585
0.06447102107323864,11025.61623020553
0.06700187503509585,10402.681735540527
0.06963207939763882,9806.121383221414
0.0723655342286965,9242.031958380821
0.07520629269592405,8712.83079282794
0.07815856707684081,8217.500246163056
0.08122673500479707,7755.53571087399
0.08441534596012978,7326.20257212616
0.0877291280161335,6927.033127554013
0.09117299484984914,6551.023291980625
0.09475205302806537,6188.466065199155
0.09847160957933764,5830.385834720715
0.1023371798632519,5473.260730457798
0.10635449574860109,5119.976139663861
0.11052951411260206,4776.974289428069
0.1148684256737553,4451.867302171543
0.1193776641714435,4148.393982951614
0.1240639159058831,3867.5062992498306
0.12893412965257148,3609.5189231134
0.13399552696593373,3374.497300316942
0.1392556128874462,3156.486274123085
0.14472218707411338,2947.647530116596
0.15040335536380234,2745.7232042291594
0.15630754179458153,2551.8277697947283
0.16244350109588662,2366.8581142931776
0.16882033167003618,2194.042384131035
0.17544748908334581,2035.5695330761694
0.1823348000868439,1889.612901405417
0.189492477187382,1753.6277124343133
0.19693113379074215,1625.4409467014289
0.20466179993919872,1504.6753010174891
0.21269593866686892,1391.2140453590623
0.22104546299710207,1285.753898597667
0.22972275360711503,1188.3790089889706
0.23874067718606454,1097.8711604426596
0.2481126055137766,1013.5055534271987
0.25785243528842716,934.8427496112481
0.26797460873256895,861.8275824057482
0.27849413500806414,794.1537814148046
0.28942661247167484,731.4981117254407
0.3007882518043098,673.3176457028234
0.31259590004822796,619.4474549718597
0.324867065587837,569.6141023829617
0.3376199441111335,523.525644540084
0.35087344559027084,480.91948914138703
0.36464722232127456,441.5714785170544
0.37896169806447155,405.26305769324887
0.3938380983288488,371.7690742760606
0.4092984818452433,340.8938780298714
0.4253657732750382,312.45101535167043
0.44206379720285277,286.26311871850436
0.45941731346364734,262.1617100408824
0.47745205385661277,239.98973324743523
0.4961947603002895,219.60137684392345
0.5156732244854959,200.86066615943486
0.5359163290848509,183.6413365012183
0.556954090580013,167.83262590421512
0.5788177037701272,153.3253261232241
0.6015395880274836,140.01986317753105
0.6251534353689703,127.82707175869288
0.6496942604146115,116.65721702782069
0.6751984523072497,106.42790125021287
0.7017038286703824,97.06225507004193
0.7292496916841444,88.48869280089001
0.7578768863625915,80.64516892521854
0.7876278611187046,73.4726780069773
0.8185467307069019,66.91657499796068
0.850679341636415,60.92636150277342
0.8840733401525058,55.45540345838748
0.9187782428863317,50.46064536955727
0.9548455102782278,45.90227113878591
0.9923286228832539,41.7435801066392
1.0312831606721837,37.950811031703964
1.0717668854455022,34.4929216134278
1.1138398264826193,31.34138303421165
1.1575643695533022,28.47000282061212
1.2030053494233226,25.854756617851095
1.2502301459914542,23.47358753227611
1.299308784200415,21.306250871995243
1.3503140378698726,19.334174608960975
1.4033215376054824,17.540328288211
1.4584098829439835,15.909082486260884
1.5156607589006013,14.426109379612884
1.575159057091621,13.078300057036452
1.6369930016117014,11.853665877932743
1.7012542798525885,10.741246716463653
1.7680381784572046,9.731027757951768
1.8374437246107238,8.813866349884723
1.9095738328780953,7.981412787712398
1.9845354578058014,7.226041960592465
2.0624397525140905,6.5407931216743185
2.143402233514853,5.919314359133772
2.227542951999554,5.355808908316036
2.314986671851158,4.844987294292666
2.405863054644063,4.382029462202035
2.5003068519063225,3.9625449900252026
2.598458104929248,3.582535991570209
2.7004623524206774,3.238363158100233
2.806470846309834,2.9267152364722304
2.916640776023701,2.6445799247591544
3.031135501567576,2.3892171089436727
3.150124795755327,2.1581349949779476
3.2737850959485697,1.949068267743547
3.4022997656780634,1.7599577843858687
3.5358593665351745,1.5889314996312003
3.6746619407366854,1.4342891136765166
3.8189133047818515,1.2944870542392624
3.968827354637162,1.1681243630549518
4.1246263829013445,1.0539298228640126
4.286541408420921,0.9507504408118874
4.4548125188449825,0.857540740057706
4.629689226627261,0.7733525855687956
4.811430839003257,0.6973263002746408
5.000306842491082,0.6286826011390797
5.196597302486189,0.5667152244007798
5.400593278542364,0.5107840187726024
5.612597255954967,0.4603090535893466
5.8329235942862,0.4147652271884339
6.06189899349756,0.3736771813546144
6.29986297838068,0.3366146750720501
6.547168402004727,0.30318835232039953
6.804181968927091,0.2730458733232502
7.071284778942991,0.2458685421327946
7.348872892180382,0.22136816597578562
7.637357916378006,0.19928418150854874
7.937167617217536,0.17938105044561645
8.248746552614573,0.1614460097108688
8.572556731909314,0.145286897050278
8.909078300934132,0.13073002771536735
9.258810253973934,0.1176184417137873
9.622271173675122,0.10581032394402765
9.999999999999984,0.0951775185963056
