k [1/Mpc],P(k) [Mpc^3]
0.0001,116.40328850791407
0.00010392556829367125,120.97211429427
0.00010800523745162529,125.72021516871142
0.00011224505680853065,130.65460725117245
0.00011665131316981963,135.78258889660674
0.00012123054013376525,141.1117564043147
0.00012598952777950273,146.6500037108239
0.00013093533273536104,152.40552198429387
0.00013607528864243335,158.38681645510206
0.00014141701702890234,164.60272555267977
0.00014696843861124463,171.06243615598675
0.00015273778503907136,177.7754943164662
0.00015873361110102093,184.75181824617613
0.00016496480740980205,192.00171284495482
0.0001714406135851971,199.535883819721
0.00017817063195457305,207.36544936453606
0.00018516484179121546,215.50195938852937
0.000192433614111598,223.95741413663376
0.00019998772705352857,232.74428191643156
0.0002078383818579757,241.8755152347436
0.00021599721947827182,251.36456297991091
0.0002244763378413224,261.22539300463995
0.0002332883097864157,271.4725116861746
0.00024244620170823283,282.12098090748253
0.0002519635929317015,293.18644441993473
0.0002618545958474233,304.6851519337375
0.0002721338768375308,316.6339820295204
0.0002828166780230032,329.0504597651173
0.0002939188398646886,341.9527667855455
0.0003054568246515432,355.35977923759316
0.00031744774091091926,369.2910947620701
0.00032990936877709396,383.7670589665126
0.00034286018635565856,398.8087938646079
0.00035631939712285854,414.4382142114826
0.000370306958400514,430.67806487648545
0.00038484361094874304,447.5519466494777
0.0003999509097203664,465.0843385492592
0.00041565125582259895,483.30064243820885
0.00043196792973341727,502.22719638409666
0.0004489251258218605,521.8913154050582
0.0004665479882234472,542.3213327461663
0.000484862648123908,563.546621391998
0.000503896262506515,585.5976451782391
0.0005236770544204653,608.5059690173009
0.0005442343548300266,632.3042942114938
0.0005655986461065005,657.026517167273
0.0005878016072274912,682.7077307637728
0.0006108761607505036,709.3842934907954
0.0006348565216305217,737.0938744919745
0.0006597782479539537,765.875488831528
0.0006856782936641739,795.7695464021712
0.0007125950633568407,826.8177916706027
0.0007405684692262436,859.0633880162312
0.0007696399902471156,892.5510219353274
0.0007998527336796708,927.3269544419628
0.000831251498989063,963.4390595219985
0.0008638828442740447,1000.9367197364772
0.000897795155303332,1039.8708715389353
0.0009330387172620361,1080.2941733666953
0.0009696657893145519,1122.2610597950982
0.001007730682094461,1165.8277889355645
0.0010472898382363582,1211.0523238539272
0.0010884019160690055,1257.994284019675
0.0011311278765939214,1306.715173039136
0.001175531073878369,1357.2783362784066
0.0012216773489967915,1409.7490522132416
0.0012696351276599736,1464.1945048213174
0.0013194755216767058,1520.683645271635
0.0013712724343984,1579.2874182499909
0.0014251026703029975,1640.0785135167885
0.0014810460488806749,1703.1314248736815
0.0015391855229902056,1768.52263688892
0.001599607301861487,1836.3304424560833
0.0016624009789266115,1906.6351209370166
0.0017276596646690358,1979.518554002097
0.0017954801246878305,2055.0640425843317
0.0018659629231817451,2133.3567299685014
0.001939212572065829,2214.4832732014743
0.0020153376859417325,2298.5320060846066
0.002094451143151469,2385.5927235474305
0.002176670253153458,2475.7562339233646
0.002262116930469025,2569.1147898772683
0.002350917875457286,2665.761411814501
0.002443204762186487,2765.789943614021
0.0025391144336803463,2869.295145936431
0.002638789104828933,2976.37190009712
0.002742376573264949,3087.1156802494024
0.0028500304385181063,3201.621804709915
0.0029619103297725525,3319.985072863476
0.0030781821425650787,3442.3001859970286
0.003199018284775064,3568.660703334851
0.0033245979322709396,3699.1593488550516
0.003455107294592217,3833.8871330227753
0.0035907398910610534,3972.93213564235
0.0037316968377327513,4116.3805136884
0.0038781871456107214,4264.315169420556
0.0040304280305680515,4416.81574624412
0.00418864523543527,4573.958053357052
0.004353073364731888,4735.811692141706
0.00452395623253805,4902.44146418979
0.004701547224022131,5073.905648195872
0.004886109671160325,5250.2552832809
0.005077917243205399,5431.534404999429
0.005277254352483535,5617.776228087338
0.005484416576121017,5809.004725329951
0.005699711094326071,6005.233167309316
0.005923457145875801,6206.461975871292
0.006155986501483508,6412.679673838869
0.006397643955748424,6623.85433127594
0.0066487878384172625,6839.9357508325575
0.0069097905457156435,7060.86174331249
0.007181039092537346,7286.562429703891
0.007462935686310132,7516.952197572581
0.007755898323389004,7751.893443877201
0.00806036140886134,7991.195384784055
0.008376776400682916,8234.64744381941
0.008705612479099857,8482.045349021535
0.009047357242349292,8733.170273039432
0.00940251742967013,8987.748225759486
0.009771619672696168,9245.431805285936
0.010155211276345676,9505.839741271182
0.010553861030365234,9768.57779471214
0.010968160052731372,10033.229742741767
0.011398722666160517,10299.325771198037
0.011846187309026826,10566.30972255675
0.012311217482038896,10833.577286810509
0.012794502732078732,11100.455917583353
0.013296759674662111,11366.208875114477
0.013818733056536317,11630.049773387898
0.014361196859990781,11891.124628273425
0.014924955450518284,12148.52998631097
0.015510844769528393,12401.284568425532
0.016119733573881575,12648.319484139347
0.01675252472408214,12888.515264533275
0.017410156523040152,13120.66246875934
0.018093604107387147,13343.494873447944
0.01880388089340914,13555.688022176717
0.019542040079740527,13755.834164535987
0.02030917620904734,13942.49734439233
0.021106426791015535,14114.177931933467
0.021934973989050584,14269.339786428793
0.02279604637318978,14406.443326944198
0.023690920741826323,14523.917107109084
0.02462092401494623,14620.22014177202
0.02558743520168586,14693.852590201765
0.02659188744512693,14743.372226426385
0.027635770147361564,14767.4351022326
0.028720631177978267,14764.812282298035
0.029848079169243254,14734.415136679185
0.03101978590138095,14675.407647901326
0.03223748878149028,14587.294095558462
0.0335029934197723,14469.783277837176
0.03481817630688963,14322.763077874264
0.03618498759642746,14146.319631445289
0.037605453996581675,13941.22850222022
0.03908168177536263,13709.838701551293
0.04061585988376978,13454.791510638936
0.04221026320156896,13177.870843504199
0.04386725591048496,12880.086128772573
0.0455892949998106,12563.061173132173
0.047378933909631396,12231.045890109446
0.049238826317067365,11888.863002157934
0.05117173007114603,11540.997026334486
0.05318051128214196,11191.570385547908
0.05526814857144601,10844.517822283742
0.057437737488265785,10504.621758317635
0.0596924950997073,10176.546889369713
0.0620357647610427,9864.007357330245
0.06447102107323864,9569.922950670174
0.06700187503509585,9296.170341816633
0.06963207939763882,9043.690126956084
0.0723655342286965,8812.118075795323
0.07520629269592405,8600.021001613335
0.07815856707684081,8404.623863506362
0.08122673500479707,8222.136793937016
0.08441534596012978,8047.311245712504
0.0877291280161335,7873.721477244534
0.09117299484984914,7693.962559432308
0.09475205302806537,7500.053948854601
0.09847160957933764,7284.559331163018
0.1023371798632519,7041.621452439009
0.10635449574860109,6768.2149920690445
0.11052951411260206,6465.13697717405
0.1148684256737553,6137.045283166901
0.1193776641714435,5792.23997354083
0.1240639159058831,5442.358864767487
0.12893412965257148,5101.58943080725
0.13399552696593373,4783.430454698817
0.1392556128874462,4499.467122353912
0.14472218707411338,4258.521497967232
0.15040335536380234,4063.7165159236624
0.15630754179458153,3911.517140094
0.16244350109588662,3791.7504858370435
0.16882033167003618,3688.6890026666156
0.17544748908334581,3583.264749022427
0.1823348000868439,3456.911526332418
0.189492477187382,3296.753572426302
0.19693113379074215,3100.3260553880173
0.20466179993919872,2877.7518174010324
0.21269593866686892,2649.975544841185
0.22104546299710207,2442.205892850313
0.22972275360711503,2274.0007917943212
0.23874067718606454,2151.8852392060103
0.2481126055137766,2067.7802954865547
0.25785243528842716,2001.277755408413
0.26797460873256895,1925.9602324205216
0.27849413500806414,1822.5076994684525
0.28942661247167484,1689.944625637401
0.3007882518043098,1546.1538709461138
0.31259590004822796,1417.8594279568786
0.324867065587837,1323.6851527223193
0.3376199441111335,1261.950120068701
0.35087344559027084,1211.711798963343
0.36464722232127456,1147.97711055797
0.37896169806447155,1062.6653973828588
0.3938380983288488,970.6224521567335
0.4092984818452433,894.684472428238
0.4253657732750382,842.9591697613746
0.44206379720285277,802.0243449432836
0.45941731346364734,752.162467900936
0.47745205385661277,690.9262241112533
0.4961947603002895,634.3189019660914
0.5156732244854959,593.209450563981
0.5359163290848509,559.3423033599735
0.556954090580013,519.8077715547948
0.5788177037701272,477.01563693625485
0.6015395880274836,442.1027079193008
0.6251534353689703,414.07663830118435
0.6496942604146115,384.0642568389649
0.6751984523072497,353.244530818157
0.7017038286703824,327.7969175251874
0.7292496916841444,304.91919846918523
0.7578768863625915,281.07659295117264
0.7876278611187046,259.6568862297602
0.8185467307069019,240.82535068392065
0.850679341636415,222.07992232930212
0.8840733401525058,205.09647354124186
0.9187782428863317,189.59932304495388
0.9548455102782278,175.06794852026886
0.9923286228832539,161.47074828458378
1.0312831606721837,148.79910727690975
1.0717668854455022,137.03387650155506
1.1138398264826193,126.14748863363349
1.1575643695533022,116.1034776590813
1.2030053494233226,106.8421759864656
1.2502301459914542,98.29829410803099
1.299308784200415,90.41272413846134
1.3503140378698726,83.13195657103621
1.4033215376054824,76.4074837077655
1.4584098829439835,70.19670473122112
1.5156607589006013,64.46400068986796
1.575159057091621,59.17632774932526
1.6369930016117014,54.30246195783039
1.7012542798525885,49.81295517292439
1.7680381784572046,45.68005603576056
1.8374437246107238,41.87718646134485
1.9095738328780953,38.37913392491595
1.9845354578058014,35.16249948185772
2.0624397525140905,32.20559219778133
2.143402233514853,29.48831177175225
2.227542951999554,26.992062363840603
2.314986671851158,24.699724922610333
2.405863054644063,22.595449303519228
2.5003068519063225,20.66453284640942
2.598458104929248,18.893345899995516
2.7004623524206774,17.269261024518357
2.806470846309834,15.78056893714432
2.916640776023701,14.41641366553172
3.031135501567576,13.166764619684203
3.150124795755327,12.022360529451445
3.2737850959485697,10.97465418842055
3.4022997656780634,10.015761171202287
3.5358593665351745,9.13841431702124
3.6746619407366854,8.335916052086095
3.8189133047818515,7.602094452212211
3.968827354637162,6.931264424000729
4.1246263829013445,6.318191531142378
4.286541408420921,5.758057273153275
4.4548125188449825,5.246426407602056
4.629689226627261,4.7792208591681575
4.811430839003257,4.3526928828726295
5.000306842491082,3.963399567215536
5.196597302486189,3.6081791593783863
5.400593278542364,3.2841287109975403
5.612597255954967,2.9885839627536726
5.8329235942862,2.7191010262680173
6.06189899349756,2.473438918737039
6.29986297838068,2.2495433885098715
6.547168402004727,2.045531736831638
6.804181968927091,1.859678187288393
7.071284778942991,1.6904022946024184
7.348872892180382,1.5362575331217516
7.637357916378006,1.3959203129868403
7.937167617217536,1.2681798736209342
8.248746552614573,1.151929894542195
8.572556731909314,1.0461601208597642
8.909078300934132,0.9499466386541402
9.258810253973934,0.8624446170679704
9.622271173675122,0.7828817982051329
9.999999999999984,0.7105520928823934
