k [1/Mpc],P(k) [Mpc^3]
0.0001,127.89269817095224
0.00010392556829367125,133.68056636529477
0.00010800523745162529,139.7301635526222
0.00011224505680853065,146.05329196541092
0.00011665131316981963,152.66228332386027
0.00012123054013376525,159.5700263493243
0.00012598952777950273,166.78999008471433
0.00013093533273536104,174.33624581275436
0.00013607528864243335,182.2234903804506
0.00014141701702890234,190.46707788768956
0.00014696843861124463,199.08304600052688
0.00015273778503907136,208.08814657688737
0.00015873361110102093,217.49987728125188
0.00016496480740980205,227.33650660224592
0.0001714406135851971,237.6171141246729
0.00017817063195457305,248.3616267426385
0.00018516484179121546,259.59085513572586
0.000192433614111598,271.3265319512906
0.00019998772705352857,283.5913374841471
0.0002078383818579757,296.40894827510544
0.00021599721947827182,309.80407789395156
0.0002244763378413224,323.8025106091052
0.0002332883097864157,338.43116144235796
0.00024244620170823283,353.71812454272634
0.0002519635929317015,369.69272405961533
0.0002618545958474233,386.3855501711811
0.0002721338768375308,403.8284626800952
0.0002828166780230032,422.0546874076465
0.0002939188398646886,441.0989037816022
0.0003054568246515432,460.9973111487166
0.00031744774091091926,481.78765534712034
0.00032990936877709396,503.5091831851086
0.00034286018635565856,526.2027631765325
0.00035631939712285854,549.9110039759773
0.000370306958400514,574.6783348853438
0.00038484361094874304,600.5510546971299
0.0003999509097203664,627.5773005876565
0.00041565125582259895,655.8071426438185
0.00043196792973341727,685.2927115502449
0.0004489251258218605,716.0882531358274
0.0004665479882234472,748.2502260397624
0.000484862648123908,781.8372680612548
0.000503896262506515,816.9102477857793
0.0005236770544204653,853.5324529085805
0.0005442343548300266,891.7696569609259
0.0005655986461065005,931.6902193354199
0.0005878016072274912,973.3650583771408
0.0006108761607505036,1016.8676206793332
0.0006348565216305217,1062.274126059776
0.0006597782479539537,1109.6635757394577
0.0006856782936641739,1159.1178659457926
0.0007125950633568407,1210.7218488349613
0.0007405684692262436,1264.5632397820557
0.0007696399902471156,1320.7328577128228
0.0007998527336796708,1379.3245315562272
0.000831251498989063,1440.435145003357
0.0008638828442740447,1504.1648199553538
0.000897795155303332,1570.6166593041746
0.0009330387172620361,1639.8970186615252
0.0009696657893145519,1712.1154337424323
0.001007730682094461,1787.384476137857
0.0010472898382363582,1865.8200416311863
0.0010884019160690055,1947.5408051418917
0.0011311278765939214,2032.6684386498548
0.001175531073878369,2121.327661560382
0.0012216773489967915,2213.645707292445
0.0012696351276599736,2309.7527987097596
0.0013194755216767058,2409.781601797938
0.0013712724343984,2513.867127071779
0.0014251026703029975,2622.1469175974635
0.0014810460488806749,2734.7600464350076
0.0015391855229902056,2851.8476097974735
0.001599607301861487,2973.552205028932
0.0016624009789266115,3100.017316103014
0.0017276596646690358,3231.3877402486996
0.0017954801246878305,3367.8081257099375
0.0018659629231817451,3509.423198238288
0.001939212572065829,3656.37758040578
0.0020153376859417325,3808.8146102433675
0.002094451143151469,3966.8767987378105
0.002176670253153458,4130.704312666143
0.002262116930469025,4300.434535335424
0.002350917875457286,4476.202072069424
0.002443204762186487,4658.136682176729
0.0025391144336803463,4846.363806289603
0.002638789104828933,5041.003219819946
0.002742376573264949,5242.167732744923
0.0028500304385181063,5449.963417388224
0.0029619103297725525,5664.486497423972
0.0030781821425650787,5885.823595086383
0.003199018284775064,6114.050605889765
0.0033245979322709396,6349.229837932319
0.003455107294592217,6591.411080543582
0.0035907398910610534,6840.6279464273475
0.0037316968377327513,7096.897084565422
0.0038781871456107214,7360.217900775106
0.0040304280305680515,7630.5676028552525
0.00418864523543527,7907.903011227821
0.004353073364731888,8192.158022084073
0.00452395623253805,8483.241411352448
0.004701547224022131,8781.03518178924
0.004886109671160325,9085.375822863047
0.005077917243205399,9396.062038123315
0.005277254352483535,9712.876318230445
0.005484416576121017,10035.602580323972
0.005699711094326071,10363.99316615745
0.005923457145875801,10697.670327953583
0.006155986501483508,11036.14197560078
0.006397643955748424,11378.88087293743
0.0066487878384172625,11725.37613329852
0.0069097905457156435,12075.087146829792
0.007181039092537346,12427.4254530597
0.007462935686310132,12781.75337208771
0.007755898323389004,13137.372691146658
0.00806036140886134,13493.441734870394
0.008376776400682916,13849.02570759075
0.008705612479099857,14203.14147713148
0.009047357242349292,14554.769329285878
0.00940251742967013,14902.830062749857
0.009771619672696168,15246.080187980668
0.010155211276345676,15583.145883604437
0.010553861030365234,15912.593115746078
0.010968160052731372,16232.932311594937
0.011398722666160517,16542.62430215497
0.011846187309026826,16840.011207816773
0.012311217482038896,17123.315950446256
0.012794502732078732,17390.710321370563
0.013296759674662111,17640.247383387054
0.013818733056536317,17869.935832591305
0.014361196859990781,18077.73559826021
0.014924955450518284,18261.53495738324
0.015510844769528393,18419.24300725755
0.016119733573881575,18548.72825135861
0.01675252472408214,18647.884421433733
0.017410156523040152,18714.684874705297
0.018093604107387147,18747.15309323347
0.01880388089340914,18743.466749609197
0.019542040079740527,18701.97792125778
0.02030917620904734,18621.247300886065
0.021106426791015535,18500.117657929542
0.021934973989050584,18337.800578927767
0.02279604637318978,18133.85524277325
0.023690920741826323,17888.333063566108
0.02462092401494623,17601.864215601883
0.02558743520168586,17275.500227076016
0.02659188744512693,16911.121934620252
0.027635770147361564,16511.1518130482
0.028720631177978267,16078.620035934895
0.029848079169243254,15617.65084213499
0.03101978590138095,15132.577512947064
0.03223748878149028,14628.5861063279
0.0335029934197723,14111.392104799246
0.03481817630688963,13586.813874771784
0.03618498759642746,13062.267179268412
0.037605453996581675,12544.852025142462
0.03908168177536263,12040.57312023727
0.04061585988376978,11554.359961118453
0.04221026320156896,11090.823849763627
0.04386725591048496,10657.759776147233
0.0455892949998106,10263.489488725607
0.047378933909631396,9912.320567372975
0.049238826317067365,9603.434150838044
0.05117173007114603,9335.33130613114
0.05318051128214196,9105.39964649892
0.05526814857144601,8910.396202130289
0.057437737488265785,8744.200852296157
0.0596924950997073,8599.91690516833
0.0620357647610427,8469.54583833274
0.06447102107323864,8342.64554064321
0.06700187503509585,8204.220372454065
0.06963207939763882,8038.516742921238
0.0723655342286965,7830.751614075428
0.07520629269592405,7570.195314784195
0.07815856707684081,7252.576233836271
0.08122673500479707,6881.0722979897555
0.08441534596012978,6465.973650680355
0.0877291280161335,6022.643198670755
0.09117299484984914,5570.574108639834
0.09475205302806537,5131.09228632367
0.09847160957933764,4727.254694384648
0.1023371798632519,4379.7342600918
0.10635449574860109,4103.142006822035
0.11052951411260206,3902.4222648971418
0.1148684256737553,3770.620221326076
0.1193776641714435,3690.1185862910024
0.1240639159058831,3634.904257870523
0.12893412965257148,3574.3033955874503
0.13399552696593373,3479.0831368142776
0.1392556128874462,3328.9670939625207
0.14472218707411338,3118.729039465735
0.15040335536380234,2861.6799640824215
0.15630754179458153,2589.4301615259765
0.16244350109588662,2342.312606442304
0.16882033167003618,2151.201452777765
0.17544748908334581,2025.8917169675467
0.1823348000868439,1956.791451453261
0.189492477187382,1917.645447871759
0.19693113379074215,1869.6946252193864
0.20466179993919872,1781.3127820571744
0.21269593866686892,1647.344271364027
0.22104546299710207,1490.2360897882074
0.22972275360711503,1346.7498424616754
0.23874067718606454,1244.6592327621258
0.2481126055137766,1186.8005957846055
0.25785243528842716,1149.322687944187
0.26797460873256895,1099.157184675139
0.27849413500806414,1021.0306478019827
0.28942661247167484,927.2249870376552
0.3007882518043098,846.4397404102848
0.31259590004822796,793.2777389213297
0.324867065587837,757.1363172155171
0.3376199441111335,715.1939346290877
0.35087344559027084,659.1865077294711
0.36464722232127456,602.6041447675078
0.37896169806447155,560.1370873047738
0.3938380983288488,528.3521708270863
0.4092984818452433,493.87886964394295
0.4253657732750382,454.402869544829
0.44206379720285277,419.47675073806903
0.45941731346364734,392.03697738898916
0.47745205385661277,365.1951072713068
0.4961947603002895,336.87897496539887
0.5156732244854959,311.79886672242526
0.5359163290848509,290.09995385165644
0.556954090580013,268.49830726375654
0.5788177037701272,248.04470925669534
0.6015395880274836,229.97318757860376
0.6251534353689703,212.7786106283859
0.6496942604146115,196.50704749601655
0.6751984523072497,181.55358144408805
0.7017038286703824,167.7967967235195
0.7292496916841444,155.08929635962625
0.7578768863625915,143.30668803946892
0.7876278611187046,132.34685198812278
0.8185467307069019,122.15095467290679
0.850679341636415,112.68083005840924
0.8840733401525058,103.89815879137475
0.9187782428863317,95.76460615174288
0.9548455102782278,88.24218465021423
0.9923286228832539,81.29154853206353
1.0312831606721837,74.8703541354356
1.0717668854455022,68.93871482160966
1.1138398264826193,63.45980630040068
1.1575643695533022,58.39962039136046
1.2030053494233226,53.72680136390742
1.2502301459914542,49.41305223339352
1.299308784200415,45.43245992582024
1.3503140378698726,41.76081022805405
1.4033215376054824,38.37548610247497
1.4584098829439835,35.25537908522556
1.5156607589006013,32.38075085430817
1.575159057091621,29.733091386505567
1.6369930016117014,27.295190119423822
1.7012542798525885,25.05107527531232
1.7680381784572046,22.9859307333739
1.8374437246107238,21.08601891634354
1.9095738328780953,19.338618465029864
1.9845354578058014,17.73194734986301
2.0624397525140905,16.25508853136603
2.143402233514853,14.897930608440495
2.227542951999554,13.65111233484926
2.314986671851158,12.50596814690287
2.405863054644063,11.454476143741275
2.5003068519063225,10.489219875634365
2.598458104929248,9.603346450283025
2.7004623524206774,8.79052597961158
2.806470846309834,8.044913601500628
2.916640776023701,7.361112495804053
3.031135501567576,6.734142117316111
3.150124795755327,6.159409153136151
3.2737850959485697,5.6326787980061646
3.4022997656780634,5.150047994504791
3.5358593665351745,4.707920653275014
3.6746619407366854,4.302984689459716
3.8189133047818515,3.932190230063839
3.968827354637162,3.592729638609287
4.1246263829013445,3.2820190438617134
4.286541408420921,2.9976811412137123
4.4548125188449825,2.7375283859300708
4.629689226627261,2.499548828366136
4.811430839003257,2.281893415545161
5.000306842491082,2.0828632592459653
5.196597302486189,1.900897830798025
5.400593278542364,1.734564100794787
5.612597255954967,1.5825465508242296
5.8329235942862,1.4436376609965458
6.06189899349756,1.3167292732944578
6.29986297838068,1.2008046610648802
6.547168402004727,1.0949311811059605
6.804181968927091,0.9982530673965433
7.071284778942991,0.909985444356868
7.348872892180382,0.8294090784090142
7.637357916378006,0.7558650325615439
7.937167617217536,0.688749727252659
8.248746552614573,0.6275106304528512
8.572556731909314,0.5716425757051783
8.909078300934132,0.5206829998549382
9.258810253973934,0.4742082429350973
9.622271173675122,0.4318303751749607
9.999999999999984,0.3931942019265115
