k [1/Mpc],P(k) [Mpc^3]
0.0001,95.5326913626245
0.00010392556829367125,99.85721380562734
0.00010800523745162529,104.3774391162421
0.00011224505680853065,109.10221024872308
0.00011665131316981963,114.04076794172653
0.00012123054013376525,119.20277464042336
0.00012598952777950273,124.5983330483661
0.00013093533273536104,130.2380010359369
0.00013607528864243335,136.13280804719665
0.00014141701702890234,142.29427939403692
0.00014696843861124463,148.73445743052991
0.00015273778503907136,155.46592371654916
0.00015873361110102093,162.50182599294794
0.00016496480740980205,169.85590619778577
0.0001714406135851971,177.5425258857077
0.00017817063195457305,185.5766910907678
0.00018516484179121546,193.97407873672256
0.000192433614111598,202.7510690503154
0.00019998772705352857,211.92476981877954
0.0002078383818579757,221.51304968822186
0.00021599721947827182,231.53457846704057
0.0002244763378413224,242.00886655097915
0.0002332883097864157,252.95629899373438
0.00024244620170823283,264.39816390923863
0.0002519635929317015,276.3566886761176
0.0002618545958474233,288.8550892034583
0.0002721338768375308,301.91760081874304
0.0002828166780230032,315.56952981124414
0.0002939188398646886,329.83731420401165
0.0003054568246515432,344.7485836674248
0.00031744774091091926,360.332194943045
0.00032990936877709396,376.6182343849626
0.00034286018635565856,393.6380788488349
0.00035631939712285854,411.42448971555996
0.000370306958400514,430.0116890467036
0.00038484361094874304,449.4354082375326
0.0003999509097203664,469.7329185599993
0.00041565125582259895,490.9430864765488
0.00043196792973341727,513.1064662395331
0.0004489251258218605,536.2653387498833
0.0004665479882234472,560.4638023504334
0.000484862648123908,585.7478503341928
0.000503896262506515,612.1654350111781
0.0005236770544204653,639.7665640931801
0.0005442343548300266,668.6033358260842
0.0005655986461065005,698.7300341017748
0.0005878016072274912,730.2032372009066
0.0006108761607505036,763.0818749935042
0.0006348565216305217,797.427351487974
0.0006597782479539537,833.3035774811723
0.0006856782936641739,870.7770464993253
0.0007125950633568407,909.9169977560202
0.0007405684692262436,950.7954684322476
0.0007696399902471156,993.4874315502558
0.0007998527336796708,1038.0708676420832
0.000831251498989063,1084.6268098218177
0.0008638828442740447,1133.239534006278
0.000897795155303332,1183.9965381034212
0.0009330387172620361,1236.9886885030237
0.0009696657893145519,1292.3103816255143
0.001007730682094461,1350.05954573237
0.0010472898382363582,1410.337858618568
0.0010884019160690055,1473.2506948661253
0.0011311278765939214,1538.9071913455762
0.001175531073878369,1607.4205001822343
0.0012216773489967915,1678.9076269063037
0.0012696351276599736,1753.489706484321
0.0013194755216767058,1831.2919792132523
0.0013712724343984,1912.4436484829987
0.0014251026703029975,1997.0782942862797
0.0014810460488806749,2085.333635484293
0.0015391855229902056,2177.351709371571
0.001599607301861487,2273.2789388212987
0.0016624009789266115,2373.265642395356
0.0017276596646690358,2477.4665819281054
0.0017954801246878305,2586.040635321257
0.0018659629231817451,2699.150721282286
0.001939212572065829,2816.964127402679
0.0020153376859417325,2939.6517849693414
0.002094451143151469,3067.388692477822
0.002176670253153458,3200.353473298994
0.002262116930469025,3338.72767972019
0.002350917875457286,3482.6965626434626
0.002443204762186487,3632.448344837827
0.0025391144336803463,3788.1742810463775
0.002638789104828933,3950.0682934274664
0.002742376573264949,4118.325420610192
0.0028500304385181063,4293.142782785683
0.0029619103297725525,4474.7184945743065
0.0030781821425650787,4663.251155229673
0.003199018284775064,4858.940058105063
0.0033245979322709396,5061.982995530445
0.003455107294592217,5272.576902746664
0.0035907398910610534,5490.916437755881
0.0037316968377327513,5717.192093198239
0.0038781871456107214,5951.591333316964
0.0040304280305680515,6194.295808768472
0.00418864523543527,6445.481283681091
0.004353073364731888,6705.316487789096
0.00452395623253805,6973.958990007127
0.004701547224022131,7251.557164437935
0.004886109671160325,7538.246339615675
0.005077917243205399,7834.147234884815
0.005277254352483535,8139.36645940649
0.005484416576121017,8453.99010894039
0.005699711094326071,8778.085641167869
0.005923457145875801,9111.694243237018
0.006155986501483508,9454.823163747666
0.006397643955748424,9807.455209299824
0.0066487878384172625,10169.558108673638
0.0069097905457156435,10541.07942720073
0.007181039092537346,10921.913643247226
0.007462935686310132,11311.850846418196
0.007755898323389004,11710.625545290892
0.00806036140886134,12117.94490154954
0.008376776400682916,12533.48781472429
0.008705612479099857,12956.883090807365
0.009047357242349292,13387.692243088315
0.00940251742967013,13825.417283420153
0.009771619672696168,14269.470723312172
0.010155211276345676,14719.151670042354
0.010553861030365234,15173.681097636045
0.010968160052731372,15632.168363233632
0.011398722666160517,16093.624507477063
0.011846187309026826,16556.96068187448
0.012311217482038896,17020.954214567042
0.012794502732078732,17484.284208320176
0.013296759674662111,17945.486242330757
0.013818733056536317,18402.95570401276
0.014361196859990781,18854.97478928123
0.014924955450518284,19299.64293082593
0.015510844769528393,19734.940594018117
0.016119733573881575,20158.696448402072
0.01675252472408214,20568.56104836978
0.017410156523040152,20962.08824631266
0.018093604107387147,21336.65518875346
0.01880388089340914,21689.529321907514
0.019542040079740527,22017.88704984087
0.02030917620904734,22318.75335845397
0.021106426791015535,22589.132673216838
0.021934973989050584,22825.966710975186
0.02279604637318978,23026.181441101853
0.023690920741826323,23186.780267191178
0.02462092401494623,23304.814303688552
0.02558743520168586,23377.493754217765
0.02659188744512693,23402.268785125743
0.027635770147361564,23376.879844016956
0.028720631177978267,23299.407634456667
0.029848079169243254,23168.428312070002
0.03101978590138095,22982.982536888478
0.03223748878149028,22742.804478339152
0.0335029934197723,22448.668572053724
0.03481817630688963,22101.87638074899
0.03618498759642746,21704.388933143764
0.037605453996581675,21258.740578532743
0.03908168177536263,20768.66264878073
0.04061585988376978,20241.481379902125
0.04221026320156896,19685.124882796117
0.04386725591048496,19105.694532453363
0.0455892949998106,18507.169618330954
0.047378933909631396,17894.116106712343
0.049238826317067365,17276.671560207324
0.05117173007114603,16666.38998625794
0.05318051128214196,16073.44190604309
0.05526814857144601,15506.698433802287
0.057437737488265785,14973.700627676872
0.0596924950997073,14480.727831944443
0.0620357647610427,14032.635765782054
0.06447102107323864,13631.668326451738
0.06700187503509585,13278.4754274156
0.06963207939763882,12970.910484066168
0.0723655342286965,12704.94293837878
0.07520629269592405,12473.82280513993
0.07815856707684081,12267.924811505103
0.08122673500479707,12074.8426820812
0.08441534596012978,11878.944434864441
0.0877291280161335,11662.654487411162
0.09117299484984914,11407.972422651477
0.09475205302806537,11099.072966716527
0.09847160957933764,10724.26386374326
0.1023371798632519,10280.502998487596
0.10635449574860109,9773.231969547403
0.11052951411260206,9214.698880195208
0.1148684256737553,8624.317365422738
0.1193776641714435,8028.060096179072
0.1240639159058831,7456.524532127345
0.12893412965257148,6940.496367751554
0.13399552696593373,6505.258288342856
0.1392556128874462,6165.537044960285
0.14472218707411338,5922.360115743307
0.15040335536380234,5762.1227852843995
0.15630754179458153,5657.421436963689
0.16244350109588662,5569.833226972252
0.16882033167003618,5456.144311396572
0.17544748908334581,5278.513298960406
0.1823348000868439,5015.949102759717
0.189492477187382,4673.218540750104
0.19693113379074215,4283.465694042059
0.20466179993919872,3899.3615013544363
0.21269593866686892,3573.2400762793627
0.22104546299710207,3337.901020471917
0.22972275360711503,3197.8462967139226
0.23874067718606454,3125.9974939368153
0.2481126055137766,3068.0812268858995
0.25785243528842716,2965.608906598118
0.26797460873256895,2787.8358816530167
0.27849413500806414,2549.781064691517
0.28942661247167484,2305.3377292148552
0.3007882518043098,2112.736758086959
0.31259590004822796,1998.128556588052
0.324867065587837,1939.8294292467262
0.3376199441111335,1881.4724872450367
0.35087344559027084,1775.0724186648517
0.36464722232127456,1621.902856508866
0.37896169806447155,1470.6892070340339
0.3938380983288488,1366.9279722784424
0.4092984818452433,1310.0648399401712
0.4253657732750382,1256.4912920329828
0.44206379720285277,1170.0567259095806
0.45941731346364734,1065.3720447912315
0.47745205385661277,982.9918320492792
0.4961947603002895,932.5740389819646
0.5156732244854959,883.5864700433432
0.5359163290848509,815.3424861901406
0.556954090580013,747.8147627046861
0.5788177037701272,700.770729079029
0.6015395880274836,660.0485840940881
0.6251534353689703,609.6921921358659
0.6496942604146115,562.2801933487301
0.6751984523072497,526.4510156260641
0.7017038286703824,490.08200543106057
0.7292496916841444,451.86903196315194
0.7578768863625915,420.3832013784985
0.7876278611187046,390.80872731252924
0.8185467307069019,362.2865843727533
0.850679341636415,335.5723012518912
0.8840733401525058,310.69167963890544
0.9187782428863317,287.57576466746764
0.9548455102782278,266.10361111988556
0.9923286228832539,246.16135208292215
1.0312831606721837,227.64303970692362
1.0717668854455022,210.45007336719166
1.1138398264826193,194.49092582846805
1.1575643695533022,179.68160873708996
1.2030053494233226,165.94396154959708
1.2502301459914542,153.20479048371956
1.299308784200415,141.39557689918186
1.3503140378698726,130.45220303294101
1.4033215376054824,120.31500003623171
1.4584098829439835,110.9287435727128
1.5156607589006013,102.24166675816934
1.575159057091621,94.20518430059393
1.6369930016117014,86.7737347411829
1.7012542798525885,79.90462022790672
1.7680381784572046,73.55772123620153
1.8374437246107238,67.69540635856372
1.9095738328780953,62.28255724386373
1.9845354578058014,57.28642505017801
2.0624397525140905,52.676486562361866
2.143402233514853,48.42431021663987
2.227542951999554,44.503441417219385
2.314986671851158,40.88926353681486
2.405863054644063,37.5588728559975
2.5003068519063225,34.49097030339217
2.598458104929248,31.66575906436739
2.7004623524206774,29.06484252160117
2.806470846309834,26.67112493514036
2.916640776023701,24.468742069602722
3.031135501567576,22.442982107807463
3.150124795755327,20.580207813596818
3.2737850959485697,18.867783337955444
3.4022997656780634,17.294002912948518
3.5358593665351745,15.848026717847883
3.6746619407366854,14.51982465279423
3.8189133047818515,13.30011968699535
3.968827354637162,12.180334568077239
4.1246263829013445,11.152541756501416
4.286541408420921,10.209414759881938
4.4548125188449825,9.344186531269616
4.629689226627261,8.55061054057218
4.811430839003257,7.822922704122986
5.000306842491082,7.155805893933983
5.196597302486189,6.544356765819627
5.400593278542364,5.984054686384521
5.612597255954967,5.470733652641965
5.8329235942862,5.000555809648337
6.06189899349756,4.569986688307821
6.29986297838068,4.175772192915835
6.547168402004727,3.814915940517455
6.804181968927091,3.484659058980188
7.071284778942991,3.1824644570897265
7.348872892180382,2.9059998299882484
7.637357916378006,2.653121657922005
7.937167617217536,2.4218605841870997
8.248746552614573,2.2104101653459836
8.572556731909314,2.017112623946392
8.909078300934132,1.8404447259997296
9.258810253973934,1.6790072387806076
9.622271173675122,1.5315152356251815
9.999999999999984,1.3967876247734488
