k [1/Mpc],P(k) [Mpc^3]
0.0001,598.1197338862461
0.00010392556829367125,621.5922226540279
0.00010800523745162529,645.9852796749211
0.00011224505680853065,671.3349304597357
0.00011665131316981963,697.6785986134536
0.00012123054013376525,725.0551736946189
0.00012598952777950273,753.5050725754755
0.00013093533273536104,783.0702842253853
0.00013607528864243335,813.7943918435168
0.00014141701702890234,845.7226510073083
0.00014696843861124463,878.9020810627501
0.00015273778503907136,913.3815461309729
0.00015873361110102093,949.2118093064834
0.00016496480740980205,986.4455751923223
0.0001714406135851971,1025.1375660282526
0.00017817063195457305,1065.3446100465874
0.00018516484179121546,1107.125688131442
0.000192433614111598,1150.5420430030897
0.00019998772705352857,1195.6572954495339
0.0002078383818579757,1242.5375446467021
0.00021599721947827182,1291.2514220630749
0.0002244763378413224,1341.8700667101955
0.0002332883097864157,1394.467275517335
0.00024244620170823283,1449.1196668144482
0.0002519635929317015,1505.906797817973
0.0002618545958474233,1564.9112535029788
0.0002721338768375308,1626.2186734715153
0.0002828166780230032,1689.9178734169939
0.0002939188398646886,1756.1010005421585
0.0003054568246515432,1824.8635897294196
0.00031744774091091926,1896.3047389511614
0.00032990936877709396,1970.5271805340835
0.00034286018635565856,2047.6373788514722
0.00035631939712285854,2127.745721587036
0.000370306958400514,2210.966501016933
0.00038484361094874304,2297.4181327679266
0.0003999509097203664,2387.2233301488654
0.00041565125582259895,2480.5091985930144
0.00043196792973341727,2577.4074307035553
0.0004489251258218605,2678.054167068793
0.0004665479882234472,2782.590189354
0.000484862648123908,2891.1612531382325
0.000503896262506515,3003.918171721993
0.0005236770544204653,3121.0170378304515
0.0005442343548300266,3242.6191154575686
0.0005655986461065005,3368.8908939743487
0.0005878016072274912,3500.004480938426
0.0006108761607505036,3636.13734349692
0.0006348565216305217,3777.472700616352
0.0006597782479539537,3924.1998046938947
0.0006856782936641739,4076.514028881207
0.0007125950633568407,4234.617072897778
0.0007405684692262436,4398.716340160903
0.0007696399902471156,4569.0252322969745
0.0007998527336796708,4745.763682423753
0.000831251498989063,4929.157959301519
0.0008638828442740447,5119.441092338013
0.000897795155303332,5316.852418908688
0.0009330387172620361,5521.637503235852
0.0009696657893145519,5734.048697578597
0.001007730682094461,5954.344065701011
0.0010472898382363582,6182.788137569817
0.0010884019160690055,6419.651884325722
0.0011311278765939214,6665.2121520328665
0.001175531073878369,6919.752386549706
0.0012216773489967915,7183.560860905498
0.0012696351276599736,7456.93107474643
0.0013194755216767058,7740.162170473795
0.0013712724343984,8033.557140795979
0.0014251026703029975,8337.424208556073
0.0014810460488806749,8652.075469901409
0.0015391855229902056,8977.826319657439
0.001599607301861487,9314.996111480545
0.0016624009789266115,9663.904684000947
0.0017276596646690358,10024.873939872112
0.0017954801246878305,10398.227156834428
0.0018659629231817451,10784.28706898329
0.001939212572065829,11183.377137782065
0.0020153376859417325,11595.81709538437
0.002094451143151469,12021.923402632334
0.002176670253153458,12462.0095292928
0.002262116930469025,12916.381955872397
0.002350917875457286,13385.342199274563
0.002443204762186487,13869.18276457737
0.0025391144336803463,14368.18544885713
0.002638789104828933,14882.622695216638
0.002742376573264949,15412.751901848887
0.0028500304385181063,15958.817011235926
0.0029619103297725525,16521.04516905917
0.0030781821425650787,17099.64214677826
0.003199018284775064,17694.79507315516
0.0033245979322709396,18306.665466859078
0.003455107294592217,18935.389313383046
0.0035907398910610534,19581.075347728478
0.0037316968377327513,20243.796676821075
0.0038781871456107214,20923.59482880621
0.0040304280305680515,21620.471131869075
0.00418864523543527,22334.383694870812
0.004353073364731888,23065.24877424698
0.00452395623253805,23812.924825150843
0.004701547224022131,24577.21934784199
0.004886109671160325,25357.88538768074
0.005077917243205399,26154.614736586715
0.005277254352483535,26967.03863329295
0.005484416576121017,27794.68819947942
0.005699711094326071,28637.005647415917
0.005923457145875801,29493.38643646409
0.006155986501483508,30363.222549793427
0.006397643955748424,31245.84263858469
0.0066487878384172625,32140.318927744323
0.0069097905457156435,33045.45925673225
0.007181039092537346,33959.98133234961
0.007462935686310132,34882.62273677081
0.007755898323389004,35812.06206277824
0.00806036140886134,36746.87813812172
0.008376776400682916,37685.54678041308
0.008705612479099857,38626.43016009637
0.009047357242349292,39567.64407310824
0.00940251742967013,40507.116916751555
0.009771619672696168,41442.63285644207
0.010155211276345676,42371.787662584735
0.010553861030365234,43292.04614653735
0.010968160052731372,44200.70798822662
0.011398722666160517,45094.917368061164
0.011846187309026826,45971.68406761249
0.012311217482038896,46827.79522643413
0.012794502732078732,47659.906351750666
0.013296759674662111,48464.51860610273
0.013818733056536317,49237.96021760299
0.014361196859990781,49976.47303030573
0.014924955450518284,50676.11526665612
0.015510844769528393,51332.84907578911
0.016119733573881575,51942.59009255739
0.01675252472408214,52501.17794845891
0.017410156523040152,53004.48223030657
0.018093604107387147,53448.39514454663
0.01880388089340914,53828.87615228526
0.019542040079740527,54142.039315560905
0.02030917620904734,54384.21264208895
0.021106426791015535,54551.96251222161
0.021934973989050584,54642.24717655923
0.02279604637318978,54652.49569322348
0.023690920741826323,54580.550660213485
0.02462092401494623,54425.06630369912
0.02558743520168586,54185.29163582426
0.02659188744512693,53861.239500396936
0.027635770147361564,53454.10909272527
0.028720631177978267,52965.67022989792
0.029848079169243254,52399.152290638085
0.03101978590138095,51758.901343872196
0.03223748878149028,51049.88331340704
0.0335029934197723,50278.64119120037
0.03481817630688963,49452.12182505071
0.03618498759642746,48578.900990342096
0.037605453996581675,47669.37913110748
0.03908168177536263,46733.3759942096
0.04061585988376978,45778.641532442736
0.04221026320156896,44811.858052039395
0.04386725591048496,43841.87623312435
0.0455892949998106,42882.17224836873
0.047378933909631396,41945.35566873565
0.049238826317067365,41037.80733317513
0.05117173007114603,40161.72960271506
0.05318051128214196,39316.60515680944
0.05526814857144601,38495.890311620795
0.057437737488265785,37691.954975125635
0.0596924950997073,36894.22193039336
0.0620357647610427,36091.53119601342
0.06447102107323864,35271.85674953203
0.06700187503509585,34423.08923372469
0.06963207939763882,33531.75893156883
0.0723655342286965,32584.88331234497
0.07520629269592405,31570.502918421742
0.07815856707684081,30480.55764269419
0.08122673500479707,29314.354862361157
0.08441534596012978,28091.052536965624
0.0877291280161335,26833.991974701046
0.09117299484984914,25565.22969157101
0.09475205302806537,24316.517835879513
0.09847160957933764,23118.722838832342
0.1023371798632519,21998.48493113626
0.10635449574860109,20977.494527865216
0.11052951411260206,20067.957309342637
0.1148684256737553,19266.736005224084
0.1193776641714435,18551.57090739719
0.1240639159058831,17881.342357680598
0.12893412965257148,17208.475243127206
0.13399552696593373,16493.17442154672
0.1392556128874462,15714.417685247096
0.14472218707411338,14875.17700895784
0.15040335536380234,14001.35827311565
0.15630754179458153,13133.76129123529
0.16244350109588662,12315.431618654708
0.16882033167003618,11581.859773557015
0.17544748908334581,10952.62418913687
0.1823348000868439,10417.84804587743
0.189492477187382,9934.443003574484
0.19693113379074215,9450.432499072194
0.20466179993919872,8933.414389053418
0.21269593866686892,8379.158245470144
0.22104546299710207,7815.91290214409
0.22972275360711503,7290.290152040885
0.23874067718606454,6830.34288246219
0.2481126055137766,6434.74829543367
0.25785243528842716,6077.592459300395
0.26797460873256895,5722.069321573317
0.27849413500806414,5351.33968633741
0.28942661247167484,4980.547590662409
0.3007882518043098,4639.570448010517
0.31259590004822796,4339.082854087936
0.324867065587837,4067.886222676436
0.3376199441111335,3804.849525234221
0.35087344559027084,3542.177078658457
0.36464722232127456,3292.313923822867
0.37896169806447155,3066.222741112443
0.3938380983288488,2859.4785374259473
0.4092984818452433,2662.0267525073796
0.4253657732750382,2471.741295083262
0.44206379720285277,2295.1577240432475
0.45941731346364734,2132.7745850184556
0.47745205385661277,1980.2877485478105
0.4961947603002895,1835.8424176811964
0.5156732244854959,1701.7639877776298
0.5359163290848509,1577.2935279169467
0.556954090580013,1460.616739360815
0.5788177037701272,1351.7670149955643
0.6015395880274836,1250.6610001520833
0.6251534353689703,1156.4536336552856
0.6496942604146115,1068.7730558797023
0.6751984523072497,987.330835322608
0.7017038286703824,911.6427565539271
0.7292496916841444,841.3905214757674
0.7578768863625915,776.2013754224994
0.7876278611187046,715.7391758804652
0.8185467307069019,659.6955561409166
0.850679341636415,607.778758264323
0.8840733401525058,559.7130930264584
0.9187782428863317,515.2382745870503
0.9548455102782278,474.1078068099915
0.9923286228832539,436.0892185790875
1.0312831606721837,400.9643387521484
1.0717668854455022,368.52860709694056
1.1138398264826193,338.5903861244991
1.1575643695533022,310.970285383581
1.2030053494233226,285.5004986439713
1.2502301459914542,262.0242024899901
1.299308784200415,240.3949558956725
1.3503140378698726,220.47611547625618
1.4033215376054824,202.1402720185237
1.4584098829439835,185.26865044540418
1.5156607589006013,169.75060212328347
1.575159057091621,155.48320597514274
1.6369930016117014,142.37079604228427
1.7012542798525885,130.32450599091646
1.7680381784572046,119.26183086048296
1.8374437246107238,109.10618008822006
1.9095738328780953,99.78652937251833
1.9845354578058014,91.23707769531839
2.0624397525140905,83.39689667492996
2.143402233514853,76.20960005359966
2.227542951999554,69.62302345118192
2.314986671851158,63.588921729262054
2.405863054644063,58.062720783179614
2.5003068519063225,53.003262212396045
2.598458104929248,48.37255955694812
2.7004623524206774,44.13556958349116
2.806470846309834,40.259967623510725
2.916640776023701,36.715953724024146
3.031135501567576,33.47607996834035
3.150124795755327,30.515075809530742
3.2737850959485697,27.809684831162276
3.4022997656780634,25.338511906234466
3.5358593665351745,23.081878287111024
3.6746619407366854,21.02169514012918
3.8189133047818515,19.141343231702617
3.968827354637162,17.425559147054305
4.1246263829013445,15.860329744347062
4.286541408420921,14.432792417775248
4.4548125188449825,13.131143651493053
4.629689226627261,11.944559300816588
4.811430839003257,10.86311702745027
5.000306842491082,9.877724102784626
5.196597302486189,8.980050581147179
5.400593278542364,8.162466353389462
5.612597255954967,7.417985304197668
5.8329235942862,6.740214047824966
6.06189899349756,6.123303364153889
6.29986297838068,5.56190341758518
6.547168402004727,5.051121873221386
6.804181968927091,4.586484392294899
7.071284778942991,4.163902327281377
7.348872892180382,3.779641084836852
7.637357916378006,3.4302902969081503
7.937167617217536,3.112736473372661
8.248746552614573,2.8241401024764157
8.572556731909314,2.5619124340808095
8.909078300934132,2.3236905052784667
9.258810253973934,2.1073178276848195
9.622271173675122,1.9108269270528733
9.999999999999984,1.7324222300825545
