k [1/Mpc],P(k) [Mpc^3]
0.0001,1050.0506087108445
0.00010392556829367125,1094.3848952772553
0.00010800523745162529,1140.5875504991623
0.00011224505680853065,1188.7369170439574
0.00011665131316981963,1238.9145110758066
0.00012123054013376525,1291.2052138260515
0.00012598952777950273,1345.6973958530778
0.00013093533273536104,1402.4830628198306
0.00013607528864243335,1461.6579957643894
0.00014141701702890234,1523.321844455073
0.00014696843861124463,1587.5783321231863
0.00015273778503907136,1654.5353555461334
0.00015873361110102093,1724.3051269854243
0.00016496480740980205,1797.0044167312283
0.0001714406135851971,1872.7546945176757
0.00017817063195457305,1951.6823379970429
0.00018516484179121546,2033.9187705237512
0.000192433614111598,2119.6005788616303
0.00019998772705352857,2208.86979901052
0.0002078383818579757,2301.8738766320516
0.00021599721947827182,2398.7659300556334
0.0002244763378413224,2499.7051055317506
0.0002332883097864157,2604.85674803366
0.00024244620170823283,2714.392669779012
0.0002519635929317015,2828.4910872590362
0.0002618545958474233,2947.336775602149
0.0002721338768375308,3071.1215330121836
0.0002828166780230032,3200.0440889778233
0.0002939188398646886,3334.3105495530685
0.0003054568246515432,3474.134584508392
0.00031744774091091926,3619.737484357715
0.00032990936877709396,3771.3486324980263
0.00034286018635565856,3929.205145872545
0.00035631939712285854,4093.5522846184626
0.000370306958400514,4264.643911248545
0.00038484361094874304,4442.742347172343
0.0003999509097203664,4628.118954604156
0.00041565125582259895,4821.053638952238
0.00043196792973341727,5021.834915216143
0.0004489251258218605,5230.760761759313
0.0004665479882234472,5448.138304167754
0.000484862648123908,5674.28436750484
0.000503896262506515,5909.525022141662
0.0005236770544204653,6154.194993571955
0.0005442343548300266,6408.638914991982
0.0005655986461065005,6673.210885853321
0.0005878016072274912,6948.274815297598
0.0006108761607505036,7234.204146929452
0.0006348565216305217,7531.380257675086
0.0006597782479539537,7840.194049073692
0.0006856782936641739,8161.0450242195375
0.0007125950633568407,8494.341086613607
0.0007405684692262436,8840.499025886831
0.0007696399902471156,9199.941897639641
0.0007998527336796708,9573.100466247544
0.000831251498989063,9960.411748082734
0.0008638828442740447,10362.317054058341
0.000897795155303332,10779.263927798207
0.0009330387172620361,11211.702303065704
0.0009696657893145519,11660.085196058533
0.001007730682094461,12124.867954104857
0.0010472898382363582,12606.503500744004
0.0010884019160690055,13105.44538586086
0.0011311278765939214,13622.143545617595
0.001175531073878369,14157.042954234501
0.0012216773489967915,14710.58497327676
0.0012696351276599736,15283.202435887726
0.0013194755216767058,15875.320772222125
0.0013712724343984,16487.351928301323
0.0014251026703029975,17119.68868079687
0.0014810460488806749,17772.709325330157
0.0015391855229902056,18446.77099665855
0.001599607301861487,19142.209612932027
0.0016624009789266115,19859.337234824707
0.0017276596646690358,20598.43418115158
0.0017954801246878305,21359.752045942416
0.0018659629231817451,22143.50551239041
0.001939212572065829,22949.869497084575
0.0020153376859417325,23778.979686117313
0.002094451143151469,24630.92300452091
0.002176670253153458,25505.73922869122
0.002262116930469025,26403.414080233906
0.002350917875457286,27323.872510070785
0.002443204762186487,28266.981252057474
0.0025391144336803463,29232.539426555162
0.002638789104828933,30220.27784547475
0.002742376573264949,31229.85430976913
0.0028500304385181063,32260.84323546468
0.0029619103297725525,33312.73992511531
0.0030781821425650787,34384.95594359467
0.003199018284775064,35476.816006418
0.0033245979322709396,36587.55299338918
0.003455107294592217,37716.29192202827
0.0035907398910610534,38862.057471821776
0.0037316968377327513,40023.7817087167
0.0038781871456107214,41200.30493181538
0.0040304280305680515,42390.35166619666
0.00418864523543527,43592.428199472975
0.004353073364731888,44804.87009019874
0.00452395623253805,46026.023912377794
0.004701547224022131,47254.43672921773
0.004886109671160325,48488.57408473009
0.005077917243205399,49726.132654765475
0.005277254352483535,50964.12676792878
0.005484416576121017,52199.52876222696
0.005699711094326071,53429.79750431028
0.005923457145875801,54652.445483918294
0.006155986501483508,55864.92417222049
0.006397643955748424,57064.64099973092
0.0066487878384172625,58248.880875287796
0.0069097905457156435,59414.49615209761
0.007181039092537346,60558.09134761075
0.007462935686310132,61676.13250782473
0.007755898323389004,62764.9052894954
0.00806036140886134,63820.61063034591
0.008376776400682916,64839.44492543852
0.008705612479099857,65817.60484954488
0.009047357242349292,66751.22678826132
0.00940251742967013,67636.29445180109
0.009771619672696168,68468.76400046994
0.010155211276345676,69244.5390965167
0.010553861030365234,69959.47580831358
0.010968160052731372,70609.48102805766
0.011398722666160517,71190.4509199996
0.011846187309026826,71698.36335236169
0.012311217482038896,72129.30921913861
0.012794502732078732,72479.48109004987
0.013296759674662111,72745.2806514461
0.013818733056536317,72923.35431865003
0.014361196859990781,73010.6302138787
0.014924955450518284,73004.36806149926
0.015510844769528393,72902.21635242671
0.016119733573881575,72702.22148770839
0.01675252472408214,72403.00473550589
0.017410156523040152,72003.80246931923
0.018093604107387147,71504.38909105753
0.01880388089340914,70905.46195881134
0.019542040079740527,70208.35073456365
0.02030917620904734,69415.22341382984
0.021106426791015535,68529.38121773687
0.021934973989050584,67554.6606992638
0.02279604637318978,66496.20123053092
0.023690920741826323,65359.98837283731
0.02462092401494623,64152.603465188
0.02558743520168586,62882.04501830835
0.02659188744512693,61556.514534273294
0.027635770147361564,60184.84898984429
0.028720631177978267,58776.41297857113
0.029848079169243254,57340.3959507222
0.03101978590138095,55886.71925485521
0.03223748878149028,54425.040634582336
0.0335029934197723,52963.147271750175
0.03481817630688963,51506.2836683135
0.03618498759642746,50059.43700455377
0.037605453996581675,48630.702756105056
0.03908168177536263,47229.40022542111
0.04061585988376978,45859.1568249181
0.04221026320156896,44509.595651906486
0.04386725591048496,43169.08471236822
0.0455892949998106,41827.55195768353
0.047378933909631396,40476.4499536713
0.049238826317067365,39110.29765220445
0.05117173007114603,37733.25600427205
0.05318051128214196,36351.90431705005
0.05526814857144601,34965.71363651416
0.057437737488265785,33567.10308267193
0.0596924950997073,32151.932795581717
0.0620357647610427,30722.312753993185
0.06447102107323864,29287.559587993324
0.06700187503509585,27873.285732984525
0.06963207939763882,26503.465332791955
0.0723655342286965,25196.220753421723
0.07520629269592405,23960.162573500125
0.07815856707684081,22794.640547817686
0.08122673500479707,21700.381357221748
0.08441534596012978,20677.452358807455
0.0877291280161335,19720.953650366842
0.09117299484984914,18812.752118170232
0.09475205302806537,17926.22095755047
0.09847160957933764,17035.919099537634
0.1023371798632519,16131.581706925906
0.10635449574860109,15221.634653431542
0.11052951411260206,14325.467458546602
0.1148684256737553,13466.683435326624
0.1193776641714435,12657.88010994714
0.1240639159058831,11903.496642315251
0.12893412965257148,11206.123097647505
0.13399552696593373,10567.632277206483
0.1392556128874462,9970.915932460419
0.14472218707411338,9392.241308287345
0.15040335536380234,8824.964906645599
0.15630754179458153,8273.13543784446
0.16244350109588662,7740.224206319577
0.16882033167003618,7237.504911208558
0.17544748908334581,6773.175711671509
0.1823348000868439,6342.227078524834
0.189492477187382,5937.025084820949
0.19693113379074215,5550.923237907216
0.20466179993919872,5183.216622135506
0.21269593866686892,4834.071424042265
0.22104546299710207,4506.5013030226655
0.22972275360711503,4201.4496655544135
0.23874067718606454,3915.237499805286
0.2481126055137766,3645.8215634622893
0.25785243528842716,3392.113555974578
0.26797460873256895,3154.385367985632
0.27849413500806414,2931.983420253277
0.28942661247167484,2724.160259989923
0.3007882518043098,2529.309538318974
0.31259590004822796,2347.1940757571588
0.324867065587837,2177.14724425697
0.3376199441111335,2018.4015506099408
0.35087344559027084,1870.2709572469469
0.36464722232127456,1732.1907247611161
0.37896169806447155,1603.593374623835
0.3938380983288488,1483.8603772454915
0.4092984818452433,1372.4657709088128
0.4253657732750382,1268.898260854478
0.44206379720285277,1172.661864889457
0.45941731346364734,1083.276212564294
0.47745205385661277,1000.2882106505742
0.4961947603002895,923.2728988736977
0.5156732244854959,851.8290947241658
0.5359163290848509,785.5802518249908
0.556954090580013,724.2008730922797
0.5788177037701272,667.3583417830305
0.6015395880274836,614.7483716222803
0.6251534353689703,566.099954770211
0.6496942604146115,521.1280301634673
0.6751984523072497,479.5687344844993
0.7017038286703824,441.1723467422737
0.7292496916841444,405.7030070235384
0.7578768863625915,372.9592174057304
0.7876278611187046,342.74521505658623
0.8185467307069019,314.8776074429948
0.850679341636415,289.1850632352304
0.8840733401525058,265.50764183010546
0.9187782428863317,243.6960548958441
0.9548455102782278,223.61061379787017
0.9923286228832539,205.12116518100189
1.0312831606721837,188.10675209644265
1.0717668854455022,172.45502232689424
1.1138398264826193,158.06166925348
1.1575643695533022,144.82997608510988
1.2030053494233226,132.67037128093233
1.2502301459914542,121.49978277748797
1.299308784200415,111.24118602648727
1.3503140378698726,101.82320256805042
1.4033215376054824,93.17971446181198
1.4584098829439835,85.24940043016336
1.5156607589006013,77.97546299519716
1.575159057091621,71.30542626655954
1.6369930016117014,65.19082941672747
1.7012542798525885,59.58693663199707
1.7680381784572046,54.45247446722462
1.8374437246107238,49.74940731825899
1.9095738328780953,45.44266206847574
1.9845354578058014,41.499896462974384
2.0624397525140905,37.89129854867522
2.143402233514853,34.58939951037045
2.227542951999554,31.56888425233876
2.314986671851158,28.806423669918004
2.405863054644063,26.280555226894265
2.5003068519063225,23.97154308136358
2.598458104929248,21.861244872887568
2.7004623524206774,19.93298860732561
2.806470846309834,18.171462359976736
2.916640776023701,16.562605169616006
3.031135501567576,15.093505243724746
3.150124795755327,13.752309660756913
3.2737850959485697,12.528140881378517
3.4022997656780634,11.41101746308714
3.5358593665351745,10.391777416470529
3.6746619407366854,9.462020945529908
3.8189133047818515,8.614051349664855
3.968827354637162,7.840817915363113
4.1246263829013445,7.135863307517394
4.286541408420921,6.493276634954068
4.4548125188449825,5.907648859346649
4.629689226627261,5.374028875868871
4.811430839003257,4.887885691748655
5.000306842491082,4.445073830561881
5.196597302486189,4.041801298079771
5.400593278542364,3.674598740048182
5.612597255954967,3.3402938945860083
5.8329235942862,3.0359879521592394
6.06189899349756,2.75903255454452
6.29986297838068,2.5070086581891915
6.547168402004727,2.2777069287838994
6.804181968927091,2.069109568489318
7.071284778942991,1.879374715840698
7.348872892180382,1.706821569311567
7.637357916378006,1.5499165816621516
7.937167617217536,1.4072608377656652
8.248746552614573,1.2775793878650656
8.572556731909314,1.1597104516612846
8.909078300934132,1.0525943093680865
9.258810253973934,0.9552644758493073
9.622271173675122,0.8668396979440016
9.999999999999984,0.786516192078123
