k [1/Mpc],P(k) [Mpc^3]
0.0001,357.6244502529826
0.00010392556829367125,369.51858188580417
0.00010800523745162529,381.80795353890085
0.00011224505680853065,394.50565494693444
0.00011665131316981963,407.62520302117287
0.00012123054013376525,421.1805638038527
0.00012598952777950273,435.18616964077086
0.00013093533273536104,449.6569259594553
0.00013607528864243335,464.6082045886589
0.00014141701702890234,480.05586880662014
0.00014696843861124463,496.01630469999554
0.00015273778503907136,512.5064453013806
0.00015873361110102093,529.5437786078026
0.00016496480740980205,547.1463485095636
0.0001714406135851971,565.3327738626931
0.00017817063195457305,584.1222732539754
0.00018516484179121546,603.5346658152577
0.000192433614111598,623.5904055185537
0.00019998772705352857,644.3106177011584
0.0002078383818579757,665.7171254015764
0.00021599721947827182,687.8324496373133
0.0002244763378413224,710.6797675771767
0.0002332883097864157,734.2829639314573
0.00024244620170823283,758.6666870044164
0.0002519635929317015,783.8563784143353
0.0002618545958474233,809.8782864942966
0.0002721338768375308,836.759446824082
0.0002828166780230032,864.5277113158547
0.0002939188398646886,893.2117930585491
0.0003054568246515432,922.8412588986174
0.00031744774091091926,953.446581679992
0.00032990936877709396,985.0591380666264
0.00034286018635565856,1017.7112189955317
0.00035631939712285854,1051.4360854246772
0.000370306958400514,1086.2679183966084
0.00038484361094874304,1122.2418862060636
0.0003999509097203664,1159.3941870669178
0.00041565125582259895,1197.7620510880458
0.00043196792973341727,1237.383789813018
0.0004489251258218605,1278.2986838400823
0.0004665479882234472,1320.5470313143808
0.000484862648123908,1364.1702600320616
0.000503896262506515,1409.2109181666021
0.0005236770544204653,1455.7127288943348
0.0005442343548300266,1503.7204894254937
0.0005655986461065005,1553.2800475671654
0.0005878016072274912,1604.438433633838
0.0006108761607505036,1657.2436901882868
0.0006348565216305217,1711.7450017949482
0.0006597782479539537,1767.9927697413102
0.0006856782936641739,1826.0385963680183
0.0007125950633568407,1885.9353218887104
0.0007405684692262436,1947.736692179254
0.0007696399902471156,2011.4974410763311
0.0007998527336796708,2077.2734736606562
0.000831251498989063,2145.121725166512
0.0008638828442740447,2215.100292574532
0.000897795155303332,2287.268183323479
0.0009330387172620361,2361.685230795099
0.0009696657893145519,2438.4122851512434
0.001007730682094461,2517.510704469994
0.0010472898382363582,2599.042632481158
0.0010884019160690055,2683.0709402958214
0.0011311278765939214,2769.6589445840436
0.001175531073878369,2858.8706682714837
0.0012216773489967915,2950.7700658343288
0.0012696351276599736,3045.4211618023664
0.0013194755216767058,3142.888190997911
0.0013712724343984,3243.2348419726086
0.0014251026703029975,3346.524799496612
0.0014810460488806749,3452.821176149756
0.0015391855229902056,3562.186273622111
0.001599607301861487,3674.681839361832
0.0016624009789266115,3790.3676930270103
0.0017276596646690358,3909.302370816426
0.0017954801246878305,4031.5428688734187
0.0018659629231817451,4157.143921846788
0.001939212572065829,4286.1585293727185
0.0020153376859417325,4418.636282652332
0.002094451143151469,4554.623611421418
0.002176670253153458,4694.163956860248
0.002262116930469025,4837.296337545143
0.002350917875457286,4984.056209188349
0.002443204762186487,5134.474048046319
0.0025391144336803463,5288.574850567044
0.002638789104828933,5446.378768843301
0.002742376573264949,5607.899163356149
0.0028500304385181063,5773.143358860938
0.0029619103297725525,5942.111604116218
0.0030781821425650787,6114.795628333714
0.003199018284775064,6291.179849545137
0.0033245979322709396,6471.239116904965
0.003455107294592217,6654.93901036685
0.0035907398910610534,6842.235507796607
0.0037316968377327513,7033.07235432615
0.0038781871456107214,7227.382819914624
0.0040304280305680515,7425.087050961968
0.00418864523543527,7626.09143153978
0.004353073364731888,7830.289462479743
0.00452395623253805,8037.556772600228
0.004701547224022131,8247.753958770074
0.004886109671160325,8460.725884969712
0.005077917243205399,8676.29991923873
0.005277254352483535,8894.286713103493
0.005484416576121017,9114.467759853354
0.005699711094326071,9336.599944826949
0.005923457145875801,9560.429985873141
0.006155986501483508,9785.708748891127
0.006397643955748424,10012.172027676797
0.0066487878384172625,10239.479538756805
0.0069097905457156435,10467.214674547176
0.007181039092537346,10694.941687475506
0.007462935686310132,10922.240821444191
0.007755898323389004,11148.683442286812
0.00806036140886134,11373.819810538851
0.008376776400682916,11597.178832200843
0.008705612479099857,11818.26556859248
0.009047357242349292,12036.521704590195
0.00940251742967013,12251.34537702112
0.009771619672696168,12462.105597418578
0.010155211276345676,12668.130090735312
0.010553861030365234,12868.7237718212
0.010968160052731372,13063.159532354202
0.011398722666160517,13250.68223154483
0.011846187309026826,13430.51591817354
0.012311217482038896,13601.839059307144
0.012794502732078732,13763.81240514649
0.013296759674662111,13915.573263861032
0.013818733056536317,14056.231163229399
0.014361196859990781,14184.893519259313
0.014924955450518284,14300.638570740683
0.015510844769528393,14402.541099310276
0.016119733573881575,14489.686681550007
0.01675252472408214,14561.163530112568
0.017410156523040152,14616.091965129597
0.018093604107387147,14653.621808434144
0.01880388089340914,14672.944022008242
0.019542040079740527,14673.31350860414
0.02030917620904734,14654.063562419924
0.021106426791015535,14614.610437441213
0.021934973989050584,14554.492101290278
0.02279604637318978,14473.385866050252
0.023690920741826323,14371.089489036272
0.02462092401494623,14247.622064379115
0.02558743520168586,14103.161318020211
0.02659188744512693,13938.082819590902
0.027635770147361564,13753.062976384475
0.028720631177978267,13548.912779672655
0.029848079169243254,13326.799831224645
0.03101978590138095,13088.151143426221
0.03223748878149028,12834.520409634191
0.0335029934197723,12567.8231867485
0.03481817630688963,12290.034421333849
0.03618498759642746,12003.488840199723
0.037605453996581675,11710.918049280848
0.03908168177536263,11414.850831466867
0.04061585988376978,11117.256474783222
0.04221026320156896,10819.802025567953
0.04386725591048496,10524.637182534187
0.0455892949998106,10234.966306648894
0.047378933909631396,9953.71405549316
0.049238826317067365,9682.26725601683
0.05117173007114603,9420.99914942544
0.05318051128214196,9169.638331839382
0.05526814857144601,8926.520414650968
0.057437737488265785,8689.767099819184
0.0596924950997073,8456.866361825932
0.0620357647610427,8225.230140411832
0.06447102107323864,7992.133165606462
0.06700187503509585,7754.894090439442
0.06963207939763882,7510.589095244255
0.0723655342286965,7256.471201250664
0.07520629269592405,6990.0848089796455
0.07815856707684081,6709.891408131032
0.08122673500479707,6416.003071090425
0.08441534596012978,6112.85188717747
0.0877291280161335,5805.675868171323
0.09117299484984914,5499.318051353531
0.09475205302806537,5200.58454321116
0.09847160957933764,4915.936390286434
0.1023371798632519,4650.791032546004
0.10635449574860109,4409.398097101185
0.11052951411260206,4193.923468773537
0.1148684256737553,4003.2906122118166
0.1193776641714435,3832.492387555724
0.1240639159058831,3672.758456325249
0.12893412965257148,3514.19842054762
0.13399552696593373,3348.7272675782756
0.1392556128874462,3172.2357695293344
0.14472218707411338,2985.526611400006
0.15040335536380234,2793.9627502427174
0.15630754179458153,2605.740724206982
0.16244350109588662,2429.312348641552
0.16882033167003618,2271.452512893972
0.17544748908334581,2135.675101174138
0.1823348000868439,2019.699023777505
0.189492477187382,1914.889854892448
0.19693113379074215,1811.1048728239882
0.20466179993919872,1702.1625579587867
0.21269593866686892,1587.3605567251718
0.22104546299710207,1472.1312846306628
0.22972275360711503,1365.2220161466144
0.23874067718606454,1271.7232590574424
0.2481126055137766,1191.168803751341
0.25785243528842716,1118.5746189323554
0.26797460873256895,1047.0758423156208
0.27849413500806414,973.5969019577982
0.28942661247167484,900.9182754646087
0.3007882518043098,834.4065697342226
0.31259590004822796,775.8710067002343
0.324867065587837,723.1893406818848
0.3376199441111335,672.5310556136575
0.35087344559027084,622.4962864546378
0.36464722232127456,575.2536382050524
0.37896169806447155,532.6641574853123
0.3938380983288488,493.8877496745348
0.4092984818452433,457.13604585788283
0.4253657732750382,422.01482136864627
0.44206379720285277,389.60889640695046
0.45941731346364734,359.9589074658617
0.47745205385661277,332.29813783166315
0.4961947603002895,306.285647173776
0.5156732244854959,282.2813680341523
0.5359163290848509,260.1279656875803
0.556954090580013,239.49830032223846
0.5788177037701272,220.37364030281483
0.6015395880274836,202.71647557544313
0.6251534353689703,186.3671241088327
0.6496942604146115,171.24512380926117
0.6751984523072497,157.28490948413304
0.7017038286703824,144.39118496637892
0.7292496916841444,132.49675710154563
0.7578768863625915,121.52725277733177
0.7876278611187046,111.41552220750138
0.8185467307069019,102.10008617404694
0.850679341636415,93.52327495869865
0.8840733401525058,85.6310548354983
0.9187782428863317,78.37283982876541
0.9548455102782278,71.70116495187197
0.9923286228832539,65.57164723673681
1.0312831606721837,59.942952665308574
1.0717668854455022,54.7766195937555
1.1138398264826193,50.03688705402408
1.1575643695533022,45.69052953943223
1.2030053494233226,41.70669817729117
1.2502301459914542,38.05677517681655
1.299308784200415,34.71423238596516
1.3503140378698726,31.654495988022717
1.4033215376054824,28.85481797490882
1.4584098829439835,26.294145995769558
1.5156607589006013,23.953009913680745
1.575159057091621,21.813426785934762
1.6369930016117014,19.858798157343248
1.7012542798525885,18.073812583133016
1.7680381784572046,16.444353273859935
1.8374437246107238,14.957407155532984
1.9095738328780953,13.60099000510309
1.9845354578058014,12.364074374083383
2.0624397525140905,11.236518504719239
2.143402233514853,10.20899996715251
2.227542951999554,9.272952556431576
2.314986671851158,8.420507331205844
2.405863054644063,7.644442513312641
2.5003068519063225,6.938133870554233
2.598458104929248,6.295508025876104
2.7004623524206774,5.710999056250323
2.806470846309834,5.179506862602076
2.916640776023701,4.696360689103452
3.031135501567576,4.2572863838069255
3.150124795755327,3.858374344241382
3.2737850959485697,3.4960498268677735
3.4022997656780634,3.167045416325147
3.5358593665351745,2.8683752792000465
3.6746619407366854,2.597312446466905
3.8189133047818515,2.3513675083897874
3.968827354637162,2.1282687255557073
4.1246263829013445,1.9259437189391182
4.286541408420921,1.7425023947579847
4.4548125188449825,1.5762213636492532
4.629689226627261,1.4255302146903681
4.811430839003257,1.2889984432568025
5.000306842491082,1.1653233940498327
5.196597302486189,1.053319186736211
5.400593278542364,0.9519064183888122
5.612597255954967,0.8601029920707599
5.8329235942862,0.777015741485945
6.06189899349756,0.7018326100631995
6.29986297838068,0.6338154907035479
6.547168402004727,0.5722936041151062
6.804181968927091,0.5166573401440954
7.071284778942991,0.4663530874695432
7.348872892180382,0.4208782883349543
7.637357916378006,0.37977683871325196
7.937167617217536,0.3426348971917836
8.248746552614573,0.3090773041743588
8.572556731909314,0.27876407094058886
8.909078300934132,0.2513867821418608
9.258810253973934,0.22666571545556494
9.622271173675122,0.2043472443919463
9.999999999999984,0.18420135461227521
