k [1/Mpc],P(k) [Mpc^3]
0.0001,557.0062883398984
0.00010392556829367125,575.5272651403836
0.00010800523745162529,594.6632100896949
0.00011224505680853065,614.434412737503
0.00011665131316981963,634.8618238385495
0.00012123054013376525,655.9670926847912
0.00012598952777950273,677.772582719119
0.00013093533273536104,700.3013782338431
0.00013607528864243335,723.5772939261495
0.00014141701702890234,747.6249143194918
0.00014696843861124463,772.4696072574411
0.00015273778503907136,798.1375505471361
0.00015873361110102093,824.6557579982283
0.00016496480740980205,852.0520763396248
0.0001714406135851971,880.3552361796335
0.00017817063195457305,909.5948818763607
0.00018516484179121546,939.801597455103
0.000192433614111598,971.0069339043256
0.00019998772705352857,1003.2433873322018
0.0002078383818579757,1036.544455655644
0.00021599721947827182,1070.9446612503405
0.0002244763378413224,1106.4795444670926
0.0002332883097864157,1143.1857433704656
0.00024244620170823283,1181.1010256001682
0.0002519635929317015,1220.2643227086696
0.0002618545958474233,1260.7157100115935
0.0002721338768375308,1302.4962794215364
0.0002828166780230032,1345.6483131116618
0.0002939188398646886,1390.2154138580283
0.0003054568246515432,1436.2425561305952
0.00031744774091091926,1483.7760069825213
0.00032990936877709396,1532.863028466126
0.00034286018635565856,1583.552096542997
0.00035631939712285854,1635.8930942582344
0.000370306958400514,1689.937375782478
0.00038484361094874304,1745.7377292804872
0.0003999509097203664,1803.3481076988962
0.00041565125582259895,1862.8237300794217
0.00043196792973341727,1924.2212645862073
0.0004489251258218605,1987.5987912425846
0.0004665479882234472,2053.0158804616563
0.000484862648123908,2120.533304933124
0.000503896262506515,2190.2129947128115
0.0005236770544204653,2262.1183529175387
0.0005442343548300266,2336.3142263534796
0.0005655986461065005,2412.8669589834876
0.0005878016072274912,2491.84411132721
0.0006108761607505036,2573.314183996191
0.0006348565216305217,2657.3470448068883
0.0006597782479539537,2744.0137362837677
0.0006856782936641739,2833.3865486201885
0.0007125950633568407,2925.538955123679
0.0007405684692262436,3020.5451797493415
0.0007696399902471156,3118.4805754785693
0.0007998527336796708,3219.4211928033315
0.000831251498989063,3323.4436917318117
0.0008638828442740447,3430.6255716479523
0.000897795155303332,3541.0443874270013
0.0009330387172620361,3654.778193523664
0.0009696657893145519,3771.9051954518595
0.001007730682094461,3892.5032650342514
0.0010472898382363582,4016.6504165713945
0.0010884019160690055,4144.423474041865
0.0011311278765939214,4275.898431471564
0.001175531073878369,4411.150438979064
0.0012216773489967915,4550.252588037004
0.0012696351276599736,4693.276828611165
0.0013194755216767058,4840.292771470145
0.0013712724343984,4991.36746090192
0.0014251026703029975,5146.565726911607
0.0014810460488806749,5305.948204969336
0.0015391855229902056,5469.5723619854425
0.001599607301861487,5637.491532014975
0.0016624009789266115,5809.753848259262
0.0017276596646690358,5986.403182580603
0.0017954801246878305,6167.476568553658
0.0018659629231817451,6353.004864800908
0.001939212572065829,6543.012654831376
0.0020153376859417325,6737.516393392188
0.002094451143151469,6936.52555638208
0.002176670253153458,7140.040312209239
0.002262116930469025,7348.051207310699
0.002350917875457286,7560.539641256019
0.002443204762186487,7777.4748646624375
0.0025391144336803463,7998.815484538847
0.002638789104828933,8224.507831783338
0.002742376573264949,8454.484536452366
0.0028500304385181063,8688.665661343188
0.0029619103297725525,8926.954523018
0.0030781821425650787,9169.239057873801
0.003199018284775064,9415.391014646386
0.0033245979322709396,9665.262592749292
0.003455107294592217,9918.689259152621
0.0035907398910610534,10175.485381657281
0.0037316968377327513,10435.44442057792
0.0038781871456107214,10698.339890554074
0.0040304280305680515,10963.919583998164
0.00418864523543527,11231.90984642374
0.004353073364731888,11502.013509758735
0.00452395623253805,11773.90849007503
0.004701547224022131,12047.247280866943
0.004886109671160325,12321.633364820276
0.005077917243205399,12596.63479328384
0.005277254352483535,12871.815285380018
0.005484416576121017,13146.758112325704
0.005699711094326071,13421.022778225248
0.005923457145875801,13694.020798138907
0.006155986501483508,13965.044680883688
0.006397643955748424,14233.374586347689
0.0066487878384172625,14498.343634415045
0.0069097905457156435,14759.279502459369
0.007181039092537346,15015.483729488302
0.007462935686310132,15266.232493862268
0.007755898323389004,15510.765668812546
0.00806036140886134,15748.193120820635
0.008376776400682916,15977.561314976441
0.008705612479099857,16197.909272744331
0.009047357242349292,16408.283591871692
0.00940251742967013,16607.71385182647
0.009771619672696168,16795.099513140372
0.010155211276345676,16969.255775033846
0.010553861030365234,17128.995489469657
0.010968160052731372,17273.135993634285
0.011398722666160517,17400.506850005782
0.011846187309026826,17509.879040510485
0.012311217482038896,17599.969591896854
0.012794502732078732,17669.515692559886
0.013296759674662111,17717.207592289305
0.013818733056536317,17741.767071008235
0.014361196859990781,17741.943337290137
0.014924955450518284,17716.491258392656
0.015510844769528393,17664.261710177743
0.016119733573881575,17584.139849513856
0.01675252472408214,17475.10672862796
0.017410156523040152,17336.28605385201
0.018093604107387147,17166.910747362763
0.01880388089340914,16966.412472073644
0.019542040079740527,16734.429775668916
0.02030917620904734,16470.827691157843
0.021106426791015535,16175.749922220066
0.021934973989050584,15849.678480796865
0.02279604637318978,15493.396431810694
0.023690920741826323,15108.092628041915
0.02462092401494623,14695.410104647899
0.02558743520168586,14257.289006697598
0.02659188744512693,13796.280641758247
0.027635770147361564,13315.278280798871
0.028720631177978267,12817.547236105456
0.029848079169243254,12307.083330891004
0.03101978590138095,11787.877573497944
0.03223748878149028,11264.40714849839
0.0335029934197723,10741.356337091145
0.03481817630688963,10223.277946520762
0.03618498759642746,9715.706406142805
0.037605453996581675,9223.68877064991
0.03908168177536263,8751.238793782893
0.04061585988376978,8301.403924270095
0.04221026320156896,7876.85295138434
0.04386725591048496,7482.351994349396
0.0455892949998106,7122.796347735851
0.047378933909631396,6800.081250185657
0.049238826317067365,6512.5130039252
0.05117173007114603,6257.992721466224
0.05318051128214196,6033.754115800426
0.05526814857144601,5836.720391022563
0.057437737488265785,5662.0705409209295
0.0596924950997073,5504.687682554623
0.0620357647610427,5358.976209188332
0.06447102107323864,5218.056480599
0.06700187503509585,5072.541149040471
0.06963207939763882,4913.007868038151
0.0723655342286965,4731.05792337477
0.07520629269592405,4521.11109453225
0.07815856707684081,4281.67475454052
0.08122673500479707,4015.6954660019683
0.08441534596012978,3730.1118741439273
0.0877291280161335,3434.4590254112386
0.09117299484984914,3140.1792421185196
0.09475205302806537,2859.2200823616467
0.09847160957933764,2603.9344005631538
0.1023371798632519,2384.800617253879
0.10635449574860109,2208.5342583718584
0.11052951411260206,2076.371842833624
0.1148684256737553,1983.2019461300583
0.1193776641714435,1918.5704370673823
0.1240639159058831,1868.158322662951
0.12893412965257148,1815.9144903484885
0.13399552696593373,1747.2379938347729
0.1392556128874462,1652.6467652963854
0.14472218707411338,1530.493386818176
0.15040335536380234,1388.2195418781416
0.15630754179458153,1241.7225575812163
0.16244350109588662,1110.3208668276902
0.16882033167003618,1008.0173473349554
0.17544748908334581,938.3966095223079
0.1823348000868439,895.9793928646642
0.189492477187382,867.9707104648769
0.19693113379074215,836.5477077818603
0.20466179993919872,787.8499210146884
0.21269593866686892,720.2295885430218
0.22104546299710207,644.0579471712368
0.22972275360711503,575.3605458640346
0.23874067718606454,525.6381606809252
0.2481126055137766,495.44728764144276
0.25785243528842716,474.29108004511266
0.26797460873256895,448.37981941600066
0.27849413500806414,411.7260166413526
0.28942661247167484,369.60508403558475
0.3007882518043098,333.5278721909833
0.31259590004822796,308.9901479357071
0.324867065587837,291.5256154983026
0.3376199441111335,272.21355225297526
0.35087344559027084,248.01474850610737
0.36464722232127456,224.12205189985474
0.37896169806447155,205.9349609720076
0.3938380983288488,192.01825858625034
0.4092984818452433,177.42824372541094
0.4253657732750382,161.37143131437622
0.44206379720285277,147.2572747006051
0.45941731346364734,136.0439312164822
0.47745205385661277,125.27383394170519
0.4961947603002895,114.23326847768955
0.5156732244854959,104.51449010667427
0.5359163290848509,96.12423822245427
0.556954090580013,87.94478287064118
0.5788177037701272,80.31224657459728
0.6015395880274836,73.60584266105171
0.6251534353689703,67.32034461731462
0.6496942604146115,61.458190570603804
0.6751984523072497,56.129314389571
0.7017038286703824,51.28045386304153
0.7292496916841444,46.85255699833256
0.7578768863625915,42.79580587144224
0.7876278611187046,39.06894131003494
0.8185467307069019,35.64496317894867
0.850679341636415,32.503836144424476
0.8840733401525058,29.626183701884443
0.9187782428863317,26.993311381919437
0.9548455102782278,24.58729018018345
0.9923286228832539,22.390463782447128
1.0312831606721837,20.38500666373868
1.0717668854455022,18.55442204144549
1.1138398264826193,16.883647168350013
1.1575643695533022,15.358925270412616
1.2030053494233226,13.967705393001461
1.2502301459914542,12.698693451193687
1.299308784200415,11.541623103983403
1.3503140378698726,10.4870377097394
1.4033215376054824,9.526230395613213
1.4584098829439835,8.651190146037715
1.5156607589006013,7.854538294377656
1.575159057091621,7.129467434603943
1.6369930016117014,6.469733999145785
1.7012542798525885,5.869619529731163
1.7680381784572046,5.323888488168053
1.8374437246107238,4.827749483833339
1.9095738328780953,4.376821721430084
1.9845354578058014,3.967099767769002
2.0624397525140905,3.594920629468059
2.143402233514853,3.256935753657343
2.227542951999554,2.9500852266512663
2.314986671851158,2.671573445219222
2.405863054644063,2.4188465033067685
2.5003068519063225,2.189573580657672
2.598458104929248,1.9816284529299157
2.7004623524206774,1.7930721783300332
2.806470846309834,1.622137155917656
2.916640776023701,1.4672121686751487
3.031135501567576,1.3268291995935964
3.150124795755327,1.1996514262068074
3.2737850959485697,1.084461864748218
3.4022997656780634,0.9801529517104641
3.5358593665351745,0.8857170156295585
3.6746619407366854,0.8002375603175467
3.8189133047818515,0.7228811969602889
3.968827354637162,0.652890309851228
4.1246263829013445,0.5895763585976944
4.286541408420921,0.5323137409647083
4.4548125188449825,0.4805340316796751
4.629689226627261,0.4337209711772738
4.811430839003257,0.3914059553548528
5.000306842491082,0.35316374295364067
5.196597302486189,0.3186085340571147
5.400593278542364,0.28739040254390635
5.612597255954967,0.2591920509279842
5.8329235942862,0.2337258055512264
6.06189899349756,0.21073090413133935
6.29986297838068,0.18997103210865252
6.547168402004727,0.1712320745913034
6.804181968927091,0.15432000395928933
7.071284778942991,0.13905906201687238
7.348872892180382,0.12529014512677325
7.637357916378006,0.11286925537200658
7.937167617217536,0.10166609033379599
8.248746552614573,0.09156279638747201
8.572556731909314,0.08245287537529093
8.909078300934132,0.07423999156899458
9.258810253973934,0.06683699134926559
9.622271173675122,0.060165046726468996
9.999999999999984,0.05415286688903895
