k [1/Mpc],P(k) [Mpc^3]
0.0001,82.11317687466983
0.00010392556829367125,85.8299098947914
0.00010800523745162529,89.71479467451104
0.00011224505680853065,93.77542730274457
0.00011665131316981963,98.0197452373348
0.00012123054013376525,102.45604453865356
0.00012598952777950273,107.09299663345836
0.00013093533273536104,111.93966313928738
0.00013607528864243335,117.00550778778421
0.00014141701702890234,122.30041669713404
0.00014696843861124463,127.83472110468506
0.00015273778503907136,133.6192191914355
0.00015873361110102093,139.66519453138278
0.00016496480740980205,145.98443325752686
0.0001714406135851971,152.589246618554
0.00017817063195457305,159.49249593698227
0.00018516484179121546,166.70761193350913
0.000192433614111598,174.24862395897082
0.00019998772705352857,182.13019107456574
0.0002078383818579757,190.36763152063202
0.00021599721947827182,198.97694578974492
0.0002244763378413224,207.97482803120096
0.0002332883097864157,217.3787048620749
0.00024244620170823283,227.20677728976102
0.0002519635929317015,237.47805652815504
0.0002618545958474233,248.2123961919334
0.0002721338768375308,259.4305153747441
0.0002828166780230032,271.15403735090445
0.0002939188398646886,283.4055347361879
0.0003054568246515432,296.20855972650617
0.00031744774091091926,309.58769445295474
0.00032990936877709396,323.56858557236365
0.00034286018635565856,338.17798398946786
0.00035631939712285854,353.4438010538997
0.000370306958400514,369.3951311624715
0.00038484361094874304,386.0623145632103
0.0003999509097203664,403.4769943363398
0.00041565125582259895,421.6721612504693
0.00043196792973341727,440.6822168300029
0.0004489251258218605,460.5429805703434
0.0004665479882234472,481.2917542824517
0.000484862648123908,502.9674123922874
0.000503896262506515,525.610451184842
0.0005236770544204653,549.2630633675417
0.0005442343548300266,573.9691561580217
0.0005655986461065005,599.7743981777021
0.0005878016072274912,626.7263279101081
0.0006108761607505036,654.8743478771792
0.0006348565216305217,684.269835726729
0.0006597782479539537,714.966238255655
0.0006856782936641739,747.0191322774132
0.0007125950633568407,780.4863085830035
0.0007405684692262436,815.4277043156083
0.0007696399902471156,851.9055031237696
0.0007998527336796708,889.9842826953129
0.000831251498989063,929.7310289707232
0.0008638828442740447,971.2152676466253
0.000897795155303332,1014.5090317929006
0.0009330387172620361,1059.6868986087109
0.0009696657893145519,1106.826150420906
0.001007730682094461,1156.0066222939836
0.0010472898382363582,1207.3109008268175
0.0010884019160690055,1260.824375705134
0.0011311278765939214,1316.6351850277088
0.001175531073878369,1374.8344141333637
0.0012216773489967915,1435.5158011698686
0.0012696351276599736,1498.7758678203725
0.0013194755216767058,1564.714056929745
0.0013712724343984,1633.4324247759455
0.0014251026703029975,1705.0359702545431
0.0014810460488806749,1779.6324116348312
0.0015391855229902056,1857.332116252496
0.001599607301861487,1938.2482836845386
0.0016624009789266115,2022.4962691494754
0.0017276596646690358,2110.1939459640275
0.0017954801246878305,2201.461599735582
0.0018659629231817451,2296.4215561326528
0.001939212572065829,2395.198478072836
0.0020153376859417325,2497.9184387919886
0.002094451143151469,2604.709026770265
0.002176670253153458,2715.6994152831276
0.002262116930469025,2831.019496289569
0.002350917875457286,2950.800311811222
0.002443204762186487,3075.1731536360367
0.0025391144336803463,3204.269156124837
0.002638789104828933,3338.2195593514193
0.002742376573264949,3477.1543925454407
0.0028500304385181063,3621.20276409231
0.0029619103297725525,3770.492037448317
0.0030781821425650787,3925.146695512515
0.003199018284775064,4085.2888542853093
0.0033245979322709396,4251.036544032525
0.003455107294592217,4422.50357755651
0.0035907398910610534,4599.798994851272
0.0037316968377327513,4783.024917322181
0.0038781871456107214,4972.2772833061545
0.0040304280305680515,5167.643584520834
0.00418864523543527,5369.201873942549
0.004353073364731888,5577.0208043025805
0.00452395623253805,5791.155461832886
0.004701547224022131,6011.648635927207
0.004886109671160325,6238.5295945134285
0.005077917243205399,6471.812006965316
0.005277254352483535,6711.493667981434
0.005484416576121017,6957.546140847249
0.005699711094326071,7209.916831400263
0.005923457145875801,7468.5389842735185
0.006155986501483508,7733.342323814699
0.006397643955748424,8004.237652226691
0.0066487878384172625,8281.066584471366
0.0069097905457156435,8563.597522404243
0.007181039092537346,8851.569016381713
0.007462935686310132,9144.717827818762
0.007755898323389004,9442.758179980327
0.00806036140886134,9745.37038877913
0.008376776400682916,10052.199119532128
0.008705612479099857,10362.84961587463
0.009047357242349292,10676.850869644762
0.00940251742967013,10993.669557578645
0.009771619672696168,11312.720183686497
0.010155211276345676,11633.351626819578
0.010553861030365234,11954.861300874807
0.010968160052731372,12276.484394172578
0.011398722666160517,12597.3949950552
0.011846187309026826,12916.71050756786
0.012311217482038896,13233.46534796683
0.012794502732078732,13546.634702408837
0.013296759674662111,13855.126637619125
0.013818733056536317,14157.775148871078
0.014361196859990781,14453.36340307641
0.014924955450518284,14740.594362824035
0.015510844769528393,15018.114472192161
0.016119733573881575,15284.527022846198
0.01675252472408214,15538.382612925789
0.017410156523040152,15778.209610606571
0.018093604107387147,16002.511777214317
0.01880388089340914,16209.781463704756
0.019542040079740527,16398.526209037736
0.02030917620904734,16567.287732917965
0.021106426791015535,16714.65087662285
0.021934973989050584,16839.29260801143
0.02279604637318978,16940.009592014452
0.023690920741826323,17015.70420537679
0.02462092401494623,17065.512781647092
0.02558743520168586,17088.74432141302
0.02659188744512693,17084.939355575316
0.027635770147361564,17054.011633009042
0.028720631177978267,16996.061451658126
0.029848079169243254,16911.667940418636
0.03101978590138095,16801.791539161048
0.03223748878149028,16667.622580633095
0.0335029934197723,16510.901912786136
0.03481817630688963,16333.548894073632
0.03618498759642746,16138.072905838577
0.037605453996581675,15927.655156175299
0.03908168177536263,15705.358901932821
0.04061585988376978,15473.621602024914
0.04221026320156896,15234.576434970772
0.04386725591048496,14991.14916102122
0.0455892949998106,14747.925390165501
0.047378933909631396,14509.297892774524
0.049238826317067365,14277.593913122411
0.05117173007114603,14053.731317549415
0.05318051128214196,13837.690436640738
0.05526814857144601,13627.316073472157
0.057437737488265785,13420.014521425432
0.0596924950997073,13212.075268194749
0.0620357647610427,12999.491131460969
0.06447102107323864,12777.84829700033
0.06700187503509585,12542.601077773788
0.06963207939763882,12288.601568112488
0.0723655342286965,12010.764715210234
0.07520629269592405,11704.270513254567
0.07815856707684081,11365.645862434409
0.08122673500479707,10994.105845444574
0.08441534596012978,10596.341495004743
0.0877291280161335,10180.79238168876
0.09117299484984914,9755.608323612189
0.09475205302806537,9332.8524791292
0.09847160957933764,8924.527197479318
0.1023371798632519,8541.271196593709
0.10635449574860109,8192.033466736808
0.11052951411260206,7882.2395797282625
0.1148684256737553,7611.372388831248
0.1193776641714435,7371.296418366244
0.1240639159058831,7146.142374055745
0.12893412965257148,6917.072039510458
0.13399552696593373,6667.952853321171
0.1392556128874462,6389.912661802326
0.14472218707411338,6083.690802760125
0.15040335536380234,5759.483267282838
0.15630754179458153,5433.889867895695
0.16244350109588662,5124.832928220675
0.16882033167003618,4847.487951047658
0.17544748908334581,4610.680019192523
0.1823348000868439,4410.960582029011
0.189492477187382,4230.649455260518
0.19693113379074215,4047.842119376946
0.20466179993919872,3848.555214330717
0.21269593866686892,3630.688548911547
0.22104546299710207,3406.251221490811
0.22972275360711503,3195.5832710245522
0.23874067718606454,3011.3150343835505
0.2481126055137766,2853.3405696938917
0.25785243528842716,2710.578464969651
0.26797460873256895,2566.799140246759
0.27849413500806414,2414.402382470509
0.28942661247167484,2260.125664854849
0.3007882518043098,2117.588780940165
0.31259590004822796,1991.9120463926363
0.324867065587837,1878.2325975625572
0.3376199441111335,1766.9588007050756
0.35087344559027084,1654.503031026369
0.36464722232127456,1546.7028957500709
0.37896169806447155,1448.8309720564175
0.3938380983288488,1358.9679783927088
0.4092984818452433,1272.4571289292344
0.4253657732750382,1188.3438366904873
0.44206379720285277,1109.8390504354547
0.45941731346364734,1037.2914161279575
0.47745205385661277,968.7071136336446
0.4961947603002895,903.2499572282429
0.5156732244854959,842.1321345975155
0.5359163290848509,785.0580897905561
0.556954090580013,731.1961679825226
0.5788177037701272,680.6249092531424
0.6015395880274836,633.3648576983592
0.6251534353689703,589.04834727311
0.6496942604146115,547.5409113971433
0.6751984523072497,508.7473263215075
0.7017038286703824,472.4680943187456
0.7292496916841444,438.5850025120793
0.7578768863625915,406.9480115498022
0.7876278611187046,377.42240082119093
0.8185467307069019,349.88458076768103
0.850679341636415,324.2165080239207
0.8840733401525058,300.305602040995
0.9187782428863317,278.04458789826543
0.9548455102782278,257.33081567557065
0.9923286228832539,238.06656241981426
1.0312831606721837,220.15936359533188
1.0717668854455022,203.52182076222286
1.1138398264826193,188.07140001574135
1.1575643695533022,173.73022744783495
1.2030053494233226,160.42488193075025
1.2502301459914542,148.08621271740216
1.299308784200415,136.64914869613483
1.3503140378698726,126.05250752486938
1.4033215376054824,116.23880802793444
1.4584098829439835,107.15405269732702
1.5156607589006013,98.7475542363658
1.575159057091621,90.97181774490801
1.6369930016117014,83.78237363692473
1.7012542798525885,77.137612964275
1.7680381784572046,70.99862556252384
1.8374437246107238,65.32902572454785
1.9095738328780953,60.09482980938793
1.9845354578058014,55.26433129115168
2.0624397525140905,50.80796543359866
2.143402233514853,46.6981803130191
2.227542951999554,42.909308476917104
2.314986671851158,39.417443923642985
2.405863054644063,36.20034767862908
2.5003068519063225,33.237344630807144
2.598458104929248,30.50922314101623
2.7004623524206774,27.998139829631196
2.806470846309834,25.68752281889565
2.916640776023701,23.56199061828835
3.031135501567576,21.60728114172638
3.150124795755327,19.810176300369083
3.2737850959485697,18.158430809499414
3.4022997656780634,16.64070476591188
3.5358593665351745,15.246498576851684
3.6746619407366854,13.966097375453566
3.8189133047818515,12.790517145361298
3.968827354637162,11.711452925333722
4.1246263829013445,10.721230372938424
4.286541408420921,9.812759215682261
4.4548125188449825,8.979490402410436
4.629689226627261,8.215379505994568
4.811430839003257,7.514850042710757
5.000306842491082,6.8727589709706445
5.196597302486189,6.2843644886356795
5.400593278542364,5.745295201363313
5.612597255954967,5.251523025424007
5.8329235942862,4.799338202945731
6.06189899349756,4.385325192013144
6.29986297838068,4.006340266955257
6.547168402004727,3.6594902759238384
6.804181968927091,3.3421122431272234
7.071284778942991,3.0517573998642336
7.348872892180382,2.786175025154974
7.637357916378006,2.5432969466662043
7.937167617217536,2.3212232437902234
8.248746552614573,2.118210688764596
8.572556731909314,1.9326604536376606
8.909078300934132,1.7631039697500404
9.258810253973934,1.608192536646718
9.622271173675122,1.4666879195312217
9.999999999999984,1.3374528216384383
