k [1/Mpc],P(k) [Mpc^3]
0.0001,12713.820299249612
0.00010392556829367125,13135.1959599944
0.00010800523745162529,13570.405232890713
0.00011224505680853065,14019.887180693566
0.00011665131316981963,14484.09348362464
0.00012123054013376525,14963.488959821154
0.00012598952777950273,15458.550622457778
0.00013093533273536104,15969.766262425388
0.00013607528864243335,16497.637020558603
0.00014141701702890234,17042.677589245435
0.00014696843861124463,17605.416622193057
0.00015273778503907136,18186.3958322882
0.00015873361110102093,18786.166957184043
0.00016496480740980205,19405.295108986586
0.0001714406135851971,20044.358219403923
0.00017817063195457305,20703.94710040996
0.00018516484179121546,21384.665924325327
0.000192433614111598,22087.128230342572
0.00019998772705352857,22811.959975797497
0.0002078383818579757,23559.797674514954
0.00021599721947827182,24331.2865986365
0.0002244763378413224,25127.083869607177
0.0002332883097864157,25947.85349817333
0.00024244620170823283,26794.268759524533
0.0002519635929317015,27667.01107986964
0.0002618545958474233,28566.765732972064
0.0002721338768375308,29494.226080950724
0.0002828166780230032,30450.08553483178
0.0002939188398646886,31435.038904742287
0.0003054568246515432,32449.78478976152
0.00031744774091091926,33495.01965460097
0.00032990936877709396,34571.44165994947
0.00034286018635565856,35679.741510575026
0.00035631939712285854,36820.60036520432
0.000370306958400514,37994.69485574722
0.00038484361094874304,39202.687615347946
0.0003999509097203664,40445.231781334165
0.00041565125582259895,41722.96549342003
0.00043196792973341727,43036.50634061539
0.0004489251258218605,44386.455559298665
0.0004665479882234472,45773.38258152899
0.000484862648123908,47197.8296298371
0.000503896262506515,48660.309385719156
0.0005236770544204653,50161.29428648846
0.0005442343548300266,51701.22321669347
0.0005655986461065005,53280.4833866472
0.0005878016072274912,54899.41102477783
0.0006108761607505036,56558.289014787144
0.0006348565216305217,58257.32007223518
0.0006597782479539537,59996.64464601813
0.0006856782936641739,61776.32126496987
0.0007125950633568407,63596.32001112011
0.0007405684692262436,65456.527325579664
0.0007696399902471156,67356.70046085113
0.0007998527336796708,69296.49228579427
0.000831251498989063,71275.43814570749
0.0008638828442740447,73292.93787678433
0.000897795155303332,75348.27272754603
0.0009330387172620361,77440.56382707905
0.0009696657893145519,79568.78579270218
0.001007730682094461,81731.76131477214
0.0010472898382363582,83928.13235772314
0.0010884019160690055,86156.38675153664
0.0011311278765939214,88414.85722103484
0.001175531073878369,90701.71740095009
0.0012216773489967915,93014.96310643789
0.0012696351276599736,95352.3718317043
0.0013194755216767058,97711.53332090123
0.0013712724343984,100089.81080438945
0.0014251026703029975,102484.33378118412
0.0014810460488806749,104892.04175127337
0.0015391855229902056,107309.70073275312
0.001599607301861487,109733.89226756262
0.0016624009789266115,112161.01078387223
0.0017276596646690358,114587.2665381339
0.0017954801246878305,117008.67952603185
0.0018659629231817451,119421.0349788517
0.001939212572065829,121819.91289875456
0.0020153376859417325,124200.7215745034
0.002094451143151469,126558.70963080887
0.002176670253153458,128888.96870990476
0.002262116930469025,131186.43848655734
0.002350917875457286,133445.91930577843
0.002443204762186487,135662.09494081742
0.0025391144336803463,137829.56315000964
0.002638789104828933,139942.83164787636
0.002742376573264949,141996.26061552254
0.0028500304385181063,143984.07536705406
0.0029619103297725525,145900.46727988773
0.0030781821425650787,147739.67622728992
0.003199018284775064,149495.95721098737
0.0033245979322709396,151163.02403292805
0.003455107294592217,152733.77431684913
0.0035907398910610534,154201.39934665876
0.0037316968377327513,155561.83218923205
0.0038781871456107214,156812.45583180842
0.0040304280305680515,157948.0340424217
0.00418864523543527,158957.2152150732
0.004353073364731888,159828.21157291648
0.00452395623253805,160553.6620124884
0.004701547224022131,161129.50885772982
0.004886109671160325,161552.06975373736
0.005077917243205399,161817.83744036933
0.005277254352483535,161923.61464083992
0.005484416576121017,161864.8020919268
0.005699711094326071,161635.3975029863
0.005923457145875801,161229.72895592244
0.006155986501483508,160642.01349136594
0.006397643955748424,159866.93562154457
0.0066487878384172625,158899.75919579435
0.0069097905457156435,157736.30652852816
0.007181039092537346,156373.16229513375
0.007462935686310132,154806.74419530598
0.007755898323389004,153034.03585979895
0.00806036140886134,151052.7098952149
0.008376776400682916,148860.60066538144
0.008705612479099857,146456.7186684848
0.009047357242349292,143839.73158395904
0.00940251742967013,141008.76111945824
0.009771619672696168,137964.36444181236
0.010155211276345676,134707.51264570202
0.010553861030365234,131241.1097348656
0.010968160052731372,127569.02219457124
0.011398722666160517,123696.28294234886
0.011846187309026826,119630.22697959638
0.012311217482038896,115378.62232499733
0.012794502732078732,110951.72636814961
0.013296759674662111,106362.06478789976
0.013818733056536317,101624.0172681327
0.014361196859990781,96755.18196559079
0.014924955450518284,91774.85373376418
0.015510844769528393,86704.99902237636
0.016119733573881575,81570.71312204463
0.01675252472408214,76399.646388941
0.017410156523040152,71221.79533952389
0.018093604107387147,66069.68532518214
0.01880388089340914,60977.097057148625
0.019542040079740527,55979.01195329768
0.02030917620904734,51113.429985329574
0.021106426791015535,46415.53622117324
0.021934973989050584,41919.845875730025
0.02279604637318978,37658.04586769556
0.023690920741826323,33657.28854188872
0.02462092401494623,29951.97562858819
0.02558743520168586,26565.55456948771
0.02659188744512693,23510.10625493076
0.027635770147361564,20789.33095180893
0.028720631177978267,18396.790762824323
0.029848079169243254,16331.4060496848
0.03101978590138095,14586.38588880762
0.03223748878149028,13147.454992413099
0.0335029934197723,11999.893812074783
0.03481817630688963,11127.67799086809
0.03618498759642746,10504.726722336396
0.037605453996581675,10105.263743402104
0.03908168177536263,9904.58186752001
0.04061585988376978,9861.515755760423
0.04221026320156896,9939.830088183186
0.04386725591048496,10109.975355944965
0.0455892949998106,10339.625966071504
0.047378933909631396,10560.114916372893
0.049238826317067365,10685.375142993731
0.05117173007114603,10648.43495115236
0.05318051128214196,10401.110029391273
0.05526814857144601,9924.098364198691
0.057437737488265785,9219.052952679209
0.0596924950997073,8309.926639442456
0.0620357647610427,7249.37617356868
0.06447102107323864,6121.02867200189
0.06700187503509585,5027.6370845651345
0.06963207939763882,4067.3059467882654
0.0723655342286965,3282.5907419627165
0.07520629269592405,2702.0328151978615
0.07815856707684081,2347.974849056841
0.08122673500479707,2185.6061387727273
0.08441534596012978,2176.1146283706385
0.0877291280161335,2282.412679240786
0.09117299484984914,2451.166320318345
0.09475205302806537,2611.28075182887
0.09847160957933764,2676.6997064701686
0.1023371798632519,2575.835827664838
0.10635449574860109,2301.7487666215325
0.11052951411260206,1922.2515313869173
0.1148684256737553,1527.6236070783505
0.1193776641714435,1196.595333676712
0.1240639159058831,982.7284147575728
0.12893412965257148,891.7650206035684
0.13399552696593373,894.8489136402942
0.1392556128874462,948.5949140290351
0.14472218707411338,992.5462224299732
0.15040335536380234,967.7468197260986
0.15630754179458153,859.6245291590326
0.16244350109588662,706.0658854257919
0.16882033167003618,571.5913589290017
0.17544748908334581,491.81518219520353
0.1823348000868439,467.42081647704003
0.189492477187382,472.64227112658676
0.19693113379074215,466.7252963747916
0.20466179993919872,426.87620058833573
0.21269593866686892,364.1291958298073
0.22104546299710207,310.270723888827
0.22972275360711503,281.2976288641772
0.23874067718606454,270.2216092116963
0.2481126055137766,257.189218938736
0.25785243528842716,231.73257778762408
0.26797460873256895,202.62249858545476
0.27849413500806414,181.9033131781654
0.28942661247167484,169.57364729617652
0.3007882518043098,157.2063473992684
0.31259590004822796,141.31668363830025
0.324867065587837,126.51110385675072
0.3376199441111335,115.73692622761672
0.35087344559027084,106.22830512326617
0.36464722232127456,96.03874163107929
0.37896169806447155,86.76035850100703
0.3938380983288488,79.11297303556428
0.4092984818452433,71.9261531995172
0.4253657732750382,65.08235381046347
0.44206379720285277,59.101812405099366
0.45941731346364734,53.66608992476765
0.47745205385661277,48.61959206411557
0.4961947603002895,44.0956626159485
0.5156732244854959,39.98727205931765
0.5359163290848509,36.24636332826968
0.556954090580013,32.84276986206428
0.5788177037701272,29.74897036085072
0.6015395880274836,26.93922351446273
0.6251534353689703,24.38952428609068
0.6496942604146115,22.077532143566998
0.6751984523072497,19.981958691640806
0.7017038286703824,18.082621724167293
0.7292496916841444,16.36119343819057
0.7578768863625915,14.801074184024902
0.7876278611187046,13.387226076783483
0.8185467307069019,12.106029676352106
0.850679341636415,10.94524780565681
0.8840733401525058,9.89383991934945
0.9187782428863317,8.941747241515538
0.9548455102782278,8.079806169014843
0.9923286228832539,7.29967208960638
1.0312831606721837,6.593747431775447
1.0717668854455022,5.9551024857550665
1.1138398264826193,5.377430823308988
1.1575643695533022,4.855005868222118
1.2030053494233226,4.382628872225439
1.2502301459914542,3.9555813062230842
1.299308784200415,3.569581714385403
1.3503140378698726,3.2207473196745435
1.4033215376054824,2.905556319504555
1.4584098829439835,2.6208143911871664
1.5156607589006013,2.3636249171199193
1.575159057091621,2.131361846383785
1.6369930016117014,1.9216448717242318
1.7012542798525885,1.7323166900054565
1.7680381784572046,1.5614228776157675
1.8374437246107238,1.4071932821793534
1.9095738328780953,1.2680249832925474
1.9845354578058014,1.1424667928532362
2.0624397525140905,1.0292050703991897
2.143402233514853,0.9270508215157034
2.227542951999554,0.8349283078532698
2.314986671851158,0.7518644790999301
2.405863054644063,0.6769793329367547
2.5003068519063225,0.60947716233452
2.598458104929248,0.5486385910544116
2.7004623524206774,0.4938133603357015
2.806470846309834,0.4444138266712853
2.916640776023701,0.39990902718021665
3.031135501567576,0.35981929408786306
3.150124795755327,0.3237113713583991
3.2737850959485697,0.2911939684589056
3.4022997656780634,0.2619137569426121
3.5358593665351745,0.23555176517094803
3.6746619407366854,0.21182008403867528
3.8189133047818515,0.1904588822316474
3.968827354637162,0.171233701993022
4.1246263829013445,0.15393298805847658
4.286541408420921,0.13836589260082507
4.4548125188449825,0.12436029656690728
4.629689226627261,0.11176099372411641
4.811430839003257,0.10042804786334265
5.000306842491082,0.0902353097810851
5.196597302486189,0.08106909021115119
5.400593278542364,0.07282692925891524
5.612597255954967,0.06541648915222899
5.8329235942862,0.05875456590745352
6.06189899349756,0.05276619630037059
6.29986297838068,0.04738384518706658
6.547168402004727,0.042546654788136726
6.804181968927091,0.03819981836899252
7.071284778942991,0.03429399564621784
7.348872892180382,0.03078477213371345
7.637357916378006,0.027632171473301506
7.937167617217536,0.024800223200580753
8.248746552614573,0.022256580513964216
8.572556731909314,0.019972133266923778
8.909078300934132,0.01792068149907911
9.258810253973934,0.01607864792478959
9.622271173675122,0.014424818352076143
9.999999999999984,0.01294008643892968
