k [1/Mpc],P(k) [Mpc^3]
0.0001,646.7161386469637
0.00010392556829367125,673.9641401455161
0.00010800523745162529,702.3533303363564
0.00011224505680853065,731.9306387484571
0.00011665131316981963,762.7448653864416
0.00012123054013376525,794.8467495577099
0.00012598952777950273,828.2889581369986
0.00013093533273536104,863.1260763594897
0.00013607528864243335,899.414790394932
0.00014141701702890234,937.2139098941991
0.00014696843861124463,976.5844645444415
0.00015273778503907136,1017.5897545852717
0.00015873361110102093,1060.2953102925937
0.00016496480740980205,1104.7690825406128
0.0001714406135851971,1151.0813919069656
0.00017817063195457305,1199.3050081564093
0.00018516484179121546,1249.5152817205928
0.000192433614111598,1301.7900165684266
0.00019998772705352857,1356.2097009149663
0.0002078383818579757,1412.857458043881
0.00021599721947827182,1471.8190485637492
0.0002244763378413224,1533.183050143434
0.0002332883097864157,1597.0405037381856
0.00024244620170823283,1663.4852093150885
0.0002519635929317015,1732.6137895905945
0.0002618545958474233,1804.5255893044096
0.0002721338768375308,1879.3228799088256
0.0002828166780230032,1957.1102800188548
0.0002939188398646886,2037.9949845591834
0.0003054568246515432,2122.08699566785
0.00031744774091091926,2209.498886557396
0.00032990936877709396,2300.3460235393472
0.00034286018635565856,2394.7458326911556
0.00035631939712285854,2492.8177909660476
0.000370306958400514,2594.6838276364597
0.00038484361094874304,2700.4678476115605
0.0003999509097203664,2810.2959907124414
0.00041565125582259895,2924.295956611876
0.00043196792973341727,3042.596637961474
0.0004489251258218605,3165.3285875645965
0.0004665479882234472,3292.6232100239163
0.000484862648123908,3424.6129862052344
0.000503896262506515,3561.4308951718026
0.0005236770544204653,3703.20958781043
0.0005442343548300266,3850.0818921223245
0.0005655986461065005,4002.17921393351
0.0005878016072274912,4159.631688323511
0.0006108761607505036,4322.567902459283
0.0006348565216305217,4491.113294441281
0.0006597782479539537,4665.390889435679
0.0006856782936641739,4845.51889140338
0.0007125950633568407,5031.610261083261
0.0007405684692262436,5223.772937548413
0.0007696399902471156,5422.106664476254
0.0007998527336796708,5626.704341627503
0.000831251498989063,5837.649755875297
0.0008638828442740447,6055.016052510154
0.000897795155303332,6278.866801024501
0.0009330387172620361,6509.2530662157515
0.0009696657893145519,6746.213783871063
0.001007730682094461,6989.773064836218
0.0010472898382363582,7239.936918613605
0.0010884019160690055,7496.695986636802
0.0011311278765939214,7760.02640462816
0.001175531073878369,8029.88826830468
0.0012216773489967915,8306.220838517587
0.0012696351276599736,8588.936413703703
0.0013194755216767058,8877.924535577502
0.0013712724343984,9173.048667985615
0.0014251026703029975,9474.145338402293
0.0014810460488806749,9781.025380849167
0.0015391855229902056,10093.472684407607
0.001599607301861487,10411.243484575734
0.0016624009789266115,10734.06613270059
0.0017276596646690358,11061.640438158822
0.0017954801246878305,11393.635944131065
0.0018659629231817451,11729.689350210861
0.001939212572065829,12069.405139516406
0.0020153376859417325,12412.358307630664
0.002094451143151469,12758.0960581232
0.002176670253153458,13106.13455506121
0.002262116930469025,13455.960797485372
0.002350917875457286,13807.031900924212
0.002443204762186487,14158.775642997445
0.0025391144336803463,14510.593240483335
0.002638789104828933,14861.856994062682
0.002742376573264949,15211.905572311027
0.0028500304385181063,15560.045703745003
0.0029619103297725525,15905.560428500998
0.0030781821425650787,16247.719801962014
0.003199018284775064,16585.772033245277
0.0033245979322709396,16918.875903873562
0.003455107294592217,17246.087711786375
0.0035907398910610534,17566.490805455025
0.0037316968377327513,17879.483295978596
0.0038781871456107214,18184.583186017924
0.0040304280305680515,18480.926101155223
0.00418864523543527,18766.98213400185
0.004353073364731888,19041.179981930196
0.00452395623253805,19302.478801766254
0.004701547224022131,19550.13988493925
0.004886109671160325,19783.45153403394
0.005077917243205399,20001.7326127542
0.005277254352483535,20204.31752772883
0.005484416576121017,20390.35704793342
0.005699711094326071,20558.864017303353
0.005923457145875801,20708.865283430227
0.006155986501483508,20839.386202241472
0.006397643955748424,20949.484661682945
0.0066487878384172625,21038.28114666047
0.0069097905457156435,21104.96788562574
0.007181039092537346,21148.794665048506
0.007462935686310132,21169.05113199559
0.007755898323389004,21165.091822560393
0.00806036140886134,21136.317767391447
0.008376776400682916,21082.162105012372
0.008705612479099857,21002.13760271269
0.009047357242349292,20895.757754913728
0.00940251742967013,20762.596381210402
0.009771619672696168,20602.335593787328
0.010155211276345676,20414.75614266575
0.010553861030365234,20199.7700894344
0.010968160052731372,19957.405540667904
0.011398722666160517,19687.82050183029
0.011846187309026826,19391.314233783225
0.012311217482038896,19068.29569889624
0.012794502732078732,18719.330486614206
0.013296759674662111,18345.196373100465
0.013818733056536317,17946.88171920374
0.014361196859990781,17525.550900799328
0.014924955450518284,17082.611193801447
0.015510844769528393,16619.634704324395
0.016119733573881575,16138.472442230855
0.01675252472408214,15641.308194440908
0.017410156523040152,15130.427347251505
0.018093604107387147,14608.474083266592
0.01880388089340914,14078.207579062204
0.019542040079740527,13542.554672487879
0.02030917620904734,13004.876633781536
0.021106426791015535,12468.366264216336
0.021934973989050584,11936.219313449235
0.02279604637318978,11411.489406739382
0.023690920741826323,10897.2948609522
0.02462092401494623,10397.79764069308
0.02558743520168586,9916.721487786115
0.02659188744512693,9456.259766930056
0.027635770147361564,9017.280172483135
0.028720631177978267,8600.376727197878
0.029848079169243254,8206.143266976984
0.03101978590138095,7834.995763220255
0.03223748878149028,7487.121583680936
0.0335029934197723,7162.5213447506985
0.03481817630688963,6860.728416086789
0.03618498759642746,6578.659291014029
0.037605453996581675,6312.3736945044175
0.03908168177536263,6057.726063749121
0.04061585988376978,5809.578024380574
0.04221026320156896,5563.450805997136
0.04386725591048496,5316.747750621267
0.0455892949998106,5068.196337882294
0.047378933909631396,4815.816652688826
0.049238826317067365,4555.488174060053
0.05117173007114603,4285.3681240789865
0.05318051128214196,4012.156534808573
0.05526814857144601,3743.8042991487114
0.057437737488265785,3485.2601866385253
0.0596924950997073,3239.787325743611
0.0620357647610427,3009.944689010956
0.06447102107323864,2799.2778860171293
0.06700187503509585,2614.9755989042865
0.06963207939763882,2456.7909778430326
0.0723655342286965,2317.908581821969
0.07520629269592405,2198.305370972623
0.07815856707684081,2093.3687901451785
0.08122673500479707,1990.6599648399194
0.08441534596012978,1883.4185842131367
0.0877291280161335,1769.895358467811
0.09117299484984914,1651.9454488659362
0.09475205302806537,1532.8169169973223
0.09847160957933764,1414.0273665606733
0.1023371798632519,1300.6477826875239
0.10635449574860109,1200.247328691395
0.11052951411260206,1116.0199062934585
0.1148684256737553,1043.314935596561
0.1193776641714435,978.7212643744501
0.1240639159058831,919.1622531013331
0.12893412965257148,859.2825769094047
0.13399552696593373,797.4729083801512
0.1392556128874462,737.0539096731657
0.14472218707411338,680.1329566173365
0.15040335536380234,628.8410118690858
0.15630754179458153,583.1292733125204
0.16244350109588662,542.086733911789
0.16882033167003618,503.90671661092574
0.17544748908334581,466.6389239572613
0.1823348000868439,431.3172818660826
0.189492477187382,398.2634178977845
0.19693113379074215,368.1561096819639
0.20466179993919872,340.5060878795805
0.21269593866686892,314.855294457488
0.22104546299710207,290.7466832549707
0.22972275360711503,268.25096517221715
0.23874067718606454,247.50567871101111
0.2481126055137766,228.3437102797604
0.25785243528842716,210.58654741542298
0.26797460873256895,194.07478555139343
0.27849413500806414,178.78408521430595
0.28942661247167484,164.67266096393428
0.3007882518043098,151.61550385670748
0.31259590004822796,139.52974612748972
0.324867065587837,128.36158702199745
0.3376199441111335,118.05029120014484
0.35087344559027084,108.53187216791702
0.36464722232127456,99.74565392509398
0.37896169806447155,91.64455353644945
0.3938380983288488,84.17799721355968
0.4092984818452433,77.29654148925866
0.4253657732750382,70.9587454152473
0.44206379720285277,65.12217379261514
0.45941731346364734,59.74675349294731
0.47745205385661277,54.79958197662337
0.4961947603002895,50.24594472330997
0.5156732244854959,46.05620926945656
0.5359163290848509,42.20336974891818
0.556954090580013,38.66239952626847
0.5788177037701272,35.4099314522355
0.6015395880274836,32.42392764909863
0.6251534353689703,29.68309166004824
0.6496942604146115,27.16701695360949
0.6751984523072497,24.85792711325767
0.7017038286703824,22.73951245404604
0.7292496916841444,20.796670749887564
0.7578768863625915,19.015425952612972
0.7876278611187046,17.38284621598963
0.8185467307069019,15.886925380228647
0.850679341636415,14.51655645290873
0.8840733401525058,13.261503851966422
0.9187782428863317,12.112338341168446
0.9548455102782278,11.060376102915253
0.9923286228832539,10.097631382226927
1.0312831606721837,9.216772171941285
1.0717668854455022,8.4110471440969
1.1138398264826193,7.674238812458895
1.1575643695533022,7.000623679173712
1.2030053494233226,6.384934426093202
1.2502301459914542,5.8223185721737885
1.299308784200415,5.308312033769674
1.3503140378698726,4.83881494847697
1.4033215376054824,4.410063155537698
1.4584098829439835,4.018601703743692
1.5156607589006013,3.6612593622595644
1.575159057091621,3.3351249083136962
1.6369930016117014,3.037529045842868
1.7012542798525885,2.7660253205998977
1.7680381784572046,2.518372040141351
1.8374437246107238,2.2925158325879944
1.9095738328780953,2.086578759299797
1.9845354578058014,1.8988422615527367
2.0624397525140905,1.7277319267949351
2.143402233514853,1.5718057934669516
2.227542951999554,1.429743604329384
2.314986671851158,1.3003358681156485
2.405863054644063,1.1824733962268144
2.5003068519063225,1.0751420437989103
2.598458104929248,0.9774152626959354
2.7004623524206774,0.8884466727301825
2.806470846309834,0.8074633332698911
2.916640776023701,0.7337605522035592
3.031135501567576,0.6666954114119711
3.150124795755327,0.6056805050807808
3.2737850959485697,0.55017925924639
3.4022997656780634,0.49970165668185246
3.5358593665351745,0.45380003784592626
3.6746619407366854,0.41206507928153535
3.8189133047818515,0.3741233877400225
3.968827354637162,0.3396345676239376
4.1246263829013445,0.3082883489542876
4.286541408420921,0.27980197462800915
4.4548125188449825,0.2539179950739009
4.629689226627261,0.23040194682483373
4.811430839003257,0.20904014338845572
5.000306842491082,0.1896378652718909
5.196597302486189,0.17201770977976205
5.400593278542364,0.1560180607491639
5.612597255954967,0.1414916709029632
5.8329235942862,0.12830447166487405
6.06189899349756,0.11633442820178871
6.29986297838068,0.10547047647662895
6.547168402004727,0.09561155098705611
6.804181968927091,0.08666567379634472
7.071284778942991,0.07854915936671339
7.348872892180382,0.07118590319113374
7.637357916378006,0.06450670478334801
7.937167617217536,0.058448649328246664
8.248746552614573,0.05295455897874569
8.572556731909314,0.04797251031821605
8.909078300934132,0.043455306842862695
9.258810253973934,0.039360042260194614
9.622271173675122,0.03564771715395818
9.999999999999984,0.03228288534047313
