k [1/Mpc],P(k) [Mpc^3]
0.0001,1720.6306301690036
0.00010392556829367125,1777.6579470364898
0.00010800523745162529,1836.5574298935398
0.00011224505680853065,1897.3884509656516
0.00011665131316981963,1960.2121490842171
0.00012123054013376525,2025.0914709904498
0.00012598952777950273,2092.091004110189
0.00013093533273536104,2161.276821334466
0.00013607528864243335,2232.7168070899324
0.00014141701702890234,2306.4805700288816
0.00014696843861124463,2382.639537736288
0.00015273778503907136,2461.2669321820604
0.00015873361110102093,2542.4375250294192
0.00016496480740980205,2626.227951786585
0.0001714406135851971,2712.71643777462
0.00017817063195457305,2801.982839618796
0.00018516484179121546,2894.1088020320294
0.000192433614111598,2989.177309596497
0.00019998772705352857,3087.273073056445
0.0002078383818579757,3188.482261180595
0.00021599721947827182,3292.8923583189467
0.0002244763378413224,3400.5924199929195
0.0002332883097864157,3511.672139289058
0.00024244620170823283,3626.222374248743
0.0002519635929317015,3744.3351444639457
0.0002618545958474233,3866.1032727381116
0.0002721338768375308,3991.620691210235
0.0002828166780230032,4120.981077905652
0.0002939188398646886,4254.2782492349725
0.0003054568246515432,4391.606534552849
0.00031744774091091926,4533.060171430343
0.00032990936877709396,4678.733661962806
0.00034286018635565856,4828.720182797344
0.00035631939712285854,4983.111523724887
0.000370306958400514,5141.9988425091415
0.00038484361094874304,5305.471655397623
0.0003999509097203664,5473.618312432017
0.00041565125582259895,5646.524644300327
0.00043196792973341727,5824.273268902626
0.0004489251258218605,6006.9445178512815
0.0004665479882234472,6194.614917340962
0.000484862648123908,6387.357675029005
0.000503896262506515,6585.24166056647
0.0005236770544204653,6788.329985980978
0.0005442343548300266,6996.681082975885
0.0005655986461065005,7210.345937914012
0.0005878016072274912,7429.3686007339975
0.0006108761607505036,7653.785915700825
0.0006348565216305217,7883.624948575375
0.0006597782479539537,8118.904621360311
0.0006856782936641739,8359.631847551853
0.0007125950633568407,8605.80127283215
0.0007405684692262436,8857.396133063618
0.0007696399902471156,9114.38337359485
0.0007998527336796708,9376.716574567698
0.000831251498989063,9644.332761377993
0.0008638828442740447,9917.150607488165
0.000897795155303332,10195.072961495096
0.0009330387172620361,10477.982833913404
0.0009696657893145519,10765.744883378271
0.001007730682094461,11058.201989340345
0.0010472898382363582,11355.17111321177
0.0010884019160690055,11656.448743589854
0.0011311278765939214,11961.81320615602
0.001175531073878369,12271.023216257643
0.0012216773489967915,12583.811589112323
0.0012696351276599736,12899.877298250898
0.0013194755216767058,13218.893362370496
0.0013712724343984,13540.50325427821
0.0014251026703029975,13864.3211319317
0.0014810460488806749,14189.93514299592
0.0015391855229902056,14516.907007748317
0.001599607301861487,14844.772431254114
0.0016624009789266115,15173.04220449082
0.0017276596646690358,15501.202684170008
0.0017954801246878305,15828.71479976684
0.0018659629231817451,16155.011970277788
0.001939212572065829,16479.502539053185
0.0020153376859417325,16801.57496521545
0.002094451143151469,17120.60139481547
0.002176670253153458,17435.9345009415
0.002262116930469025,17746.91126878316
0.002350917875457286,18052.853224361297
0.002443204762186487,18353.068315947283
0.0025391144336803463,18646.855591625972
0.002638789104828933,18933.503120485457
0.002742376573264949,19212.283058964982
0.0028500304385181063,19482.45501759697
0.0029619103297725525,19743.27742318776
0.0030781821425650787,19994.021334078738
0.003199018284775064,20233.959683096662
0.0033245979322709396,20462.286055484412
0.003455107294592217,20678.103054613337
0.0035907398910610534,20880.580859622332
0.0037316968377327513,21069.29408723754
0.0038781871456107214,21243.977382164998
0.0040304280305680515,21403.937200869113
0.00418864523543527,21547.745446868088
0.004353073364731888,21673.982189006456
0.00452395623253805,21781.881770011256
0.004701547224022131,21871.050311352985
0.004886109671160325,21941.145225711745
0.005077917243205399,21991.8773141933
0.005277254352483535,22022.992464729843
0.005484416576121017,22034.055236040636
0.005699711094326071,22024.50596035153
0.005923457145875801,21993.827904563263
0.006155986501483508,21941.529646868148
0.006397643955748424,21867.180014599355
0.0066487878384172625,21770.43709737714
0.0069097905457156435,21651.054239820376
0.007181039092537346,21508.861902440723
0.007462935686310132,21343.7468203932
0.007755898323389004,21155.67486671115
0.00806036140886134,20944.669644299884
0.008376776400682916,20710.796038179455
0.008705612479099857,20454.20484939141
0.009047357242349292,20175.053012205903
0.00940251742967013,19873.560415103453
0.009771619672696168,19550.0527374666
0.010155211276345676,19204.947791445393
0.010553861030365234,18838.78192830461
0.010968160052731372,18452.1906483831
0.011398722666160517,18045.91677078245
0.011846187309026826,17620.815795170693
0.012311217482038896,17177.82220380765
0.012794502732078732,16717.987463131067
0.013296759674662111,16242.523605559312
0.013818733056536317,15752.794241335088
0.014361196859990781,15250.277156885952
0.014924955450518284,14736.61618741584
0.015510844769528393,14213.54629203016
0.016119733573881575,13682.985212296302
0.01675252472408214,13147.069664805915
0.017410156523040152,12607.951906702201
0.018093604107387147,12068.010006819959
0.01880388089340914,11529.636886205526
0.019542040079740527,10995.280703629389
0.02030917620904734,10467.655436834471
0.021106426791015535,9949.246509520684
0.021934973989050584,9442.454222230514
0.02279604637318978,8949.481771799392
0.023690920741826323,8472.502718146849
0.02462092401494623,8014.4151222875425
0.02558743520168586,7577.676262044839
0.02659188744512693,7163.492047184275
0.027635770147361564,6772.022790740054
0.028720631177978267,6403.210525516497
0.029848079169243254,6056.990026613325
0.03101978590138095,5733.159019517687
0.03223748878149028,5431.347197301031
0.0335029934197723,5151.053582183285
0.03481817630688963,4891.452319478837
0.03618498759642746,4649.887541918962
0.037605453996581675,4423.186121152523
0.03908168177536263,4208.134394031194
0.04061585988376978,4000.9398113922266
0.04221026320156896,3798.3863771843553
0.04386725591048496,3598.639989308981
0.0455892949998106,3400.8167784495645
0.047378933909631396,3203.5920422715503
0.049238826317067365,3004.274723147334
0.05117173007114603,2801.7560171558425
0.05318051128214196,2600.5038757325556
0.05526814857144601,2405.637768156515
0.057437737488265785,2220.188037120073
0.0596924950997073,2046.0135865362745
0.0620357647610427,1884.464603853126
0.06447102107323864,1737.4525023672604
0.06700187503509585,1609.0592136301548
0.06963207939763882,1498.6839370901644
0.0723655342286965,1401.7662701463014
0.07520629269592405,1317.9677437812018
0.07815856707684081,1244.2279803980887
0.08122673500479707,1172.9750082215387
0.08441534596012978,1100.2110091927502
0.0877291280161335,1024.9771495103857
0.09117299484984914,948.4179242232302
0.09475205302806537,872.432417237688
0.09847160957933764,797.8785366097324
0.1023371798632519,727.5722573074663
0.10635449574860109,665.6173475965061
0.11052951411260206,613.5688223750599
0.1148684256737553,568.6489284365844
0.1193776641714435,528.8412010896969
0.1240639159058831,492.37489130234974
0.12893412965257148,456.3280666800612
0.13399552696593373,419.85040020318223
0.1392556128874462,384.69394062668306
0.14472218707411338,351.92277157144315
0.15040335536380234,322.5758614379667
0.15630754179458153,296.54684630363766
0.16244350109588662,273.29689872789766
0.16882033167003618,251.85671215622415
0.17544748908334581,231.21808642500898
0.1823348000868439,211.87277680813628
0.189492477187382,193.9483876714385
0.19693113379074215,177.74002109617547
0.20466179993919872,162.97296035984306
0.21269593866686892,149.39605592903868
0.22104546299710207,136.7666971209964
0.22972275360711503,125.09626445207032
0.23874067718606454,114.4262522527219
0.2481126055137766,104.65669549060281
0.25785243528842716,95.68548156948195
0.26797460873256895,87.42225320749287
0.27849413500806414,79.83975501371204
0.28942661247167484,72.90365474407527
0.3007882518043098,66.5439947721549
0.31259590004822796,60.71129792552513
0.324867065587837,55.3700925838555
0.3376199441111335,50.48294621488708
0.35087344559027084,46.012134727351615
0.36464722232127456,41.92243772047792
0.37896169806447155,38.185340216034945
0.3938380983288488,34.77171020036967
0.4092984818452433,31.65373654976522
0.4253657732750382,28.807681544767927
0.44206379720285277,26.210102918221832
0.45941731346364734,23.83919615616395
0.47745205385661277,21.67664171101559
0.4961947603002895,19.703946884977444
0.5156732244854959,17.90514572136457
0.5359163290848509,16.265756144230874
0.556954090580013,14.77247932616023
0.5788177037701272,13.413037250408008
0.6015395880274836,12.176013599893471
0.6251534353689703,11.05060598554653
0.6496942604146115,10.02666195281865
0.6751984523072497,9.095294958718645
0.7017038286703824,8.248414644001441
0.7292496916841444,7.478605248986937
0.7578768863625915,6.779072994263629
0.7876278611187046,6.143595282658635
0.8185467307069019,5.566459121864783
0.850679341636415,5.042434133287688
0.8840733401525058,4.566746037039254
0.9187782428863317,4.1350383023757855
0.9548455102782278,3.743336736653924
0.9923286228832539,3.3880200513082466
1.0312831606721837,3.065792588158066
1.0717668854455022,2.773648628987845
1.1138398264826193,2.508846807619029
1.1575643695533022,2.2688878256540415
1.2030053494233226,2.0514937194209644
1.2502301459914542,1.8545868369327845
1.299308784200415,1.6762743918660252
1.3503140378698726,1.514834329278113
1.4033215376054824,1.3687003933745405
1.4584098829439835,1.2364484240414277
1.5156607589006013,1.1167835152665697
1.575159057091621,1.0085282356733505
1.6369930016117014,0.9106130196016634
1.7012542798525885,0.8220666416556899
1.7680381784572046,0.7420073740473573
1.8374437246107238,0.6696349833410772
1.9095738328780953,0.6042240822987353
1.9845354578058014,0.5451168365307614
2.0624397525140905,0.4917162079354383
2.143402233514853,0.4434804795293621
2.227542951999554,0.39991826899484745
2.314986671851158,0.3605836925715528
2.405863054644063,0.3250718601588141
2.5003068519063225,0.29301597707227545
2.598458104929248,0.264083964211639
2.7004623524206774,0.23797522037886235
2.806470846309834,0.21441770380728628
2.916640776023701,0.193165538309159
3.031135501567576,0.17399638008325385
3.150124795755327,0.1567089499381889
3.2737850959485697,0.1411210755129386
3.4022997656780634,0.12706791705700166
3.5358593665351745,0.11440028530447113
3.6746619407366854,0.10298307359965403
3.8189133047818515,0.09269415600051747
3.968827354637162,0.0834231991198006
4.1246263829013445,0.0750705373345359
4.286541408420921,0.06754615711090069
4.4548125188449825,0.060768820816767335
4.629689226627261,0.05466519876553933
4.811430839003257,0.049169063883453504
5.000306842491082,0.044220613284891006
5.196597302486189,0.03976585484995613
5.400593278542364,0.035756046663669376
5.612597255954967,0.03214718528842312
5.8329235942862,0.028899566544974345
6.06189899349756,0.025977374422496206
6.29986297838068,0.023348305150832225
6.547168402004727,0.020983226769555642
6.804181968927091,0.018855866162622234
7.071284778942991,0.016942534117318053
7.348872892180382,0.015221879691711047
7.637357916378006,0.013674662010876748
7.937167617217536,0.012283543877440796
8.248746552614573,0.011032908476573363
8.572556731909314,0.009908697340967065
8.909078300934132,0.008898245780213606
9.258810253973934,0.007990143712233907
9.622271173675122,0.007174113051186179
9.999999999999984,0.006440896117351784
