k [1/Mpc],P(k) [Mpc^3]
0.0001,931.5819506428594
0.00010392556829367125,968.1334768206352
0.00010800523745162529,1006.1175791505719
0.00011224505680853065,1045.5902339998627
0.00011665131316981963,1086.6095889199476
0.00012123054013376525,1129.236028756358
0.00012598952777950273,1173.532274703545
0.00013093533273536104,1219.5634454532087
0.00013607528864243335,1267.397134615757
0.00014141701702890234,1317.1035430406423
0.00014696843861124463,1368.7555852716928
0.00015273778503907136,1422.4289903205165
0.00015873361110102093,1478.2023820640104
0.00016496480740980205,1536.157359954863
0.0001714406135851971,1596.3786422316273
0.00017817063195457305,1658.9540894454012
0.00018516484179121546,1723.974843594957
0.000192433614111598,1791.5355221139805
0.00019998772705352857,1861.7343674821902
0.0002078383818579757,1934.6733599398078
0.00021599721947827182,2010.458255844415
0.0002244763378413224,2089.19870832109
0.0002332883097864157,2171.0084740476086
0.00024244620170823283,2256.005450542154
0.0002519635929317015,2344.311898588248
0.0002618545958474233,2436.054518146853
0.0002721338768375308,2531.364506799785
0.0002828166780230032,2630.3778801413973
0.0002939188398646886,2733.235622847855
0.0003054568246515432,2840.0838733530927
0.00031744774091091926,2951.073929001226
0.00032990936877709396,3066.3620741788873
0.00034286018635565856,3186.110117811641
0.00035631939712285854,3310.4856266321162
0.000370306958400514,3439.662113318488
0.00038484361094874304,3573.8190923474986
0.0003999509097203664,3713.1417120379083
0.00041565125582259895,3857.82134920931
0.00043196792973341727,4008.055836603175
0.0004489251258218605,4164.049587926745
0.0004665479882234472,4326.013830725606
0.000484862648123908,4494.166057058649
0.000503896262506515,4668.730559682064
0.0005236770544204653,4849.938772624397
0.0005442343548300266,5038.029215365693
0.0005655986461065005,5233.247916609579
0.0005878016072274912,5435.847886756762
0.0006108761607505036,5646.089402443287
0.0006348565216305217,5864.240360197564
0.0006597782479539537,6090.575609400384
0.0006856782936641739,6325.377789062617
0.0007125950633568407,6568.93715524742
0.0007405684692262436,6821.551563602405
0.0007696399902471156,7083.526740836508
0.0007998527336796708,7355.174642822031
0.000831251498989063,7636.81454235286
0.0008638828442740447,7928.772927953463
0.000897795155303332,8231.38277904644
0.0009330387172620361,8544.984442823978
0.0009696657893145519,8869.923364248261
0.001007730682094461,9206.550718951492
0.0010472898382363582,9555.22358593407
0.0010884019160690055,9916.302729963587
0.0011311278765939214,10290.154303684352
0.001175531073878369,10677.146842938317
0.0012216773489967915,11077.650732672199
0.0012696351276599736,11492.039650645132
0.0013194755216767058,11920.687105079385
0.0013712724343984,12363.968070306955
0.0014251026703029975,12822.256271862181
0.0014810460488806749,13295.921652686826
0.0015391855229902056,13785.332720700653
0.001599607301861487,14290.851564475945
0.0016624009789266115,14812.834882685496
0.0017276596646690358,15351.63226294885
0.0017954801246878305,15907.580973762566
0.0018659629231817451,16481.00922990812
0.001939212572065829,17072.230418007006
0.0020153376859417325,17681.542285262265
0.002094451143151469,18309.226944312075
0.002176670253153458,18955.54304089183
0.002262116930469025,19620.729066999716
0.002350917875457286,20304.99781356331
0.002443204762186487,21008.532628558936
0.0025391144336803463,21731.489106757424
0.002638789104828933,22473.983913899374
0.002742376573264949,23236.09770774767
0.0028500304385181063,24017.871018688344
0.0029619103297725525,24819.29625812154
0.0030781821425650787,25640.32198042434
0.003199018284775064,26480.839565812552
0.0033245979322709396,27340.683685553482
0.003455107294592217,28219.631039633925
0.0035907398910610534,29117.386065676998
0.0037316968377327513,30033.588452169657
0.0038781871456107214,30967.793749856424
0.0040304280305680515,31919.4684960729
0.00418864523543527,32888.000900623054
0.004353073364731888,33872.68627957041
0.00452395623253805,34872.73207689571
0.004701547224022131,35887.208773363665
0.004886109671160325,36915.014250626904
0.005077917243205399,37954.95145985391
0.005277254352483535,39005.85844372313
0.005484416576121017,40066.55203705305
0.005699711094326071,41135.544079171676
0.005923457145875801,42210.7023486495
0.006155986501483508,43289.674778359695
0.006397643955748424,44370.31762725443
0.0066487878384172625,45450.658738310376
0.0069097905457156435,46528.48833180726
0.007181039092537346,47600.9075185157
0.007462935686310132,48664.7201131954
0.007755898323389004,49716.77223703739
0.00806036140886134,50754.029131725045
0.008376776400682916,51773.28644096417
0.008705612479099857,52770.728761659484
0.009047357242349292,53742.20120066765
0.00940251742967013,54683.280366531464
0.009771619672696168,55589.15231970159
0.010155211276345676,56454.84462156308
0.010553861030365234,57275.13887331218
0.010968160052731372,58044.648235649554
0.011398722666160517,58757.78561952206
0.011846187309026826,59408.44445670837
0.012311217482038896,59990.423835685695
0.012794502732078732,60497.21838513502
0.013296759674662111,60922.06334568396
0.013818733056536317,61258.238536371246
0.014361196859990781,61498.63151600989
0.014924955450518284,61636.253757502556
0.015510844769528393,61664.1341641333
0.016119733573881575,61575.18363564392
0.01675252472408214,61362.84243096466
0.017410156523040152,61020.56232158141
0.018093604107387147,60542.3442563347
0.01880388089340914,59922.96218157714
0.019542040079740527,59157.607429018164
0.02030917620904734,58242.79261824778
0.021106426791015535,57176.03094085643
0.021934973989050584,55956.15318698891
0.02279604637318978,54583.87107525462
0.023690920741826323,53061.504661278756
0.02462092401494623,51393.53392539628
0.02558743520168586,49586.80985539821
0.02659188744512693,47650.54421056102
0.027635770147361564,45596.37752853919
0.028720631177978267,43439.11942599254
0.029848079169243254,41195.705099550716
0.03101978590138095,38885.54498170108
0.03223748878149028,36530.98497659669
0.0335029934197723,34154.77304274356
0.03481817630688963,31783.450812305964
0.03618498759642746,29443.942596957222
0.037605453996581675,27161.271215705627
0.03908168177536263,24961.398835374486
0.04061585988376978,22865.63106469013
0.04221026320156896,20897.017606305486
0.04386725591048496,19078.08063803925
0.0455892949998106,17424.39911314073
0.047378933909631396,15950.999263909358
0.049238826317067365,14665.897531220153
0.05117173007114603,13569.896753841484
0.05318051128214196,12659.68531926931
0.05526814857144601,11927.558512240295
0.057437737488265785,11364.546387977023
0.0596924950997073,10958.000389203815
0.0620357647610427,10694.19294990592
0.06447102107323864,10553.46705264974
0.06700187503509585,10510.075006001394
0.06963207939763882,10526.721747163609
0.0723655342286965,10559.97221885516
0.07520629269592405,10561.939845932739
0.07815856707684081,10483.669409995857
0.08122673500479707,10281.978009265013
0.08441534596012978,9924.69464471749
0.0877291280161335,9395.917069042654
0.09117299484984914,8699.614993064493
0.09475205302806537,7863.607532924095
0.09847160957933764,6939.570172120978
0.1023371798632519,5997.6301143439
0.10635449574860109,5114.625822429617
0.11052951411260206,4356.361179613358
0.1148684256737553,3765.4465687192283
0.1193776641714435,3358.9825503617058
0.1240639159058831,3133.3252871757554
0.12893412965257148,3069.164128743398
0.13399552696593373,3131.7556083268755
0.1392556128874462,3266.9990778025194
0.14472218707411338,3399.5948622090823
0.15040335536380234,3442.459647886756
0.15630754179458153,3324.5428164278856
0.16244350109588662,3028.3659780604257
0.16882033167003618,2605.661073682575
0.17544748908334581,2151.8056630935466
0.1823348000868439,1763.0135609000392
0.189492477187382,1505.24432680049
0.19693113379074215,1398.196036734025
0.20466179993919872,1416.691046646598
0.21269593866686892,1499.9736690718123
0.22104546299710207,1559.5354751055702
0.22972275360711503,1510.337503606317
0.23874067718606454,1333.4282081192557
0.2481126055137766,1096.174887669011
0.25785243528842716,897.4160178519934
0.26797460873256895,797.2745536422952
0.27849413500806414,793.6699281777184
0.28942661247167484,831.382402515327
0.3007882518043098,828.1502471847085
0.31259590004822796,741.5741853697448
0.324867065587837,614.1385473311772
0.3376199441111335,522.3554489750378
0.35087344559027084,497.24261442890923
0.36464722232127456,506.81829396360627
0.37896169806447155,489.7348524835353
0.3938380983288488,426.68568950658454
0.4092984818452433,362.8846749484821
0.4253657732750382,337.0641648664456
0.44206379720285277,333.6001169439047
0.45941731346364734,311.8552402624356
0.47745205385661277,270.7352944921269
0.4961947603002895,243.26302458097504
0.5156732244854959,234.06810273899717
0.5359163290848509,218.12702146931323
0.556954090580013,192.69609423343587
0.5788177037701272,176.66128396056573
0.6015395880274836,166.84621815060177
0.6251534353689703,151.18797884115668
0.6496942604146115,136.09556909554814
0.6751984523072497,124.19433835406419
0.7017038286703824,114.43081329359636
0.7292496916841444,105.82354859607014
0.7578768863625915,97.65881180486414
0.7876278611187046,89.73127716432563
0.8185467307069019,82.16555475898105
0.850679341636415,75.06046607793131
0.8840733401525058,68.48102260950922
0.9187782428863317,62.46384660700945
0.9548455102782278,57.01189971850725
0.9923286228832539,52.06916955603356
1.0312831606721837,47.57365114822215
1.0717668854455022,43.472572919698884
1.1138398264826193,39.72094471715619
1.1575643695533022,36.280456295551204
1.2030053494233226,33.12248383311135
1.2502301459914542,30.226818977028763
1.299308784200415,27.57459519299793
1.3503140378698726,25.147844027209036
1.4033215376054824,22.929524193707643
1.4584098829439835,20.90339378558997
1.5156607589006013,19.053261584692407
1.575159057091621,17.363865674769762
1.6369930016117014,15.821287170464686
1.7012542798525885,14.412830080363149
1.7680381784572046,13.126911143684284
1.8374437246107238,11.953040707391303
1.9095738328780953,10.881774041960776
1.9845354578058014,9.904443827241227
2.0624397525140905,9.013079461967513
2.143402233514853,8.20035504722422
2.227542951999554,7.459538224792923
2.314986671851158,6.784419611756048
2.405863054644063,6.169292102145414
2.5003068519063225,5.608932649291824
2.598458104929248,5.098562633743352
2.7004623524206774,4.633811019040529
2.806470846309834,4.210682590258187
2.916640776023701,3.8255300312864104
3.031135501567576,3.4750182136810435
3.150124795755327,3.1560970388686873
3.2737850959485697,2.865977903294952
3.4022997656780634,2.602111935313447
3.5358593665351745,2.3621683526663793
3.6746619407366854,2.1440169307295465
3.8189133047818515,1.9457131262507814
3.968827354637162,1.7654823654420364
4.1246263829013445,1.6017055436447125
4.286541408420921,1.4529057548491917
4.4548125188449825,1.3177361876817653
4.629689226627261,1.1949688129336278
4.811430839003257,1.0834841056370021
5.000306842491082,0.9822616766174976
5.196597302486189,0.8903716931633235
5.400593278542364,0.8069671243753774
5.612597255954967,0.7312765436750412
5.8329235942862,0.6625973660729721
6.06189899349756,0.6002898287219002
6.29986297838068,0.5437714967435266
6.547168402004727,0.4925121870993681
6.804181968927091,0.4460290772290471
7.071284778942991,0.403882838570661
7.348872892180382,0.36567397617446434
7.637357916378006,0.3310392756251203
7.937167617217536,0.29964856095229847
8.248746552614573,0.27120190695479696
8.572556731909314,0.24542705342001586
8.909078300934132,0.22207652148437199
9.258810253973934,0.2009253550685452
9.622271173675122,0.18176911589009728
9.999999999999984,0.16442199814209568
