k [1/Mpc],P(k) [Mpc^3]
0.0001,216.9101433801299
0.00010392556829367125,224.1243059912628
0.00010800523745162529,231.57820841773503
0.00011224505680853065,239.27977698412084
0.00011665131316981963,247.23719833509764
0.00012123054013376525,255.45894358771943
0.00012598952777950273,263.95377007957063
0.00013093533273536104,272.73071812265056
0.00013607528864243335,281.7991130606376
0.00014141701702890234,291.1685841348273
0.00014696843861124463,300.84907324783427
0.00015273778503907136,310.8508456535006
0.00015873361110102093,321.18450080487224
0.00016496480740980205,331.86098032588666
0.0001714406135851971,342.891581618462
0.00017817063195457305,354.28796745725583
0.00018516484179121546,366.06217736882695
0.000192433614111598,378.22663565328656
0.00019998772705352857,390.79413705463486
0.0002078383818579757,403.77787741469973
0.00021599721947827182,417.19148441580546
0.0002244763378413224,431.0490366609829
0.0002332883097864157,445.3650628155487
0.00024244620170823283,460.15452817407504
0.0002519635929317015,475.4328601384903
0.0002618545958474233,491.2159649508651
0.0002721338768375308,507.5202272646066
0.0002828166780230032,524.3625422177345
0.0002939188398646886,541.7603198421683
0.0003054568246515432,559.7315025365067
0.00031744774091091926,578.2945784177487
0.00032990936877709396,597.4685646960519
0.00034286018635565856,617.273051496745
0.00035631939712285854,637.72820509308
0.000370306958400514,658.8547790350262
0.00038484361094874304,680.6741397135415
0.0003999509097203664,703.2082257355119
0.00041565125582259895,726.479600489473
0.00043196792973341727,750.5114646943255
0.0004489251258218605,775.3276522290297
0.0004665479882234472,800.9526724421154
0.000484862648123908,827.4116553959911
0.000503896262506515,854.7303954786671
0.0005236770544204653,882.9353769733884
0.0005442343548300266,912.0537395815595
0.0005655986461065005,942.1133436289816
0.0005878016072274912,973.1427063785466
0.0006108761607505036,1005.1710214145133
0.0006348565216305217,1038.2282028759196
0.0006597782479539537,1072.3447882447533
0.0006856782936641739,1107.5520383985595
0.0007125950633568407,1143.8819212210858
0.0007405684692262436,1181.3671003846325
0.0007696399902471156,1220.040959148776
0.0007998527336796708,1259.937355315735
0.000831251498989063,1301.0907703480138
0.0008638828442740447,1343.5363877076943
0.000897795155303332,1387.3100676505196
0.0009330387172620361,1432.4483467163348
0.0009696657893145519,1478.9880383007508
0.001007730682094461,1526.966348134185
0.0010472898382363582,1576.421011119977
0.0010884019160690055,1627.390116998329
0.0011311278765939214,1679.9122417395556
0.001175531073878369,1734.0260703879903
0.0012216773489967915,1789.7703627386654
0.0012696351276599736,1847.18412772745
0.0013194755216767058,1906.3061896688469
0.0013712724343984,1967.1754461255455
0.0014251026703029975,2029.8304930052107
0.0014810460488806749,2094.30935361799
0.0015391855229902056,2160.6498440099176
0.001599607301861487,2228.8889955096306
0.0016624009789266115,2299.0632588205085
0.0017276596646690358,2371.2082669837
0.0017954801246878305,2445.3582850763682
0.0018659629231817451,2521.546662935185
0.001939212572065829,2599.805004064112
0.0020153376859417325,2680.1632433076347
0.002094451143151469,2762.649660848161
0.002176670253153458,2847.2899245058547
0.002262116930469025,2934.1077154188106
0.002350917875457286,3023.1241803372936
0.002443204762186487,3114.357702944474
0.0025391144336803463,3207.8239158192605
0.002638789104828933,3303.5341636835515
0.002742376573264949,3401.496267415919
0.0028500304385181063,3501.7141143257804
0.0029619103297725525,3604.1870429031583
0.0030781821425650787,3708.9101903898327
0.003199018284775064,3815.8725301731406
0.0033245979322709396,3925.0574658990167
0.003455107294592217,4036.442702543863
0.0035907398910610534,4149.99897756756
0.0037316968377327513,4265.69093592171
0.0038781871456107214,4383.475015384571
0.0040304280305680515,4503.29955555859
0.00418864523543527,4625.10502007674
0.004353073364731888,4748.821370672158
0.00452395623253805,4874.3699417545995
0.004701547224022131,5001.6622042560775
0.004886109671160325,5130.599213784257
0.005077917243205399,5261.071019690439
0.005277254352483535,5392.9476885541135
0.005484416576121017,5526.085149456945
0.005699711094326071,5660.33673917333
0.005923457145875801,5795.559214726362
0.006155986501483508,5931.595297575918
0.006397643955748424,6068.224015078711
0.0066487878384172625,6205.181293656413
0.0069097905457156435,6342.204479358054
0.007181039092537346,6479.061877626303
0.007462935686310132,6615.514447238652
0.007755898323389004,6751.2646389772
0.00806036140886134,6885.962717071781
0.008376776400682916,7019.24994441774
0.008705612479099857,7150.7855057114175
0.009047357242349292,7280.223387000211
0.00940251742967013,7407.170848329008
0.009771619672696168,7531.180427507909
0.010155211276345676,7651.785388351412
0.010553861030365234,7768.486457418829
0.010968160052731372,7880.765087123916
0.011398722666160517,7988.07891355523
0.011846187309026826,8089.852689936395
0.012311217482038896,8185.499606699032
0.012794502732078732,8274.399586758054
0.013296759674662111,8355.91475041902
0.013818733056536317,8429.391692615125
0.014361196859990781,8494.133929619122
0.014924955450518284,8549.446252396277
0.015510844769528393,8594.615095028612
0.016119733573881575,8628.919690102588
0.01675252472408214,8651.65598410613
0.017410156523040152,8662.103022226525
0.018093604107387147,8659.571865911648
0.01880388089340914,8643.399024343424
0.019542040079740527,8612.947996669292
0.02030917620904734,8567.652501989272
0.021106426791015535,8506.998035137389
0.021934973989050584,8430.555888091623
0.02279604637318978,8338.004399153368
0.023690920741826323,8229.13446487842
0.02462092401494623,8103.87173486421
0.02558743520168586,7962.320850883085
0.02659188744512693,7804.75360123864
0.027635770147361564,7631.6247563007155
0.028720631177978267,7443.641271655959
0.029848079169243254,7241.668459644318
0.03101978590138095,7026.903952851733
0.03223748878149028,6800.822385762248
0.0335029934197723,6564.997559956386
0.03481817630688963,6321.247536836956
0.03618498759642746,6071.431637978549
0.037605453996581675,5817.980246410178
0.03908168177536263,5563.985922607816
0.04061585988376978,5312.161687593735
0.04221026320156896,5064.323500451554
0.04386725591048496,4821.805153819035
0.0455892949998106,4586.616488825484
0.047378933909631396,4362.181073496162
0.049238826317067365,4151.391033141847
0.05117173007114603,3955.986461252911
0.05318051128214196,3777.0067681178994
0.05526814857144601,3614.8885909660994
0.057437737488265785,3469.5812232055614
0.0596924950997073,3340.448570234567
0.0620357647610427,3226.244380989278
0.06447102107323864,3125.2115035034144
0.06700187503509585,3035.0820565065737
0.06963207939763882,2952.923536438076
0.0723655342286965,2875.317495970014
0.07520629269592405,2798.1749734603945
0.07815856707684081,2717.0072803570697
0.08122673500479707,2627.3773948701582
0.08441534596012978,2526.3114124131134
0.0877291280161335,2411.5152663522517
0.09117299484984914,2282.0161883277237
0.09475205302806537,2139.407061093508
0.09847160957933764,1987.3933742472204
0.1023371798632519,1831.3012784032258
0.10635449574860109,1677.6227098205513
0.11052951411260206,1533.3890772047869
0.1148684256737553,1405.053537292401
0.1193776641714435,1297.364014938461
0.1240639159058831,1212.4978195058418
0.12893412965257148,1149.6194320192546
0.13399552696593373,1105.0449267934684
0.1392556128874462,1072.7317773105954
0.14472218707411338,1044.8849156152821
0.15040335536380234,1013.0015215052456
0.15630754179458153,969.6961363001845
0.16244350109588662,910.9202009481393
0.16882033167003618,837.7062332535361
0.17544748908334581,756.6041513723168
0.1823348000868439,677.8666345201067
0.189492477187382,611.292578982186
0.19693113379074215,562.3285245456259
0.20466179993919872,530.9985273937389
0.21269593866686892,512.4116469439107
0.22104546299710207,497.4238824496889
0.22972275360711503,476.03887396529854
0.23874067718606454,442.9071286177769
0.2481126055137766,400.322374501407
0.25785243528842716,356.89493784002923
0.26797460873256895,321.93043382278586
0.27849413500806414,299.4979931892519
0.28942661247167484,286.52648063079965
0.3007882518043098,274.7146330789693
0.31259590004822796,256.77224214001546
0.324867065587837,232.36033573518077
0.3376199441111335,207.9875335969452
0.35087344559027084,190.14047641330018
0.36464722232127456,179.22839008573123
0.37896169806447155,169.75342105760416
0.3938380983288488,156.70167442103065
0.4092984818452433,141.29798297660665
0.4253657732750382,128.41725171116667
0.44206379720285277,119.77864910017023
0.45941731346364734,112.0566308642864
0.47745205385661277,102.54037690981572
0.4961947603002895,92.93888471351657
0.5156732244854959,85.67215522296198
0.5359163290848509,79.59329800162828
0.556954090580013,72.85200159751912
0.5788177037701272,66.35574472879645
0.6015395880274836,61.16224391680591
0.6251534353689703,56.287977009583905
0.6496942604146115,51.3419095614955
0.6751984523072497,47.074381917884935
0.7017038286703824,43.22683200576346
0.7292496916841444,39.48496042706939
0.7578768863625915,36.099152771958394
0.7876278611187046,33.03381825027237
0.8185467307069019,30.232570035344434
0.850679341636415,27.65326433866525
0.8840733401525058,25.27670304264036
0.9187782428863317,23.090532395537725
0.9548455102782278,21.08258701533611
0.9923286228832539,19.24098171524797
1.0312831606721837,17.55419245325135
1.0717668854455022,16.010805333164367
1.1138398264826193,14.599073954587961
1.1575643695533022,13.308004354359095
1.2030053494233226,12.127512728737582
1.2502301459914542,11.048349594387764
1.299308784200415,10.062031063881973
1.3503140378698726,9.160832041265559
1.4033215376054824,8.337744908524433
1.4584098829439835,7.586310629154937
1.5156607589006013,6.900568816053719
1.575159057091621,6.2750231383007895
1.6369930016117014,5.704608124989051
1.7012542798525885,5.18464553514247
1.7680381784572046,4.7108208601612
1.8374437246107238,4.279172680357741
1.9095738328780953,3.8860660238811957
1.9845354578058014,3.52816684660908
2.0624397525140905,3.202418523280168
2.143402233514853,2.906021281717727
2.227542951999554,2.636410660557771
2.314986671851158,2.391237637619941
2.405863054644063,2.1683514232287666
2.5003068519063225,1.9657835504881616
2.598458104929248,1.7817330192918357
2.7004623524206774,1.6145521445019941
2.806470846309834,1.4627347447656796
2.916640776023701,1.3249047957204236
3.031135501567576,1.1998056383265456
3.150124795755327,1.0862900345269002
3.2737850959485697,0.983310925990946
3.4022997656780634,0.8899128769898509
3.5358593665351745,0.8052246005837076
3.6746619407366854,0.728451859501264
3.8189133047818515,0.6588708844631016
3.968827354637162,0.5958223297917152
4.1246263829013445,0.538705658292755
4.286541408420921,0.4869740337065509
4.4548125188449825,0.4401297944983752
4.629689226627261,0.39772017560339185
4.811430839003257,0.3593333750851984
5.000306842491082,0.32459495220270446
5.196597302486189,0.2931645111118587
5.400593278542364,0.2647326952474881
5.612597255954967,0.2390184571528101
5.8329235942862,0.2157665359153803
6.06189899349756,0.1947451511273612
6.29986297838068,0.17574388924716783
6.547168402004727,0.15857171406953863
6.804181968927091,0.1430552738273323
7.071284778942991,0.1290373528976271
7.348872892180382,0.1163754015869687
7.637357916378006,0.10494019584008603
7.937167617217536,0.09461463741653273
8.248746552614573,0.08529272453256405
8.572556731909314,0.0768784235897512
8.909078300934132,0.06928470955017889
9.258810253973934,0.06243274160201852
9.622271173675122,0.05625111195258566
9.999999999999984,0.05067507039685041
