k [1/Mpc],P(k) [Mpc^3]
0.0001,254.17099717219293
0.00010392556829367125,263.38490426408157
0.00010800523745162529,272.93265816799146
0.00011224505680853065,282.8263356738767
0.00011665131316981963,293.07844885867723
0.00012123054013376525,303.7019598258793
0.00012598952777950273,314.7102974292786
0.00013093533273536104,326.1173675198906
0.00013607528864243335,337.9375691730829
0.00014141701702890234,350.1858202152019
0.00014696843861124463,362.8775837596498
0.00015273778503907136,376.0288820270832
0.00015873361110102093,389.65630238409443
0.00016496480740980205,403.77701048404504
0.0001714406135851971,418.4087865391234
0.00017817063195457305,433.57006019745194
0.00018516484179121546,449.2799280880094
0.000192433614111598,465.55815569423686
0.00019998772705352857,482.4251789159713
0.0002078383818579757,499.90215688071316
0.00021599721947827182,518.0110210520279
0.0002244763378413224,536.7744989415189
0.0002332883097864157,556.2161145478749
0.00024244620170823283,576.360178794498
0.0002519635929317015,597.2318509921431
0.0002618545958474233,618.857182774759
0.0002721338768375308,641.2631498310917
0.0002828166780230032,664.4776721549608
0.0002939188398646886,688.5296142508981
0.0003054568246515432,713.4488384300433
0.00031744774091091926,739.26623886571
0.00032990936877709396,766.0137681257825
0.00034286018635565856,793.7244817305045
0.00035631939712285854,822.4325273655165
0.000370306958400514,852.1732014783877
0.00038484361094874304,882.9830129876282
0.0003999509097203664,914.8997240273975
0.00041565125582259895,947.9623817261578
0.00043196792973341727,982.2112438553362
0.0004489251258218605,1017.6878311894969
0.0004665479882234472,1054.4350595987223
0.000484862648123908,1092.4973111986963
0.000503896262506515,1131.9204531008677
0.0005236770544204653,1172.7517457237684
0.0005442343548300266,1215.0398492647623
0.0005655986461065005,1258.8349971617981
0.0005878016072274912,1304.189058218034
0.0006108761607505036,1351.1555764814423
0.0006348565216305217,1399.7896761019226
0.0006597782479539537,1450.1479880867457
0.0006856782936641739,1502.2888778806998
0.0007125950633568407,1556.2724630217256
0.0007405684692262436,1612.1606757262816
0.0007696399902471156,1670.0172595492056
0.0007998527336796708,1729.9076840334706
0.000831251498989063,1791.8993134805403
0.0008638828442740447,1856.061231343291
0.000897795155303332,1922.4642906584945
0.0009330387172620361,1991.1813131712524
0.0009696657893145519,2062.287060673483
0.001007730682094461,2135.8583170117654
0.0010472898382363582,2211.9735375032883
0.0010884019160690055,2290.712727182914
0.0011311278765939214,2372.1578371049864
0.001175531073878369,2456.3925599907375
0.0012216773489967915,2543.50248376866
0.0012696351276599736,2633.5748655524735
0.0013194755216767058,2726.6983066758585
0.0013712724343984,2822.9631693901106
0.0014251026703029975,2922.4610076454787
0.0014810460488806749,3025.284734933662
0.0015391855229902056,3131.5286421198875
0.001599607301861487,3241.2877797427063
0.0016624009789266115,3354.6584624485367
0.0017276596646690358,3471.7375350624557
0.0017954801246878305,3592.622287383664
0.0018659629231817451,3717.410771445969
0.001939212572065829,3846.2009227500976
0.0020153376859417325,3979.091022858916
0.002094451143151469,4116.178690590253
0.002176670253153458,4257.56022695322
0.002262116930469025,4403.33151895342
0.002350917875457286,4553.587061322761
0.002443204762186487,4708.420199724672
0.0025391144336803463,4867.922182491861
0.002638789104828933,5032.180710042752
0.002742376573264949,5201.281198721932
0.0028500304385181063,5375.3055093825915
0.0029619103297725525,5554.3319369946275
0.0030781821425650787,5738.434678601569
0.003199018284775064,5927.68155726455
0.0033245979322709396,6122.135418022865
0.003455107294592217,6321.852502163031
0.0035907398910610534,6526.881880947098
0.0037316968377327513,6737.26564394653
0.0038781871456107214,6953.035752693157
0.0040304280305680515,7174.215409567702
0.00418864523543527,7400.8168088036555
0.004353073364731888,7632.839201368372
0.00452395623253805,7870.270628760297
0.004701547224022131,8113.083565537957
0.004886109671160325,8361.236186414191
0.005077917243205399,8614.670889826635
0.005277254352483535,8873.310462132291
0.005484416576121017,9137.061067774654
0.005699711094326071,9405.806999618748
0.005923457145875801,9679.411107361193
0.006155986501483508,9957.712875287336
0.006397643955748424,10240.51738086741
0.0066487878384172625,10527.604737051064
0.0069097905457156435,10818.737429887298
0.007181039092537346,11113.660312621505
0.007462935686310132,11412.082432821755
0.007755898323389004,11713.623865315081
0.00806036140886134,12017.852697390355
0.008376776400682916,12324.314047387803
0.008705612479099857,12632.536605212688
0.009047357242349292,12942.017736101398
0.00940251742967013,13252.219843466739
0.009771619672696168,13562.571571034812
0.010155211276345676,13872.443495641754
0.010553861030365234,14181.114506639464
0.010968160052731372,14487.815704359366
0.011398722666160517,14791.713034097209
0.011846187309026826,15091.914389749287
0.012311217482038896,15387.479066801421
0.012794502732078732,15677.394502761881
0.013296759674662111,15960.603699464937
0.013818733056536317,16235.985948956799
0.014361196859990781,16502.357138685053
0.014924955450518284,16758.492362173434
0.015510844769528393,17003.08064257062
0.016119733573881575,17234.770165643615
0.01675252472408214,17452.16752395766
0.017410156523040152,17653.82852388406
0.018093604107387147,17838.301619738762
0.01880388089340914,18004.096736006206
0.019542040079740527,18149.720731446418
0.02030917620904734,18273.701632573335
0.021106426791015535,18374.583422292366
0.021934973989050584,18450.96826521618
0.02279604637318978,18501.53320401488
0.023690920741826323,18525.046948078936
0.02462092401494623,18520.409119065924
0.02558743520168586,18486.719483168672
0.02659188744512693,18423.238348135754
0.027635770147361564,18329.47495727113
0.028720631177978267,18205.207149124406
0.029848079169243254,18050.45735207957
0.03101978590138095,17865.816340755388
0.03223748878149028,17652.170325956162
0.0335029934197723,17410.63777348718
0.03481817630688963,17142.611438316508
0.03618498759642746,16849.790075233574
0.037605453996581675,16535.61012191845
0.03908168177536263,16204.310715874888
0.04061585988376978,15859.323838934466
0.04221026320156896,15502.363365822779
0.04386725591048496,15135.025384333081
0.0455892949998106,14761.17428238694
0.047378933909631396,14386.198569472372
0.049238826317067365,14015.014119307367
0.05117173007114603,13651.886529068202
0.05318051128214196,13300.56414591164
0.05526814857144601,12963.63421103029
0.057437737488265785,12642.707177351127
0.0596924950997073,12338.270898614264
0.0620357647610427,12049.115577479723
0.06447102107323864,11773.275709778945
0.06700187503509585,11507.440344644196
0.06963207939763882,11247.677484162257
0.0723655342286965,10989.105172910167
0.07520629269592405,10726.196916415465
0.07815856707684081,10452.861108167086
0.08122673500479707,10162.709849747731
0.08441534596012978,9849.852677284856
0.0877291280161335,9509.693938945224
0.09117299484984914,9140.611916831778
0.09475205302806537,8744.67469378652
0.09847160957933764,8328.014452103613
0.1023371798632519,7900.484079560608
0.10635449574860109,7475.184190970795
0.11052951411260206,7064.689116033473
0.1148684256737553,6679.170970246425
0.1193776641714435,6328.453546392419
0.1240639159058831,6019.537527292947
0.12893412965257148,5754.415487598009
0.13399552696593373,5528.544129291024
0.1392556128874462,5330.492854172762
0.14472218707411338,5144.068347009248
0.15040335536380234,4951.783402185255
0.15630754179458153,4738.936489298137
0.16244350109588662,4497.751842540908
0.16882033167003618,4230.454513596242
0.17544748908334581,3949.348076411176
0.1823348000868439,3673.2730750466517
0.189492477187382,3422.136759906131
0.19693113379074215,3210.468913650354
0.20466179993919872,3040.82535497946
0.21269593866686892,2901.846458098486
0.22104546299710207,2774.0781228773153
0.22972275360711503,2638.1892847097956
0.23874067718606454,2481.9720197011757
0.2481126055137766,2308.144865451432
0.25785243528842716,2133.9368409692493
0.26797460873256895,1978.9958865732822
0.27849413500806414,1853.8716817827553
0.28942661247167484,1753.4556756543743
0.3007882518043098,1660.2871326125285
0.31259590004822796,1558.5128394410801
0.324867065587837,1446.0561156120846
0.3376199441111335,1335.260051962306
0.35087344559027084,1239.5959641276631
0.36464722232127456,1161.7513383611745
0.37896169806447155,1091.175315030814
0.3938380983288488,1016.8463551421748
0.4092984818452433,939.8437486713176
0.4253657732750382,869.5542648391452
0.44206379720285277,809.9397170689346
0.45941731346364734,755.5968157239753
0.47745205385661277,700.4978061416003
0.4961947603002895,646.9699182788007
0.5156732244854959,599.5927264299386
0.5359163290848509,556.8716017653662
0.556954090580013,515.3376736635499
0.5788177037701272,475.7873951641043
0.6015395880274836,440.240603549521
0.6251534353689703,407.21953368322323
0.6496942604146115,375.77163926808083
0.6751984523072497,346.8535242780426
0.7017038286703824,320.2121928485681
0.7292496916841444,295.1967697487157
0.7578768863625915,272.0953633587748
0.7876278611187046,250.73393082943727
0.8185467307069019,230.90178491457405
0.850679341636415,212.528734527868
0.8840733401525058,195.5260025772622
0.9187782428863317,179.80686104164656
0.9548455102782278,165.28317671608687
0.9923286228832539,151.87015441867763
1.0312831606721837,139.4884772028331
1.0717668854455022,128.06400249525018
1.1138398264826193,117.52746701290155
1.1575643695533022,107.81440795665307
1.2030053494233226,98.86504490667434
1.2502301459914542,90.62352413023035
1.299308784200415,83.0376429180878
1.3503140378698726,76.05865481416326
1.4033215376054824,69.64107652542863
1.4584098829439835,63.74244018243251
1.5156607589006013,58.32315528550533
1.575159057091621,53.34640823092513
1.6369930016117014,48.77799365439644
1.7012542798525885,44.58615148088987
1.7680381784572046,40.74140666255173
1.8374437246107238,37.21640356220899
1.9095738328780953,33.985793096820785
1.9845354578058014,31.026108956387827
2.0624397525140905,28.315640411257338
2.143402233514853,25.834312450551405
2.227542951999554,23.5635711446925
2.314986671851158,21.48627694607537
2.405863054644063,19.58660894955223
2.5003068519063225,17.849971511137895
2.598458104929248,16.262906322099873
2.7004623524206774,14.813009738014813
2.806470846309834,13.488851731244667
2.916640776023701,12.27990709081788
3.031135501567576,11.176491925547431
3.150124795755327,10.169700533388971
3.2737850959485697,9.251346526833867
3.4022997656780634,8.41390732467485
3.5358593665351745,7.650471374590073
3.6746619407366854,6.954693903763862
3.8189133047818515,6.320753615025458
3.968827354637162,5.743311604253529
4.1246263829013445,5.217473275888936
4.286541408420921,4.738752324051105
4.4548125188449825,4.303038064791593
4.629689226627261,3.9065666015511016
4.811430839003257,3.5458928871211954
5.000306842491082,3.2178648069947275
5.196597302486189,2.9195992200590326
5.400593278542364,2.648459570114744
5.612597255954967,2.402035840455964
5.8329235942862,2.178126045268896
6.06189899349756,1.974718911459084
6.29986297838068,1.7899779338677575
6.547168402004727,1.622226404298826
6.804181968927091,1.469933381184256
7.071284778942991,1.3317023820142677
7.348872892180382,1.206260141378924
7.637357916378006,1.0924460412712682
7.937167617217536,0.9892024420918568
8.248746552614573,0.8955666194591916
8.572556731909314,0.8106624437336892
8.909078300934132,0.7336916692811063
9.258810253973934,0.6639271693676537
9.622271173675122,0.6007068084461157
9.999999999999984,0.5434274184275216
