k [1/Mpc],P(k) [Mpc^3]
0.0001,365.3823571551431
0.00010392556829367125,380.81951327643577
0.00010800523745162529,396.90852669248824
0.00011224505680853065,413.6768663863589
0.00011665131316981963,431.15315597325923
0.00012123054013376525,449.3672327122747
0.00012598952777950273,468.35019202044333
0.00013093533273536104,488.1344240540796
0.00013607528864243335,508.7536574674831
0.00014141701702890234,530.243032431144
0.00014696843861124463,552.63916598143
0.00015273778503907136,575.9802117292047
0.00015873361110102093,600.3059145591087
0.00016496480740980205,625.6576654206513
0.0001714406135851971,652.0785815186925
0.00017817063195457305,679.6135721402937
0.00018516484179121546,708.3094132593202
0.000192433614111598,738.2148217587476
0.00019998772705352857,769.3805084799009
0.0002078383818579757,801.8592820347891
0.00021599721947827182,835.7061380633667
0.0002244763378413224,870.9783472553106
0.0002332883097864157,907.7355435489444
0.00024244620170823283,946.0397729008478
0.0002519635929317015,985.95561884913
0.0002618545958474233,1027.5503198651486
0.0002721338768375308,1070.8938729102779
0.0002828166780230032,1116.0591393271022
0.0002939188398646886,1163.12186524212
0.0003054568246515432,1212.160828171724
0.00031744774091091926,1263.2580065027983
0.00032990936877709396,1316.4987014690973
0.00034286018635565856,1371.9716638690377
0.00035631939712285854,1429.769083405222
0.000370306958400514,1489.9867263401627
0.00038484361094874304,1552.7241926519303
0.0003999509097203664,1618.0850923788466
0.00041565125582259895,1686.1771706491902
0.00043196792973341727,1757.112223888759
0.0004489251258218605,1831.0061626802121
0.0004665479882234472,1907.9794128924696
0.000484862648123908,1988.1571289000967
0.000503896262506515,2071.669344911784
0.0005236770544204653,2158.650948885393
0.0005442343548300266,2249.2416706133095
0.0005655986461065005,2343.586502462867
0.0005878016072274912,2441.8357271443483
0.0006108761607505036,2544.145153554481
0.0006348565216305217,2650.676298054414
0.0006597782479539537,2761.5963671690597
0.0006856782936641739,2877.078636117601
0.0007125950633568407,2997.3023941391443
0.0007405684692262436,3122.453128534383
0.0007696399902471156,3252.722782137757
0.0007998527336796708,3388.3094125043654
0.000831251498989063,3529.417768002933
0.0008638828442740447,3676.2594331673777
0.000897795155303332,3829.0529257993962
0.0009330387172620361,3988.023909131224
0.0009696657893145519,4153.404360165048
0.001007730682094461,4325.433245912745
0.0010472898382363582,4504.356741163209
0.0010884019160690055,4690.428003485095
0.0011311278765939214,4883.90767085351
0.001175531073878369,5085.062685447801
0.0012216773489967915,5294.166738295766
0.0012696351276599736,5511.500643932415
0.0013194755216767058,5737.351445777116
0.0013712724343984,5972.013291078959
0.0014251026703029975,6215.786118397005
0.0014810460488806749,6468.975539609825
0.0015391855229902056,6731.893485510786
0.001599607301861487,7004.856367774462
0.0016624009789266115,7288.186184328549
0.0017276596646690358,7582.209536541533
0.0017954801246878305,7887.256749549339
0.0018659629231817451,8203.662518488261
0.001939212572065829,8531.762466671576
0.0020153376859417325,8871.894319407045
0.002094451143151469,9224.397585075965
0.002176670253153458,9589.611673992495
0.002262116930469025,9967.876813141438
0.002350917875457286,10359.530518996311
0.002443204762186487,10764.907602433228
0.0025391144336803463,11184.339500946911
0.002638789104828933,11618.149801175714
0.002742376573264949,12066.656522811647
0.0028500304385181063,12530.16926694174
0.0029619103297725525,13008.987826974833
0.0030781821425650787,13503.401590692121
0.003199018284775064,14013.68282955774
0.0033245979322709396,14540.088984539738
0.003455107294592217,15082.859683361443
0.0035907398910610534,15642.213437174041
0.0037316968377327513,16218.34812381884
0.0038781871456107214,16811.431708657183
0.0040304280305680515,17421.60391726452
0.00418864523543527,18048.97482087076
0.004353073364731888,18693.619510388606
0.00452395623253805,19355.579080119056
0.004701547224022131,20034.849526200833
0.004886109671160325,20731.381404348314
0.005077917243205399,21445.081285393153
0.005277254352483535,22175.80543909384
0.005484416576121017,22923.359822421604
0.005699711094326071,23687.47620543887
0.005923457145875801,24467.807207351987
0.006155986501483508,25263.95260649531
0.006397643955748424,26075.497884302185
0.0066487878384172625,26901.98090332278
0.0069097905457156435,27742.769418530777
0.007181039092537346,28596.999134485988
0.007462935686310132,29463.70893144167
0.007755898323389004,30341.931044089095
0.00806036140886134,31230.648930503463
0.008376776400682916,32128.777516919494
0.008705612479099857,33035.185972136656
0.009047357242349292,33948.65523301976
0.00940251742967013,34867.76047964453
0.009771619672696168,35790.89703254007
0.010155211276345676,36716.344689242986
0.010553861030365234,37642.25051695315
0.010968160052731372,38566.64832868812
0.011398722666160517,39487.44006543118
0.011846187309026826,40402.396597613086
0.012311217482038896,41309.18086647487
0.012794502732078732,42205.33634015625
0.013296759674662111,43088.30564592296
0.013818733056536317,43955.40486586966
0.014361196859990781,44803.810511589225
0.014924955450518284,45630.61343118448
0.015510844769528393,46432.79826418958
0.016119733573881575,47207.27492057651
0.01675252472408214,47950.907402434255
0.017410156523040152,48660.52553038029
0.018093604107387147,49332.94739470058
0.01880388089340914,49965.00260257804
0.019542040079740527,50553.54997022148
0.02030917620904734,51095.51887426185
0.021106426791015535,51587.9871547177
0.021934973989050584,52028.145369565966
0.02279604637318978,52413.4087076462
0.023690920741826323,52741.442468940186
0.02462092401494623,53010.127314833444
0.02558743520168586,53217.78397827849
0.02659188744512693,53363.01788011077
0.027635770147361564,53444.89244116597
0.028720631177978267,53463.060321701756
0.029848079169243254,53417.47068903223
0.03101978590138095,53308.61337655135
0.03223748878149028,53137.352445046236
0.0335029934197723,52905.18972312341
0.03481817630688963,52614.75369415019
0.03618498759642746,52268.85043444193
0.037605453996581675,51869.05500363045
0.03908168177536263,51416.13411887961
0.04061585988376978,50911.7404379743
0.04221026320156896,50360.10535266313
0.04386725591048496,49766.01030498544
0.0455892949998106,49134.742350175344
0.047378933909631396,48472.04995540212
0.049238826317067365,47782.20844383908
0.05117173007114603,47062.46056463093
0.05318051128214196,46308.12412702457
0.05526814857144601,45515.1243850677
0.057437737488265785,44680.09384736904
0.0596924950997073,43800.63410506929
0.0620357647610427,42878.33911386426
0.06447102107323864,41916.734991113764
0.06700187503509585,40919.40405218086
0.06963207939763882,39889.926448774946
0.0723655342286965,38831.21626298955
0.07520629269592405,37743.761454099644
0.07815856707684081,36629.91979213125
0.08122673500479707,35501.51021428928
0.08441534596012978,34371.86040012117
0.0877291280161335,33252.563757181524
0.09117299484984914,32151.00488805017
0.09475205302806537,31068.02560202366
0.09847160957933764,30001.92038134684
0.1023371798632519,28950.250318690803
0.10635449574860109,27912.98614047384
0.11052951411260206,26890.116005379965
0.1148684256737553,25879.036811576872
0.1193776641714435,24871.396981950616
0.1240639159058831,23858.743478226716
0.12893412965257148,22840.768812770162
0.13399552696593373,21826.346739075918
0.1392556128874462,20831.37604377801
0.14472218707411338,19870.91912782843
0.15040335536380234,18953.56248699623
0.15630754179458153,18077.259774146198
0.16244350109588662,17231.66558385312
0.16882033167003618,16409.49057244804
0.17544748908334581,15608.2529721088
0.1823348000868439,14825.133824576262
0.189492477187382,14059.756043303789
0.19693113379074215,13319.544797602384
0.20466179993919872,12610.005536802031
0.21269593866686892,11931.180832832117
0.22104546299710207,11284.867161502469
0.22972275360711503,10667.119214377426
0.23874067718606454,10070.357373043797
0.2481126055137766,9496.005789729517
0.25785243528842716,8947.72900838463
0.26797460873256895,8426.207609178762
0.27849413500806414,7928.902106057875
0.28942661247167484,7455.829393934412
0.3007882518043098,7005.791139915318
0.31259590004822796,6576.755125598405
0.324867065587837,6169.860427803559
0.3376199441111335,5784.69151176628
0.35087344559027084,5419.201787434441
0.36464722232127456,5073.5060697472
0.37896169806447155,4746.628662425063
0.3938380983288488,4437.706009986371
0.4092984818452433,4146.5683247846855
0.4253657732750382,3871.7174050984377
0.44206379720285277,3613.204286014283
0.45941731346364734,3369.6547544015216
0.47745205385661277,3140.917405351023
0.4961947603002895,2925.7771106152686
0.5156732244854959,2723.980379192841
0.5359163290848509,2534.5170756416155
0.556954090580013,2356.935604052581
0.5788177037701272,2190.602687971509
0.6015395880274836,2034.8136497883022
0.6251534353689703,1889.173587405144
0.6496942604146115,1753.0727849658726
0.6751984523072497,1625.9367748405205
0.7017038286703824,1507.3276730903724
0.7292496916841444,1396.716522762181
0.7578768863625915,1293.5727589450034
0.7876278611187046,1197.486779058355
0.8185467307069019,1108.0142894189482
0.850679341636415,1024.7601676005847
0.8840733401525058,947.3514449994819
0.9187782428863317,875.4210167312139
0.9548455102782278,808.6104017783271
0.9923286228832539,746.5882381420348
1.0312831606721837,689.0418994086248
1.0717668854455022,635.6762552852279
1.1138398264826193,586.2129661329764
1.1575643695533022,540.3897857456601
1.2030053494233226,497.9598972973465
1.2502301459914542,458.6911841604888
1.299308784200415,422.36552960306017
1.3503140378698726,388.7781525748682
1.4033215376054824,357.7369567398402
1.4584098829439835,329.0617236490508
1.5156607589006013,302.58336186772766
1.575159057091621,278.1437302261768
1.6369930016117014,255.595086551845
1.7012542798525885,234.79949694179106
1.7680381784572046,215.62826884889725
1.8374437246107238,197.9613961133415
1.9095738328780953,181.68705084962784
1.9845354578058014,166.70110401052688
2.0624397525140905,152.9066547167501
2.143402233514853,140.2135824077569
2.227542951999554,128.53811150071726
2.314986671851158,117.80238115690683
2.405863054644063,107.93410656657376
2.5003068519063225,98.86622776478691
2.598458104929248,90.53656460615308
2.7004623524206774,82.88749078570707
2.806470846309834,75.86559963684888
2.916640776023701,69.42141609078453
3.031135501567576,63.509171247478015
3.150124795755327,58.08654675791228
3.2737850959485697,53.1144317359566
3.4022997656780634,48.5566943525728
3.5358593665351745,44.3799634503379
3.6746619407366854,40.55343516275999
3.8189133047818515,37.0486905760459
3.968827354637162,33.83952146841136
4.1246263829013445,30.901767752332866
4.286541408420921,28.213163511466362
4.4548125188449825,25.75319319897154
4.629689226627261,23.502967260632097
4.811430839003257,21.445100519098318
5.000306842491082,19.563597948021762
5.196597302486189,17.843748363065473
5.400593278542364,16.272022228695874
5.612597255954967,14.835982256777774
5.8329235942862,13.524202826236426
6.06189899349756,12.326191064014093
6.29986297838068,11.23231362262707
6.547168402004727,10.233727891221385
6.804181968927091,9.322315863917401
7.071284778942991,8.490631267805323
7.348872892180382,7.731847492325792
7.637357916378006,7.039707631693418
7.937167617217536,6.408478466522782
8.248746552614573,5.832912480065131
8.572556731909314,5.308209462784381
8.909078300934132,4.829971817103093
9.258810253973934,4.394171333363423
9.622271173675122,3.9971193263680287
9.999999999999984,3.6354370921891173
