k [1/Mpc],P(k) [Mpc^3]
0.0001,15.98048563945461
0.00010392556829367125,16.70391824615652
0.00010800523745162529,17.46009335688299
0.00011224505680853065,18.250490281595454
0.00011665131316981963,19.076656210699063
0.00012123054013376525,19.940209964183303
0.00012598952777950273,20.842843565763513
0.00013093533273536104,21.786323827068877
0.00013607528864243335,22.7724964339436
0.00014141701702890234,23.803290476611302
0.00014696843861124463,24.880722538563756
0.00015273778503907136,26.00690022976607
0.00015873361110102093,27.18402613873023
0.00016496480740980205,28.414402111014
0.0001714406135851971,29.700433575350438
0.00017817063195457305,31.044633612777634
0.00018516484179121546,32.44962825972163
0.000192433614111598,33.9181618577436
0.00019998772705352857,35.45310240507912
0.0002078383818579757,37.05744680025986
0.00021599721947827182,38.73432560608904
0.0002244763378413224,40.48700953641303
0.0002332883097864157,42.31891564045635
0.00024244620170823283,44.233613238252275
0.0002519635929317015,46.23483147969827
0.0002618545958474233,48.32646674135014
0.0002721338768375308,50.51259002439119
0.0002828166780230032,52.79745368754182
0.0002939188398646886,55.185497129981236
0.0003054568246515432,57.6813571080697
0.00031744774091091926,60.289876548339606
0.00032990936877709396,63.01611349781254
0.00034286018635565856,65.86535062280048
0.00035631939712285854,68.84310293602198
0.000370306958400514,71.95512921189679
0.00038484361094874304,75.20744175662924
0.0003999509097203664,78.60631582343746
0.00041565125582259895,82.15830303965626
0.00043196792973341727,85.87023984579979
0.0004489251258218605,89.749260820029
0.0004665479882234472,93.80281243742763
0.000484862648123908,98.0386637432558
0.000503896262506515,102.46492244443239
0.0005236770544204653,107.09004422872813
0.0005442343548300266,111.92284670549479
0.0005655986461065005,116.9725278505245
0.0005878016072274912,122.24867467103948
0.0006108761607505036,127.76128421687368
0.0006348565216305217,133.52078079386405
0.0006597782479539537,139.53803182170068
0.0006856782936641739,145.82436656284187
0.0007125950633568407,152.3915751962296
0.0007405684692262436,159.25193446914557
0.0007696399902471156,166.41823775247377
0.0007998527336796708,173.90381603484295
0.000831251498989063,181.7225569875839
0.0008638828442740447,189.88889736637935
0.000897795155303332,198.41784348250548
0.0009330387172620361,207.3250157202716
0.0009696657893145519,216.6266723728445
0.001007730682094461,226.33973273850415
0.0010472898382363582,236.4817683426541
0.0010884019160690055,247.07100733334048
0.0011311278765939214,258.12639333740645
0.001175531073878369,269.66759242719985
0.0012216773489967915,281.71502675641864
0.0012696351276599736,294.2898851584213
0.0013194755216767058,307.4141114221696
0.0013712724343984,321.1104659865067
0.0014251026703029975,335.4024923810399
0.0014810460488806749,350.3145453969963
0.0015391855229902056,365.87184635341384
0.001599607301861487,382.10046314259336
0.0016624009789266115,399.02736469540463
0.0017276596646690358,416.6803586392009
0.0017954801246878305,435.0880690054165
0.0018659629231817451,454.28004190565406
0.001939212572065829,474.28669357580657
0.0020153376859417325,495.1393621444459
0.002094451143151469,516.8702788324935
0.002176670253153458,539.5124872152768
0.002262116930469025,563.0999519212637
0.002350917875457286,587.6674266589066
0.002443204762186487,613.2504796837279
0.0025391144336803463,639.8855282504809
0.002638789104828933,667.6096744696465
0.002742376573264949,696.460821288341
0.0028500304385181063,726.4775152588758
0.0029619103297725525,757.6988715655133
0.0030781821425650787,790.1646761990313
0.003199018284775064,823.9151533423354
0.0033245979322709396,858.9910381358166
0.003455107294592217,895.4333751013752
0.0035907398910610534,933.2832298334408
0.0037316968377327513,972.5819163504294
0.0038781871456107214,1013.3706764659912
0.0040304280305680515,1055.6906653826402
0.00418864523543527,1099.5827996390726
0.004353073364731888,1145.0871651479065
0.00452395623253805,1192.243324586184
0.004701547224022131,1241.0898701393712
0.004886109671160325,1291.6642086966256
0.005077917243205399,1344.002575933488
0.005277254352483535,1398.139042838638
0.005484416576121017,1454.105839173969
0.005699711094326071,1511.9329242222468
0.005923457145875801,1571.6473698624618
0.006155986501483508,1633.2735120403663
0.006397643955748424,1696.8306745484292
0.0066487878384172625,1762.3335821119
0.0069097905457156435,1829.7938503835774
0.007181039092537346,1899.2210156858637
0.007462935686310132,1970.6203656395962
0.007755898323389004,2043.9832562333222
0.00806036140886134,2119.2863943735165
0.008376776400682916,2196.500325887314
0.008705612479099857,2275.5962697723885
0.009047357242349292,2356.5405221542705
0.00940251742967013,2439.283305789945
0.009771619672696168,2523.7533376042998
0.010155211276345676,2609.868082484804
0.010553861030365234,2697.5392257344197
0.010968160052731372,2786.670032360703
0.011398722666160517,2877.146305947683
0.011846187309026826,2968.8267155676836
0.012311217482038896,3061.552843269415
0.012794502732078732,3155.1430301996506
0.013296759674662111,3249.392914314665
0.013818733056536317,3344.0790181827865
0.014361196859990781,3438.953073368897
0.014924955450518284,3533.746651465272
0.015510844769528393,3628.162367841099
0.016119733573881575,3721.8702533784576
0.01675252472408214,3814.517870236299
0.017410156523040152,3905.7180440437287
0.018093604107387147,3995.057911169781
0.01880388089340914,4082.0978652424656
0.019542040079740527,4166.363327387406
0.02030917620904734,4247.360658508925
0.021106426791015535,4324.565894214154
0.021934973989050584,4397.432397141473
0.02279604637318978,4465.400619856911
0.023690920741826323,4527.889044881492
0.02462092401494623,4584.313270426769
0.02558743520168586,4634.089481295281
0.02659188744512693,4676.639875384077
0.027635770147361564,4711.405994744284
0.028720631177978267,4737.854836593422
0.029848079169243254,4755.487926706725
0.03101978590138095,4763.878939664548
0.03223748878149028,4762.704568094718
0.0335029934197723,4751.703044064284
0.03481817630688963,4730.667611357886
0.03618498759642746,4699.454555527026
0.037605453996581675,4658.149195232598
0.03908168177536263,4607.369630692852
0.04061585988376978,4547.849075473753
0.04221026320156896,4480.04812436919
0.04386725591048496,4404.1749339492135
0.0455892949998106,4320.65539451506
0.047378933909631396,4230.8352267011005
0.049238826317067365,4136.292094152269
0.05117173007114603,4038.5230653456906
0.05318051128214196,3938.9333305209343
0.05526814857144601,3838.8947711660408
0.057437737488265785,3740.113152308951
0.0596924950997073,3644.2916109284715
0.0620357647610427,3552.8300383233372
0.06447102107323864,3466.872315398243
0.06700187503509585,3387.2077940699605
0.06963207939763882,3314.2998821635742
0.0723655342286965,3248.140428691686
0.07520629269592405,3188.323368894402
0.07815856707684081,3133.931457532716
0.08122673500479707,3083.644262774912
0.08441534596012978,3035.5593819046253
0.0877291280161335,2987.28283539197
0.09117299484984914,2935.9910351638964
0.09475205302806537,2878.574044302041
0.09847160957933764,2812.060524529374
0.1023371798632519,2734.024578388412
0.10635449574860109,2643.0917978049806
0.11052951411260206,2539.359526448749
0.1148684256737553,2424.4551336893824
0.1193776641714435,2301.493387509018
0.1240639159058831,2174.9972972038963
0.12893412965257148,2050.6210521465227
0.13399552696593373,1933.8720329910389
0.1392556128874462,1829.606576098874
0.14472218707411338,1741.6618340029156
0.15040335536380234,1671.6169117237416
0.15630754179458153,1618.329500920754
0.16244350109588662,1577.8649378378109
0.16882033167003618,1543.8691061009845
0.17544748908334581,1508.4318512618106
0.1823348000868439,1463.6708474787285
0.189492477187382,1403.944710367267
0.19693113379074215,1327.942439886584
0.20466179993919872,1239.7484634743294
0.21269593866686892,1148.234176237436
0.22104546299710207,1064.3371938512005
0.22972275360711503,996.7722459606387
0.23874067718606454,948.7085033062352
0.2481126055137766,916.909432263624
0.25785243528842716,892.5607339682143
0.26797460873256895,863.9449805489568
0.27849413500806414,822.2738958062911
0.28942661247167484,766.8809806671521
0.3007882518043098,705.694229112668
0.31259590004822796,650.8866895634168
0.324867065587837,611.1745674924168
0.3376199441111335,586.0452183240948
0.35087344559027084,565.9742016270242
0.36464722232127456,539.3105160194137
0.37896169806447155,502.1235150393355
0.3938380983288488,461.2885931213846
0.4092984818452433,427.66198123715003
0.4253657732750382,405.2711082507993
0.44206379720285277,387.8242998698589
0.45941731346364734,365.8200341319755
0.47745205385661277,337.98378482289826
0.4961947603002895,312.09025107591424
0.5156732244854959,293.5546553193029
0.5359163290848509,278.3985304211255
0.556954090580013,260.21983755624285
0.5788177037701272,240.18097867488922
0.6015395880274836,223.89146111961355
0.6251534353689703,210.9130468679238
0.6496942604146115,196.7591642283533
0.6751984523072497,182.0182295154513
0.7017038286703824,169.88407337553716
0.7292496916841444,158.9428262063449
0.7578768863625915,147.3632541972912
0.7876278611187046,136.92184065520235
0.8185467307069019,127.72721610432444
0.850679341636415,118.46741259179745
0.8840733401525058,110.04141359326054
0.9187782428863317,102.31589585241042
0.9548455102782278,95.02137983023017
0.9923286228832539,88.14890242120144
1.0312831606721837,81.70182132303762
1.0717668854455022,75.67766386278348
1.1138398264826193,70.06913299385211
1.1575643695533022,64.86370090414374
1.2030053494233226,60.0354239283747
1.2502301459914542,55.55449440436988
1.299308784200415,51.39384784005623
1.3503140378698726,47.5289196681995
1.4033215376054824,43.93738438123106
1.4584098829439835,40.59975273671326
1.5156607589006013,37.50008733278435
1.575159057091621,34.62353422070037
1.6369930016117014,31.95591570482336
1.7012542798525885,29.483729307238946
1.7680381784572046,27.194125486402392
1.8374437246107238,25.074618040818585
1.9095738328780953,23.113215139885607
1.9845354578058014,21.29870957594301
2.0624397525140905,19.620641539355248
2.143402233514853,18.069252420630793
2.227542951999554,16.635455815996433
2.314986671851158,15.310843392055395
2.405863054644063,14.087578220743517
2.5003068519063225,12.958338245265812
2.598458104929248,11.9162870690098
2.7004623524206774,10.95504577105809
2.806470846309834,10.068655008836348
2.916640776023701,9.251547871800529
3.031135501567576,8.498545383256149
3.150124795755327,7.804833359143936
3.2737850959485697,7.165938770917335
3.4022997656780634,6.577707691462834
3.5358593665351745,6.036286091888238
3.6746619407366854,5.538098356055098
3.8189133047818515,5.079827379649744
3.968827354637162,4.658397261728449
4.1246263829013445,4.270957037943642
4.286541408420921,3.914864700885836
4.4548125188449825,3.5876719366068865
4.629689226627261,3.287112744155208
4.811430839003257,3.0110910352992533
5.000306842491082,2.757668633753667
5.196597302486189,2.52505403760612
5.400593278542364,2.311591632609744
5.612597255954967,2.1157520337675253
5.8329235942862,1.9361232952606562
6.06189899349756,1.771402355261569
6.29986297838068,1.6203870479223486
6.547168402004727,1.4819684988624093
6.804181968927091,1.355123599342133
7.071284778942991,1.2389093945603034
7.348872892180382,1.132457361668978
7.637357916378006,1.0349677614774258
7.937167617217536,0.9457044067615269
8.248746552614573,0.8639904986254581
8.572556731909314,0.7892042939726355
8.909078300934132,0.7207735650927877
9.258810253973934,0.65817171867408
9.622271173675122,0.6009143264582935
9.999999999999984,0.5485555917285643
