k [1/Mpc],P(k) [Mpc^3]
0.0001,57.530473116862076
0.00010392556829367125,59.96132153913963
0.00010800523745162529,62.494847174507576
0.00011224505680853065,65.1353784473403
0.00011665131316981963,67.88742527111596
0.00012123054013376525,70.75569161803989
0.00012598952777950273,73.74508279151657
0.00013093533273536104,76.86070931056433
0.00013607528864243335,80.10789087688094
0.00014141701702890234,83.49216930307213
0.00014696843861124463,87.01932143571291
0.00015273778503907136,90.69536964760799
0.00015873361110102093,94.52658862075779
0.00016496480740980205,98.51950998980405
0.0001714406135851971,102.68093643296359
0.00017817063195457305,107.01795780119252
0.00018516484179121546,111.53796570392412
0.000192433614111598,116.24866174585345
0.00019998772705352857,121.15806445339
0.0002078383818579757,126.27452384038232
0.00021599721947827182,131.60673700963864
0.0002244763378413224,137.16375909573372
0.0002332883097864157,142.95502137860274
0.00024244620170823283,148.99035080653368
0.0002519635929317015,155.27998689522283
0.0002618545958474233,161.83459172875652
0.0002721338768375308,168.6652477522529
0.0002828166780230032,175.78348714168482
0.0002939188398646886,183.20132863236142
0.0003054568246515432,190.93130739420513
0.00031744774091091926,198.986476154911
0.00032990936877709396,207.38038582655608
0.00034286018635565856,216.12711734174601
0.00035631939712285854,225.24133491336946
0.000370306958400514,234.7383308614431
0.00038484361094874304,244.634027759532
0.0003999509097203664,254.9449611793096
0.00041565125582259895,265.68829959957037
0.00043196792973341727,276.8819034847351
0.0004489251258218605,288.5443621953662
0.0004665479882234472,300.6950160441752
0.000484862648123908,313.35395962337486
0.000503896262506515,326.54205351013394
0.0005236770544204653,340.28098170088606
0.0005442343548300266,354.593276275035
0.0005655986461065005,369.50235231357493
0.0005878016072274912,385.0325239342693
0.0006108761607505036,401.2089968781226
0.0006348565216305217,418.0579427346371
0.0006597782479539537,435.60653919296266
0.0006856782936641739,453.88300563576865
0.0007125950633568407,472.91662369881755
0.0007405684692262436,492.7377008769185
0.0007696399902471156,513.3776567950723
0.0007998527336796708,534.8690566206214
0.000831251498989063,557.2456310998123
0.0008638828442740447,580.5423404981836
0.000897795155303332,604.7953605506895
0.0009330387172620361,630.0421427164416
0.0009696657893145519,656.3214349653348
0.001007730682094461,683.6732437233399
0.0010472898382363582,712.1389477997626
0.0010884019160690055,741.7612465186662
0.0011311278765939214,772.5841967442938
0.001175531073878369,804.6532908495789
0.0012216773489967915,838.0153631766073
0.0012696351276599736,872.7187143986596
0.0013194755216767058,908.8130355195319
0.0013712724343984,946.3493551217997
0.0014251026703029975,985.3801993894249
0.0014810460488806749,1025.9594168868273
0.0015391855229902056,1068.1422874882137
0.001599607301861487,1111.9854949471348
0.0016624009789266115,1157.5469296785163
0.0017276596646690358,1204.8859090766293
0.0017954801246878305,1254.0629080481974
0.0018659629231817451,1305.1395730527984
0.001939212572065829,1358.1788229451106
0.0020153376859417325,1413.2445017382622
0.002094451143151469,1470.401596831245
0.002176670253153458,1529.7159617086677
0.002262116930469025,1591.2541177570483
0.002350917875457286,1655.0834679701086
0.002443204762186487,1721.271727459123
0.0025391144336803463,1789.887091777
0.002638789104828933,1860.9980556830067
0.002742376573264949,1934.6728938993722
0.0028500304385181063,2010.979995255028
0.0029619103297725525,2089.9871847564186
0.0030781821425650787,2171.761653273456
0.003199018284775064,2256.3698866636378
0.0033245979322709396,2343.876588718376
0.003455107294592217,2434.345186381382
0.0035907398910610534,2527.837117836483
0.0037316968377327513,2624.4113279677063
0.0038781871456107214,2724.124488098143
0.0040304280305680515,2827.0294045930186
0.00418864523543527,2933.1754050108384
0.004353073364731888,3042.6077814773566
0.00452395623253805,3155.3665579921826
0.004701547224022131,3271.4870519820197
0.004886109671160325,3390.9972860282915
0.005077917243205399,3513.9180035402237
0.005277254352483535,3640.263006714472
0.005484416576121017,3770.0370269148007
0.005699711094326071,3903.236494090196
0.005923457145875801,4039.8446020342676
0.006155986501483508,4179.829482479052
0.006397643955748424,4323.149214494568
0.0066487878384172625,4469.75692603617
0.0069097905457156435,4619.596861008748
0.007181039092537346,4772.584077361723
0.007462935686310132,4928.586480877383
0.007755898323389004,5087.451396187902
0.00806036140886134,5249.028693747887
0.008376776400682916,5413.164571704945
0.008705612479099857,5579.675030619542
0.009047357242349292,5748.314344215816
0.00940251742967013,5918.804641123894
0.009771619672696168,6090.855973411538
0.010155211276345676,6264.16801333242
0.010553861030365234,6438.409790647179
0.010968160052731372,6613.181351167936
0.011398722666160517,6788.038523217027
0.011846187309026826,6962.492927580647
0.012311217482038896,7136.001109794327
0.012794502732078732,7307.983117902348
0.013296759674662111,7477.80753519206
0.013818733056536317,7644.799836121813
0.014361196859990781,7808.23820698441
0.014924955450518284,7967.3232074482485
0.015510844769528393,8121.215747754465
0.016119733573881575,8269.01313363884
0.01675252472408214,8409.75327492748
0.017410156523040152,8542.440916629597
0.018093604107387147,8666.005881125247
0.01880388089340914,8779.350010774024
0.019542040079740527,8881.337182399666
0.02030917620904734,8970.781128860917
0.021106426791015535,9046.50363716624
0.021934973989050584,9107.29421039965
0.02279604637318978,9151.955393873875
0.023690920741826323,9179.329694384045
0.02462092401494623,9188.27831265576
0.02558743520168586,9177.753838789135
0.02659188744512693,9146.806399625122
0.027635770147361564,9094.608559360307
0.028720631177978267,9020.49870992418
0.029848079169243254,8924.000650117334
0.03101978590138095,8804.845247115585
0.03223748878149028,8663.091408917357
0.0335029934197723,8499.17406158427
0.03481817630688963,8313.762206499328
0.03618498759642746,8107.769140846946
0.037605453996581675,7882.331901835244
0.03908168177536263,7639.315766805599
0.04061585988376978,7381.927176701749
0.04221026320156896,7113.4071835076575
0.04386725591048496,6836.148827835601
0.0455892949998106,6551.927489939205
0.047378933909631396,6263.05121356963
0.049238826317067365,5973.925215717653
0.05117173007114603,5688.949050358503
0.05318051128214196,5412.258476634429
0.05526814857144601,5147.644318163563
0.057437737488265785,4898.357659983423
0.0596924950997073,4667.3167877784435
0.0620357647610427,4456.715661327202
0.06447102107323864,4267.987148020433
0.06700187503509585,4101.837073717588
0.06963207939763882,3958.108563265175
0.0723655342286965,3835.8709051436053
0.07520629269592405,3733.3979343003034
0.07815856707684081,3647.8612073846716
0.08122673500479707,3575.473241648905
0.08441534596012978,3511.1699697766335
0.0877291280161335,3448.7681146771415
0.09117299484984914,3381.3974709862146
0.09475205302806537,3302.0467780412287
0.09847160957933764,3204.3669397064486
0.1023371798632519,3084.1475782836046
0.10635449574860109,2939.6577679526113
0.11052951411260206,2771.9305271338276
0.1148684256737553,2584.8950246725
0.1193776641714435,2385.737953845696
0.1240639159058831,2184.48442938692
0.12893412965257148,1992.6448565725645
0.13399552696593373,1821.3828196059749
0.1392556128874462,1679.4145646630448
0.14472218707411338,1571.5621401960566
0.15040335536380234,1498.139326986303
0.15630754179458153,1454.857517871758
0.16244350109588662,1432.949764831171
0.16882033167003618,1419.7341694239103
0.17544748908334581,1400.284346384502
0.1823348000868439,1360.522467232634
0.189492477187382,1291.3898706690902
0.19693113379074215,1192.9586664356555
0.20466179993919872,1076.0844081822922
0.21269593866686892,958.9105459068921
0.22104546299710207,859.5502166861571
0.22972275360711503,790.0464127842952
0.23874067718606454,753.135393539901
0.2481126055137766,740.6514560928791
0.25785243528842716,735.3046766021126
0.26797460873256895,717.3782383627398
0.27849413500806414,674.1679524304615
0.28942661247167484,608.3900601405842
0.3007882518043098,537.5283232214299
0.31259590004822796,481.99123172440164
0.324867065587837,452.0846049052034
0.3376199441111335,442.1246326525526
0.35087344559027084,434.3917331242417
0.36464722232127456,411.3904066418137
0.37896169806447155,371.06422670232047
0.3938380983288488,328.82200350627227
0.4092984818452433,301.2349731991308
0.4253657732750382,289.9623214512807
0.44206379720285277,281.26158883023584
0.45941731346364734,261.6278431203378
0.47745205385661277,233.97247311055986
0.4961947603002895,212.45514487684358
0.5156732244854959,202.0182881200517
0.5359163290848509,192.92662420617847
0.556954090580013,176.78103501442055
0.5788177037701272,159.46978912761568
0.6015395880274836,148.9463672339632
0.6251534353689703,141.06052803274787
0.6496942604146115,129.42197049957264
0.6751984523072497,117.8905584168277
0.7017038286703824,110.38818705255645
0.7292496916841444,102.7330844570066
0.7578768863625915,93.75324315446592
0.7876278611187046,86.94601241865517
0.8185467307069019,80.45463702598235
0.850679341636415,74.00024362657464
0.8840733401525058,68.0948308712454
0.9187782428863317,62.76954426717229
0.9548455102782278,57.92617844591522
0.9923286228832539,53.4845052252225
1.0312831606721837,49.379242112781824
1.0717668854455022,45.557567315290214
1.1138398264826193,41.9856473028811
1.1575643695533022,38.65585450080336
1.2030053494233226,35.562241896888274
1.2502301459914542,32.696987896030535
1.299308784200415,30.05082879764212
1.3503140378698726,27.613356314735643
1.4033215376054824,25.370792534065348
1.4584098829439835,23.306859138774257
1.5156607589006013,21.406607534021298
1.575159057091621,19.65648312095265
1.6369930016117014,18.044180456819248
1.7012542798525885,16.558579109218226
1.7680381784572046,15.190143169006783
1.8374437246107238,13.930344863546052
1.9095738328780953,12.771193944539762
1.9845354578058014,11.705209569182905
2.0624397525140905,10.725397054386068
2.143402233514853,9.825195184273683
2.227542951999554,8.998378541893864
2.314986671851158,8.239157161519877
2.405863054644063,7.5421812025043815
2.5003068519063225,6.902508907395946
2.598458104929248,6.315576842509765
2.7004623524206774,5.777178884841285
2.806470846309834,5.283443109683793
2.916640776023701,4.830793553103759
3.031135501567576,4.415927523483444
3.150124795755327,4.035796003298174
3.2737850959485697,3.687585265963352
3.4022997656780634,3.3686986615389922
3.5358593665351745,3.076741258603049
3.6746619407366854,2.809506173053355
3.8189133047818515,2.5649605817850456
3.968827354637162,2.3412326644218626
4.1246263829013445,2.136599312770054
4.286541408420921,1.9494740846075675
4.4548125188449825,1.7783976238147903
4.629689226627261,1.622028357282086
4.811430839003257,1.4791333674537992
5.000306842491082,1.3485799344195555
5.196597302486189,1.2293277682500008
5.400593278542364,1.1204218532482544
5.612597255954967,1.0209855299885668
5.8329235942862,0.930214266149712
6.06189899349756,0.8473699383381184
6.29986297838068,0.771775538508018
6.547168402004727,0.7028099662191548
6.804181968927091,0.6399035353893326
7.071284778942991,0.5825343409357358
7.348872892180382,0.5302243990739011
7.637357916378006,0.48253605158495794
7.937167617217536,0.43906869984735464
8.248746552614573,0.39945622007677073
8.572556731909314,0.3633637783093601
8.909078300934132,0.3304848516724401
9.258810253973934,0.300538910799706
9.622271173675122,0.2732692906441504
9.999999999999984,0.24844092618917415
