k [1/Mpc],P(k) [Mpc^3]
0.0001,931.5817179602876
0.00010392556829367125,968.1331858329332
0.00010800523745162529,1006.117216626582
0.00011224505680853065,1045.5898471722694
0.00011665131316981963,1086.6092586986465
0.00012123054013376525,1129.235764475403
0.00012598952777950273,1173.5319862283648
0.00013093533273536104,1219.5630328085335
0.00013607528864243335,1267.396603290837
0.00014141701702890234,1317.1029968058997
0.00014696843861124463,1368.7550844343316
0.00015273778503907136,1422.4284943360956
0.00015873361110102093,1478.2017935975477
0.00016496480740980205,1536.1566221643398
0.0001714406135851971,1596.3777471612277
0.00017817063195457305,1658.953039322563
0.00018516484179121546,1723.9736484046014
0.000192433614111598,1791.5342007416027
0.00019998772705352857,1861.7329393430878
0.0002078383818579757,1934.671838031652
0.00021599721947827182,2010.4566299095532
0.0002244763378413224,2089.1969578423314
0.0002332883097864157,2171.0065473554323
0.00024244620170823283,2256.003219025791
0.0002519635929317015,2344.309150736656
0.0002618545958474233,2436.0510290164298
0.0002721338768375308,2531.3601959626476
0.0002828166780230032,2630.372814559574
0.0002939188398646886,2733.2298126131686
0.0003054568246515432,2840.0771794428465
0.00031744774091091926,2951.0660802929497
0.00032990936877709396,3066.352888128751
0.00034286018635565856,3186.099549648841
0.00035631939712285854,3310.4735519619767
0.000370306958400514,3439.6481770438177
0.00038484361094874304,3573.8027117570014
0.0003999509097203664,3713.1224051741906
0.00041565125582259895,3857.798871219395
0.00043196792973341727,4008.0299232585144
0.0004489251258218605,4164.019738554399
0.0004665479882234472,4325.979226443737
0.000484862648123908,4494.125628226414
0.000503896262506515,4668.683124794558
0.0005236770544204653,4849.882986166901
0.0005442343548300266,5037.963629422224
0.0005655986461065005,5233.170946670815
0.0005878016072274912,5435.757704750009
0.0006108761607505036,5645.9840735963435
0.0006348565216305217,5864.117585570287
0.0006597782479539537,6090.432521390422
0.0006856782936641739,6325.210948934401
0.0007125950633568407,6568.742626308775
0.0007405684692262436,6821.3251854771825
0.0007696399902471156,7083.263814842641
0.0007998527336796708,7354.869545164443
0.000831251498989063,7636.460834509985
0.0008638828442740447,7928.363246091147
0.000897795155303332,8230.909265233118
0.0009330387172620361,8544.438525398156
0.0009696657893145519,8869.295131523017
0.001007730682094461,9205.829181612404
0.0010472898382363582,9554.39642059127
0.0010884019160690055,9915.357065144539
0.0011311278765939214,10289.076765230415
0.001175531073878369,10675.922484192663
0.0012216773489967915,11076.263539657291
0.0012696351276599736,11490.47233329035
0.0013194755216767058,11918.92205475849
0.0013712724343984,12361.987920884556
0.0014251026703029975,12820.04271871304
0.0014810460488806749,13293.456178121936
0.0015391855229902056,13782.596388698039
0.001599607301861487,14287.825149053622
0.0016624009789266115,14809.499970594321
0.0017276596646690358,15347.970614119642
0.0017954801246878305,15903.576331983506
0.0018659629231817451,16476.647627559712
0.001939212572065829,17067.498743254586
0.0020153376859417325,17676.429543832906
0.002094451143151469,18303.72435624812
0.002176670253153458,18949.64748530181
0.002262116930469025,19614.444745463228
0.002350917875457286,20298.33504683694
0.002443204762186487,21001.510057146334
0.0025391144336803463,21724.133777462288
0.002638789104828933,22466.333692529257
0.002742376573264949,23228.20465340284
0.0028500304385181063,24009.803154106092
0.0029619103297725525,24811.144154678193
0.0030781821425650787,25632.200655962657
0.003199018284775064,26472.890395234142
0.0033245979322709396,27333.080449849294
0.003455107294592217,28212.583854381523
0.0035907398910610534,29111.153732144834
0.0037316968377327513,30028.484553963066
0.0038781871456107214,30964.19589818916
0.0040304280305680515,31917.835450799277
0.00418864523543527,32888.88449101082
0.004353073364731888,33876.756994888434
0.00452395623253805,34880.79163095422
0.004701547224022131,35900.19528458859
0.004886109671160325,36934.045732511004
0.005077917243205399,37981.375501465365
0.005277254352483535,39041.313283160656
0.005484416576121017,40112.953249185004
0.005699711094326071,41194.984653087
0.005923457145875801,42285.58130120657
0.006155986501483508,43382.825518734295
0.006397643955748424,44485.16976538757
0.0066487878384172625,45591.17500937301
0.0069097905457156435,46699.09051882954
0.007181039092537346,47806.622001150514
0.007462935686310132,48911.3290110943
0.007755898323389004,50011.028178893284
0.00806036140886134,51103.68241834871
0.008376776400682916,52187.05922334951
0.008705612479099857,53258.46825936381
0.009047357242349292,54315.04715494293
0.00940251742967013,55353.7930771748
0.009771619672696168,56371.57044499974
0.010155211276345676,57365.15509087952
0.010553861030365234,58331.242698259004
0.010968160052731372,59266.46434255219
0.011398722666160517,60167.38941521629
0.011846187309026826,61030.53440897698
0.012311217482038896,61852.37350595507
0.012794502732078732,62629.210623759034
0.013296759674662111,63357.27872150598
0.013818733056536317,64032.83346918564
0.014361196859990781,64652.17345934138
0.014924955450518284,65211.666926752434
0.015510844769528393,65707.747932018
0.016119733573881575,66136.95022745493
0.01675252472408214,66495.96595813839
0.017410156523040152,66781.69800920898
0.018093604107387147,66991.26521792926
0.01880388089340914,67122.11521897893
0.019542040079740527,67172.06145443305
0.02030917620904734,67139.25379698428
0.021106426791015535,67022.42034701987
0.021934973989050584,66820.71112486352
0.02279604637318978,66533.8644931647
0.023690920741826323,66162.3872739546
0.02462092401494623,65707.22089308931
0.02558743520168586,65170.201005025614
0.02659188744512693,64553.780806238545
0.027635770147361564,63861.052946132135
0.028720631177978267,63096.29836948346
0.029848079169243254,62264.12249905795
0.03101978590138095,61369.36478084234
0.03223748878149028,60417.03856143446
0.0335029934197723,59412.82919386809
0.03481817630688963,58365.06187232007
0.03618498759642746,57282.36153841949
0.037605453996581675,56167.925906904566
0.03908168177536263,55018.4187538476
0.04061585988376978,53832.90496947779
0.04221026320156896,52626.75919147125
0.04386725591048496,51420.905824967274
0.0455892949998106,50223.63098416456
0.047378933909631396,49020.77456841647
0.049238826317067365,47797.58778282681
0.05117173007114603,46547.79741181892
0.05318051128214196,45270.56972926264
0.05526814857144601,43966.616066439245
0.057437737488265785,42640.04956344886
0.0596924950997073,41295.541229263894
0.0620357647610427,39937.20795994844
0.06447102107323864,38568.69732046959
0.06700187503509585,37189.802460409686
0.06963207939763882,35795.231201203744
0.0723655342286965,34387.733016336264
0.07520629269592405,32983.4287310261
0.07815856707684081,31600.882004470972
0.08122673500479707,30260.074030022686
0.08441534596012978,28971.482490018796
0.0877291280161335,27736.982796548557
0.09117299484984914,26552.012126528094
0.09475205302806537,25410.890652318525
0.09847160957933764,24308.806281155357
0.1023371798632519,23237.66822173173
0.10635449574860109,22185.894440837685
0.11052951411260206,21141.31150175637
0.1148684256737553,20098.868612714126
0.1193776641714435,19063.717781117255
0.1240639159058831,18047.59268930495
0.12893412965257148,17066.47507471854
0.13399552696593373,16135.895578367272
0.1392556128874462,15261.272336336819
0.14472218707411338,14437.026446007014
0.15040335536380234,13653.782892251127
0.15630754179458153,12906.096653897794
0.16244350109588662,12184.488697858154
0.16882033167003618,11480.501352939096
0.17544748908334581,10798.437209807124
0.1823348000868439,10146.391481336037
0.189492477187382,9528.054873200577
0.19693113379074215,8947.999418508998
0.20466179993919872,8402.673765266103
0.21269593866686892,7882.924398450413
0.22104546299710207,7387.487396496229
0.22972275360711503,6915.4481292539795
0.23874067718606454,6467.948457438182
0.2481126055137766,6046.743662441116
0.25785243528842716,5650.351910318496
0.26797460873256895,5276.393404811001
0.27849413500806414,4923.259516077684
0.28942661247167484,4590.086393004113
0.3007882518043098,4276.999663243945
0.31259590004822796,3982.970137495232
0.324867065587837,3706.7062266535154
0.3376199441111335,3447.4529840572372
0.35087344559027084,3204.2404100919907
0.36464722232127456,2976.55873671118
0.37896169806447155,2763.432017630785
0.3938380983288488,2564.041800387203
0.4092984818452433,2377.830934485531
0.4253657732750382,2203.8563910361713
0.44206379720285277,2041.6378984819016
0.45941731346364734,1890.3697969085622
0.47745205385661277,1749.3659633011223
0.4961947603002895,1618.1070397900614
0.5156732244854959,1495.9485752325083
0.5359163290848509,1382.2893398467777
0.556954090580013,1276.6255031656247
0.5788177037701272,1178.47917629022
0.6015395880274836,1087.381335708142
0.6251534353689703,1002.897028297255
0.6496942604146115,924.5552426079912
0.6751984523072497,851.9860052345788
0.7017038286703824,784.797211526908
0.7292496916841444,722.6041103405084
0.7578768863625915,665.0589466468848
0.7876278611187046,611.837435632177
0.8185467307069019,562.651202444797
0.850679341636415,517.223778542125
0.8840733401525058,475.2868355584585
0.9187782428863317,436.5892540108276
0.9548455102782278,400.8963800905247
0.9923286228832539,367.98909264493705
1.0312831606721837,337.6629841923312
1.0717668854455022,309.72799175859757
1.1138398264826193,284.0070796562061
1.1575643695533022,260.3351437935619
1.2030053494233226,238.55832278605777
1.2502301459914542,218.53333961329895
1.299308784200415,200.12681890768147
1.3503140378698726,183.21449396934875
1.4033215376054824,167.68089597286246
1.4584098829439835,153.4188930130185
1.5156607589006013,140.32914572447712
1.575159057091621,128.31959283652074
1.6369930016117014,117.30494197612327
1.7012542798525885,107.20616719633384
1.7680381784572046,97.95016358883377
1.8374437246107238,89.46935546506086
1.9095738328780953,81.70130809498377
1.9845354578058014,74.58836390540617
2.0624397525140905,68.0773170475929
2.143402233514853,62.119106591573086
2.227542951999554,56.668479563638314
2.314986671851158,51.68371010914349
2.405863054644063,47.1263426614068
2.5003068519063225,42.96095149374859
2.598458104929248,39.15488797506851
2.7004623524206774,35.67806919301424
2.806470846309834,32.50283498396399
2.916640776023701,29.603766008055626
3.031135501567576,26.957510405886193
3.150124795755327,24.542623390905955
3.2737850959485697,22.3394255924849
3.4022997656780634,20.329862213567175
3.5358593665351745,18.497365911737138
3.6746619407366854,16.82673925118193
3.8189133047818515,15.304046328174586
3.968827354637162,13.91651197567793
4.1246263829013445,12.65242318350653
4.286541408420921,11.501047758767468
4.4548125188449825,10.452560427815207
4.629689226627261,9.49796895843327
4.811430839003257,8.629045918967304
5.000306842491082,7.838265670440754
5.196597302486189,7.11874567393599
5.400593278542364,6.4641939677369775
5.612597255954967,5.868860554245774
5.8329235942862,5.327492115729687
6.06189899349756,4.835290369759666
6.29986297838068,4.387873428486245
6.547168402004727,3.981239338166144
6.804181968927091,3.611735634644419
7.071284778942991,3.2760302489477886
7.348872892180382,2.9710840845989304
7.637357916378006,2.6941258735471516
7.937167617217536,2.442630003258912
8.248746552614573,2.214296999664587
8.572556731909314,2.0070309609273806
8.909078300934132,1.8189213694671047
9.258810253973934,1.6482271652118705
9.622271173675122,1.4933621234546761
9.999999999999984,1.3528783623559113
