k [1/Mpc],P(k) [Mpc^3]
0.0001,193.2944385227056
0.00010392556829367125,201.46217089518404
0.00010800523745162529,209.97494193944894
0.00011224505680853065,218.8473294091407
0.00011665131316981963,228.09451694150715
0.00012123054013376525,237.73231070773147
0.00012598952777950273,247.77718045920193
0.00013093533273536104,258.2462970604121
0.00013607528864243335,269.1575593459034
0.00014141701702890234,280.5296209208016
0.00014696843861124463,292.38192363580833
0.00015273778503907136,304.7347281214567
0.00015873361110102093,317.6091309357943
0.00016496480740980205,331.02709771344945
0.0001714406135851971,345.01152094275966
0.00017817063195457305,359.58628949929295
0.00018516484179121546,374.7763096883377
0.000192433614111598,390.6075066831075
0.00019998772705352857,407.106843883677
0.0002078383818579757,424.3024099796724
0.00021599721947827182,442.2235010739181
0.0002244763378413224,460.9006595621452
0.0002332883097864157,480.365693239645
0.00024244620170823283,500.6516979237318
0.0002519635929317015,521.7931432453402
0.0002618545958474233,543.8259578735145
0.0002721338768375308,566.7875907428817
0.0002828166780230032,590.7170411937402
0.0002939188398646886,615.6548638903607
0.0003054568246515432,641.6432745000503
0.00031744774091091926,668.7262552807499
0.00032990936877709396,696.949639347707
0.00034286018635565856,726.3611552007441
0.00035631939712285854,757.0104402273118
0.000370306958400514,788.9491430812352
0.00038484361094874304,822.2310397364138
0.0003999509097203664,856.9121257826897
0.00041565125582259895,893.0506947033131
0.00043196792973341727,930.7073644124347
0.0004489251258218605,969.9451713149554
0.0004665479882234472,1010.8297071076271
0.000484862648123908,1053.4291907575948
0.000503896262506515,1097.8145934698232
0.0005236770544204653,1144.0597110939382
0.0005442343548300266,1192.241249773255
0.0005655986461065005,1242.438981867899
0.0005878016072274912,1294.735810112928
0.0006108761607505036,1349.2179127085471
0.0006348565216305217,1405.974823783097
0.0006597782479539537,1465.0994537106576
0.0006856782936641739,1526.6883380214613
0.0007125950633568407,1590.8417847600936
0.0007405684692262436,1657.6640134220281
0.0007696399902471156,1727.2632294700163
0.0007998527336796708,1799.751530419673
0.000831251498989063,1875.2452298423968
0.0008638828442740447,1953.8650127483638
0.000897795155303332,2035.7360595476755
0.0009330387172620361,2120.9882179638466
0.0009696657893145519,2209.7558589844507
0.001007730682094461,2302.1781746021516
0.0010472898382363582,2398.3993965622626
0.0010884019160690055,2498.5688607647535
0.0011311278765939214,2602.84124780165
0.001175531073878369,2711.3762559555553
0.0012216773489967915,2824.338816623795
0.0012696351276599736,2941.899488568518
0.0013194755216767058,3064.234327694855
0.0013712724343984,3191.52525897022
0.0014251026703029975,3323.9597999987054
0.0014810460488806749,3461.7310093693245
0.0015391855229902056,3605.038002838247
0.001599607301861487,3754.085370216986
0.0016624009789266115,3909.08366330923
0.0017276596646690358,4070.249240274024
0.0017954801246878305,4237.803683509068
0.0018659629231817451,4411.974668167658
0.001939212572065829,4592.995414709394
0.0020153376859417325,4781.104857607947
0.002094451143151469,4976.547623977194
0.002176670253153458,5179.572695595663
0.002262116930469025,5390.43447880097
0.002350917875457286,5609.391864116937
0.002443204762186487,5836.707773372092
0.0025391144336803463,6072.649917799731
0.002638789104828933,6317.48915075346
0.002742376573264949,6571.500123868981
0.0028500304385181063,6834.960417414616
0.0029619103297725525,7108.148963401768
0.0030781821425650787,7391.347288928501
0.003199018284775064,7684.837114816324
0.0033245979322709396,7988.900429252254
0.003455107294592217,8303.819325567478
0.0035907398910610534,8629.873057751036
0.0037316968377327513,8967.339463836026
0.0038781871456107214,9316.491875500918
0.0040304280305680515,9677.597704611891
0.00418864523543527,10050.919409621463
0.004353073364731888,10436.709421777141
0.00452395623253805,10835.211638820974
0.004701547224022131,11246.658400972316
0.004886109671160325,11671.266122886163
0.005077917243205399,12109.238115169039
0.005277254352483535,12560.75792155893
0.005484416576121017,13025.989449225433
0.005699711094326071,13505.075388040614
0.005923457145875801,13998.12862548818
0.006155986501483508,14505.23638145134
0.006397643955748424,15026.44574356744
0.0066487878384172625,15561.759665825524
0.0069097905457156435,16111.149651570428
0.007181039092537346,16674.566441544244
0.007462935686310132,17251.92897116465
0.007755898323389004,17843.062745123774
0.00806036140886134,18447.654332262566
0.008376776400682916,19065.32678958864
0.008705612479099857,19695.70412620645
0.009047357242349292,20338.387782243946
0.00940251742967013,20992.877126612457
0.009771619672696168,21658.48169558166
0.010155211276345676,22334.40891895791
0.010553861030365234,23019.82306996203
0.010968160052731372,23713.844998510594
0.011398722666160517,24415.4874856794
0.011846187309026826,25123.543071960106
0.012311217482038896,25836.660483780368
0.012794502732078732,26553.340150363725
0.013296759674662111,27271.908747538848
0.013818733056536317,27990.563385201167
0.014361196859990781,28707.32944720067
0.014924955450518284,29420.08356733109
0.015510844769528393,30126.536757617225
0.016119733573881575,30824.164797344674
0.01675252472408214,31510.29742855167
0.017410156523040152,32182.053054322525
0.018093604107387147,32836.35534848238
0.01880388089340914,33469.992143920186
0.019542040079740527,34079.53741843674
0.02030917620904734,34661.44794363841
0.021106426791015535,35212.04537377166
0.021934973989050584,35727.50760345455
0.02279604637318978,36203.97597965619
0.023690920741826323,36637.52563120898
0.02462092401494623,37024.237714175346
0.02558743520168586,37360.279597587134
0.02659188744512693,37641.95477047882
0.027635770147361564,37865.738323581485
0.028720631177978267,38028.405543003195
0.029848079169243254,38127.056922891315
0.03101978590138095,38159.23289980935
0.03223748878149028,38123.384995819724
0.0335029934197723,38018.476596305234
0.03481817630688963,37843.980791081995
0.03618498759642746,37599.92932963786
0.037605453996581675,37287.216551535756
0.03908168177536263,36910.317304749675
0.04061585988376978,36475.30955472118
0.04221026320156896,35987.29525935427
0.04386725591048496,35449.18199722644
0.0455892949998106,34864.07568098381
0.047378933909631396,34239.56406864072
0.049238826317067365,33586.13020324128
0.05117173007114603,32914.01866787941
0.05318051128214196,32233.689954000216
0.05526814857144601,31555.09014926238
0.057437737488265785,30888.041004086852
0.0596924950997073,30242.0963710447
0.0620357647610427,29624.63409145167
0.06447102107323864,29040.0279813015
0.06700187503509585,28490.525341814642
0.06963207939763882,27974.91580897747
0.0723655342286965,27489.581041672474
0.07520629269592405,27027.43878427475
0.07815856707684081,26578.789739611057
0.08122673500479707,26131.294500610937
0.08441534596012978,25669.56404238706
0.0877291280161335,25176.3449343711
0.09117299484984914,24633.053048577985
0.09475205302806537,24022.37672880642
0.09847160957933764,23331.23941982189
0.1023371798632519,22553.78179266376
0.10635449574860109,21693.95879267246
0.11052951411260206,20767.14665995966
0.1148684256737553,19796.86552736427
0.1193776641714435,18813.872278263523
0.1240639159058831,17855.283033335512
0.12893412965257148,16957.757322868198
0.13399552696593373,16151.408428138055
0.1392556128874462,15455.048851041198
0.14472218707411338,14873.874576877663
0.15040335536380234,14394.343480319274
0.15630754179458153,13984.868513870822
0.16244350109588662,13600.773040680213
0.16882033167003618,13192.33396406445
0.17544748908334581,12715.600558647551
0.1823348000868439,12144.979065621304
0.189492477187382,11483.584823760742
0.19693113379074215,10765.689820548188
0.20466179993919872,10049.540942120468
0.21269593866686892,9400.877626795069
0.22104546299710207,8868.580066216919
0.22972275360711503,8462.13459690821
0.23874067718606454,8147.368260051825
0.2481126055137766,7861.280555956151
0.25785243528842716,7534.909451112195
0.26797460873256895,7126.904264827271
0.27849413500806414,6651.697169410602
0.28942661247167484,6169.164031174456
0.3007882518043098,5747.394579621445
0.31259590004822796,5423.583828572877
0.324867065587837,5178.4968219592765
0.3376199441111335,4949.236660568946
0.35087344559027084,4675.622404546101
0.36464722232127456,4351.938291620988
0.37896169806447155,4029.5197022106663
0.3938380983288488,3764.0636190544874
0.4092984818452433,3561.2155293587766
0.4253657732750382,3374.804503149697
0.44206379720285277,3162.0304427089436
0.45941731346364734,2931.094599408273
0.47745205385661277,2725.183160455059
0.4961947603002895,2561.1192461963237
0.5156732244854959,2409.303010717543
0.5359163290848509,2243.711489426862
0.556954090580013,2080.6406991621725
0.5788177037701272,1942.3616471102232
0.6015395880274836,1818.8458560457188
0.6251534353689703,1691.5837754622762
0.6496942604146115,1569.414741745588
0.6751984523072497,1463.0093098908283
0.7017038286703824,1362.3684469367658
0.7292496916841444,1263.4246741289207
0.7578768863625915,1173.8739440761435
0.7876278611187046,1091.0224947410018
0.8185467307069019,1011.3425105528734
0.850679341636415,938.1755967798772
0.8840733401525058,869.7921458341116
0.9187782428863317,805.7573275293664
0.9548455102782278,746.1542171819216
0.9923286228832539,690.7252954717487
1.0312831606721837,639.1773390799877
1.0717668854455022,591.2394992946345
1.1138398264826193,546.6613771557065
1.1575643695533022,505.21184809546133
1.2030053494233226,466.68824344986433
1.2502301459914542,430.91024545022776
1.299308784200415,397.7061116009666
1.3503140378698726,366.9121167427138
1.4033215376054824,338.37248931083224
1.4584098829439835,311.938589413754
1.5156607589006013,287.46638710817587
1.575159057091621,264.81965565942113
1.6369930016117014,243.87080411329063
1.7012542798525885,224.5004010223862
1.7680381784572046,206.5967231470961
1.8374437246107238,190.05558585757043
1.9095738328780953,174.77995114307467
1.9845354578058014,160.67906658300095
2.0624397525140905,147.66808519351736
2.143402233514853,135.6677395170778
2.227542951999554,124.60401264717386
2.314986671851158,114.40773450001528
2.405863054644063,105.0143976355735
2.5003068519063225,96.36394911161204
2.598458104929248,88.40051595867476
2.7004623524206774,81.07214396134937
2.806470846309834,74.33054327207815
2.916640776023701,68.1308475398872
3.031135501567576,62.43140978631015
3.150124795755327,57.1935940711028
3.2737850959485697,52.38157611343874
3.4022997656780634,47.962154531878745
3.5358593665351745,43.904562279067676
3.6746619407366854,40.18030766248358
3.8189133047818515,36.76302948828906
3.968827354637162,33.62834900351861
4.1246263829013445,30.753730771778663
4.286541408420921,28.118350094680086
4.4548125188449825,25.70296555148311
4.629689226627261,23.48981423830434
4.811430839003257,21.462507101995744
5.000306842491082,19.605928584416283
5.196597302486189,17.906142975639188
5.400593278542364,16.35030527686824
5.612597255954967,14.926580292269042
5.8329235942862,13.624069854414753
6.06189899349756,12.432742346206778
6.29986297838068,11.343367009600499
6.547168402004727,10.34745203426732
6.804181968927091,9.437183421309268
7.071284778942991,8.605377812577176
7.348872892180382,7.8454362311162456
7.637357916378006,7.151298311534511
7.937167617217536,6.517399968770872
8.248746552614573,5.938638393539127
8.572556731909314,5.410337996043056
8.909078300934132,4.928207427957916
9.258810253973934,4.488308339175151
9.622271173675122,4.087027613794419
9.999999999999984,3.721049875199265
