k [1/Mpc],P(k) [Mpc^3]
0.0001,2898.3764135047045
0.00010392556829367125,3020.493037120729
0.00010800523745162529,3147.7240857398388
0.00011224505680853065,3280.279905618292
0.00011665131316981963,3418.3791511679774
0.00012123054013376525,3562.2490765574967
0.00012598952777950273,3712.125818016672
0.00013093533273536104,3868.254131728569
0.00013607528864243335,4030.888042528875
0.00014141701702890234,4200.291187649129
0.00014696843861124463,4376.736926607054
0.00015273778503907136,4560.508948593363
0.00015873361110102093,4751.901001619314
0.00016496480740980205,4951.217409763234
0.0001714406135851971,5158.773549775286
0.00017817063195457305,5374.895634026274
0.00018516484179121546,5599.921560892753
0.000192433614111598,5834.200381605626
0.00019998772705352857,6078.092506409628
0.0002078383818579757,6331.970609865562
0.00021599721947827182,6596.218756033933
0.0002244763378413224,6871.233510258508
0.0002332883097864157,7157.42371356873
0.00024244620170823283,7455.210113509727
0.0002519635929317015,7765.0265272236975
0.0002618545958474233,8087.318193420615
0.0002721338768375308,8422.542749526492
0.0002828166780230032,8771.170392832786
0.0002939188398646886,9133.682411600312
0.0003054568246515432,9510.572914441578
0.00031744774091091926,9902.346785493532
0.00032990936877709396,10309.519819022991
0.00034286018635565856,10732.619737137404
0.00035631939712285854,11172.183871633793
0.000370306958400514,11628.760710050221
0.00038484361094874304,12102.907585731551
0.0003999509097203664,12595.18922926999
0.00041565125582259895,13106.179786964443
0.00043196792973341727,13636.459699437053
0.0004489251258218605,14186.616618543838
0.0004665479882234472,14757.243557064345
0.000484862648123908,15348.935360883424
0.000503896262506515,15962.291075979017
0.0005236770544204653,16597.908270291686
0.0005442343548300266,17256.383029851782
0.0005655986461065005,17938.30973637125
0.0005878016072274912,18644.27445549624
0.0006108761607505036,19374.857829166147
0.0006348565216305217,20130.626037026424
0.0006597782479539537,20912.12724476341
0.0006856782936641739,21719.894960273738
0.0007125950633568407,22554.435827249974
0.0007405684692262436,23416.23344587452
0.0007696399902471156,24305.739907885392
0.0007998527336796708,25223.36548196294
0.000831251498989063,26169.485975695516
0.0008638828442740447,27144.427616656234
0.000897795155303332,28148.467980976868
0.0009330387172620361,29181.834621853308
0.0009696657893145519,30244.693570858504
0.001007730682094461,31337.15199506522
0.0010472898382363582,32459.235513234245
0.0010884019160690055,33610.8837604043
0.0011311278765939214,34791.96753236826
0.001175531073878369,36002.3077402307
0.0012216773489967915,37241.65238021115
0.0012696351276599736,38509.620150257004
0.0013194755216767058,39805.67390388605
0.0013712724343984,41129.16690691986
0.0014251026703029975,42479.3510991419
0.0014810460488806749,43855.367579473444
0.0015391855229902056,45256.23229298671
0.001599607301861487,46680.824726801846
0.0016624009789266115,48127.892428752144
0.0017276596646690358,49596.04566433762
0.0017954801246878305,51083.75452528307
0.0018659629231817451,52589.34642332964
0.001939212572065829,54111.00006567118
0.0020153376859417325,55646.745942761845
0.002094451143151469,57194.44559905623
0.002176670253153458,58751.78650236378
0.002262116930469025,60316.30155787848
0.002350917875457286,61885.37085261132
0.002443204762186487,63456.2230415632
0.0025391144336803463,65025.911640060425
0.002638789104828933,66591.29668247154
0.002742376573264949,68149.09090954164
0.0028500304385181063,69695.90959986117
0.0029619103297725525,71228.26246570295
0.0030781821425650787,72742.34669339098
0.003199018284775064,74233.70013783919
0.0033245979322709396,75697.67271263608
0.003455107294592217,77130.6327230985
0.0035907398910610534,78529.95439301542
0.0037316968377327513,79892.22318209102
0.0038781871456107214,81210.05495322442
0.0040304280305680515,82474.7439032723
0.00418864523543527,83679.64815870773
0.004353073364731888,84821.31159225553
0.00452395623253805,85896.2320100741
0.004701547224022131,86897.86759472205
0.004886109671160325,87818.21779464261
0.005077917243205399,88650.26009861223
0.005277254352483535,89389.25464087105
0.005484416576121017,90030.81636765777
0.005699711094326071,90568.62131763864
0.005923457145875801,90994.98283502841
0.006155986501483508,91302.20651501333
0.006397643955748424,91482.02831357464
0.0066487878384172625,91526.4215041375
0.0069097905457156435,91427.64738703433
0.007181039092537346,91178.33153532154
0.007462935686310132,90771.50303828336
0.007755898323389004,90198.82643698975
0.00806036140886134,89452.23981333946
0.008376776400682916,88524.09999145857
0.008705612479099857,87406.69747501696
0.009047357242349292,86093.705050276
0.00940251742967013,84577.83953528423
0.009771619672696168,82852.55558555805
0.010155211276345676,80912.79495496454
0.010553861030365234,78752.81210938304
0.010968160052731372,76370.07195803386
0.011398722666160517,73763.35591872246
0.011846187309026826,70933.76384190643
0.012311217482038896,67885.48473655152
0.012794502732078732,64616.938831246836
0.013296759674662111,61132.32731389342
0.013818733056536317,57449.83436443169
0.014361196859990781,53601.92608354292
0.014924955450518284,49620.27726933427
0.015510844769528393,45483.997071397716
0.016119733573881575,41174.60016273118
0.01675252472408214,36766.64145654922
0.017410156523040152,32456.706166028467
0.018093604107387147,28377.56163767951
0.01880388089340914,24283.41082764415
0.019542040079740527,19884.989263275973
0.02030917620904734,15447.410028535693
0.021106426791015535,11920.588619812404
0.021934973989050584,9652.517141031838
0.02279604637318978,7446.0290762255645
0.023690920741826323,4133.641344876704
0.02462092401494623,1358.311708758226
0.02558743520168586,406.17002340057155
0.02659188744512693,217.52060592570706
0.027635770147361564,284.8931990805252
0.028720631177978267,617.9033806752518
0.029848079169243254,1419.3928619983337
0.03101978590138095,2850.6621903236028
0.03223748878149028,4865.156711275958
0.0335029934197723,7002.961276049755
0.03481817630688963,8930.37738552845
0.03618498759642746,10687.925530017259
0.037605453996581675,12254.438769665938
0.03908168177536263,13364.698937527213
0.04061585988376978,13826.599717651414
0.04221026320156896,13635.39862074964
0.04386725591048496,12797.861725167311
0.0455892949998106,11270.473100745847
0.047378933909631396,9288.2231799737
0.049238826317067365,7248.766854220065
0.05117173007114603,4967.846414570926
0.05318051128214196,2739.1623673664417
0.05526814857144601,1595.7687530704864
0.057437737488265785,518.9581652117987
0.0596924950997073,22.646228073922114
0.0620357647610427,18.35385293014732
0.06447102107323864,431.5270416925328
0.06700187503509585,814.8696873807189
0.06963207939763882,854.1490246056998
0.0723655342286965,912.5715864587137
0.07520629269592405,594.3491641921032
0.07815856707684081,199.72132170420213
0.08122673500479707,44.33581125902055
0.08441534596012978,54.019008780349
0.0877291280161335,522.98367029788
0.09117299484984914,1099.165799828331
0.09475205302806537,1546.0377263536452
0.09847160957933764,1708.6705369573558
0.1023371798632519,1440.778487408804
0.10635449574860109,816.0362112899128
0.11052951411260206,372.9372471297315
0.1148684256737553,15.6514898715237
0.1193776641714435,33.309489632111465
0.1240639159058831,159.6710162837567
0.12893412965257148,158.93118672814398
0.13399552696593373,160.92697262177904
0.1392556128874462,0.0966340131602864
0.14472218707411338,179.24750283161163
0.15040335536380234,287.4238027255422
0.15630754179458153,421.6937729988643
0.16244350109588662,315.05778154231837
0.16882033167003618,118.67450853962004
0.17544748908334581,0.9136179428592367
0.1823348000868439,26.403146981511078
0.189492477187382,31.978108441910596
0.19693113379074215,2.2260790500323084
0.20466179993919872,42.11908591159477
0.21269593866686892,116.05081678378649
0.22104546299710207,103.38604609510101
0.22972275360711503,27.695364867607847
0.23874067718606454,0.3240119196827129
0.2481126055137766,4.281750161421781
0.25785243528842716,0.17171988783006922
0.26797460873256895,24.771041431091323
0.27849413500806414,40.071627235047785
0.28942661247167484,15.006064771519219
0.3007882518043098,0.12846441665251054
0.31259590004822796,0.00012414017179699553
0.324867065587837,6.131196752048659
0.3376199441111335,15.2126979098678
0.35087344559027084,6.960809554001175
0.36464722232127456,0.666594440701513
0.37896169806447155,1.2123023941578144
0.3938380983288488,5.798733028056568
0.4092984818452433,4.821400755397285
0.4253657732750382,1.1991614320603088
0.44206379720285277,1.3688321778235428
0.45941731346364734,3.2572717533077595
0.47745205385661277,2.0310763218696795
0.4961947603002895,0.8624802051921057
0.5156732244854959,0.5757170741992752
0.5359163290848509,0.5475203542072001
0.556954090580013,0.6505469677244706
0.5788177037701272,0.8468379592990861
0.6015395880274836,1.059061771720733
0.6251534353689703,1.1464464822109026
0.6496942604146115,1.085494142207801
0.6751984523072497,0.9364090954388011
0.7017038286703824,0.766640095952702
0.7292496916841444,0.6204810584176341
0.7578768863625915,0.5168061173703866
0.7876278611187046,0.4508633232569769
0.8185467307069019,0.4076164308024224
0.850679341636415,0.37717342350436783
0.8840733401525058,0.35278184688227837
0.9187782428863317,0.32941262140002764
0.9548455102782278,0.30376817825645325
0.9923286228832539,0.2765178389432598
1.0312831606721837,0.24938423676583268
1.0717668854455022,0.22365067035390854
1.1138398264826193,0.2001783769002845
1.1575643695533022,0.17947045744386347
1.2030053494233226,0.16151172451557147
1.2502301459914542,0.14579456468745775
1.299308784200415,0.131876957689929
1.3503140378698726,0.11941281189146907
1.4033215376054824,0.10813130934336877
1.4584098829439835,0.09782909243991139
1.5156607589006013,0.08841574507902566
1.575159057091621,0.0798463328152769
1.6369930016117014,0.07207175625463401
1.7012542798525885,0.0650400688622968
1.7680381784572046,0.058698033008746306
1.8374437246107238,0.05298764793288439
1.9095738328780953,0.047842510791792296
1.9845354578058014,0.04320208340170254
2.0624397525140905,0.03901305886262727
2.143402233514853,0.035228412910035416
2.227542951999554,0.03180670766281727
2.314986671851158,0.028712990597151662
2.405863054644063,0.025917051769363764
2.5003068519063225,0.02339129402280341
2.598458104929248,0.021110494770209348
2.7004623524206774,0.019051629043795724
2.806470846309834,0.01719355936422819
2.916640776023701,0.015516574850162152
3.031135501567576,0.014002814438309074
3.150124795755327,0.01263622130735729
3.2737850959485697,0.011402354576467343
3.4022997656780634,0.0102882255381063
3.5358593665351745,0.009282257027439981
3.6746619407366854,0.00837411094732308
3.8189133047818515,0.007554418123219655
3.968827354637162,0.0068146835697581575
4.1246263829013445,0.006147208161829918
4.286541408420921,0.0055450031255964375
4.4548125188449825,0.005001670818870575
4.629689226627261,0.004511420854921178
4.811430839003257,0.004069040345070058
5.000306842491082,0.003669835131867228
5.196597302486189,0.003309577414497766
5.400593278542364,0.0029844775632463273
5.612597255954967,0.002691143949659212
5.8329235942862,0.0024265088131326324
6.06189899349756,0.002187795113419079
6.29986297838068,0.0019724897309803435
6.547168402004727,0.0017783174144019006
6.804181968927091,0.00160320756257939
7.071284778942991,0.0014452859385124899
7.348872892180382,0.0013028635969682034
7.637357916378006,0.0011744184481298197
7.937167617217536,0.0010585786245784754
8.248746552614573,0.0009541097912846531
8.572556731909314,0.0008599034779093188
8.909078300934132,0.0007749589402449388
9.258810253973934,0.000698372016554779
9.622271173675122,0.0006293259331720385
9.999999999999984,0.0005670827261522734
