k [1/Mpc],P(k) [Mpc^3]
0.0001,143.94435489891447
0.00010392556829367125,150.02294535929613
0.00010800523745162529,156.35784425170257
0.00011224505680853065,162.9598119669649
0.00011665131316981963,169.84004793708448
0.00012123054013376525,177.01021702725285
0.00012598952777950273,184.4824706758227
0.00013093533273536104,192.26946546630927
0.00013607528864243335,200.38437573529862
0.00014141701702890234,208.84091000870774
0.00014696843861124463,217.65334112947937
0.00015273778503907136,226.83652448188198
0.00015873361110102093,236.40592379959645
0.00016496480740980205,246.37763231058594
0.0001714406135851971,256.76838880882275
0.00017817063195457305,267.59561327395977
0.00018516484179121546,278.8774244622111
0.000192433614111598,290.632668482157
0.00019998772705352857,302.880951815627
0.0002078383818579757,315.6426594457509
0.00021599721947827182,328.9389939048335
0.0002244763378413224,342.79198102268
0.0002332883097864157,357.22448995075496
0.00024244620170823283,372.2602931692727
0.0002519635929317015,387.9240852864919
0.0002618545958474233,404.24152639581786
0.0002721338768375308,421.2392652701949
0.0002828166780230032,438.9449529857939
0.0002939188398646886,457.3873045179219
0.0003054568246515432,476.59608142554157
0.00031744774091091926,496.60214161969236
0.00032990936877709396,517.4374972184042
0.00034286018635565856,539.1353121817426
0.00035631939712285854,561.7299773603551
0.000370306958400514,585.2571073324467
0.00038484361094874304,609.7535691487133
0.0003999509097203664,635.2575520079857
0.00041565125582259895,661.8085182925979
0.00043196792973341727,689.4472985807197
0.0004489251258218605,718.2161022562666
0.0004665479882234472,748.158504547924
0.000484862648123908,779.3195531240816
0.000503896262506515,811.7456910985055
0.0005236770544204653,845.4848332072355
0.0005442343548300266,880.5864196027348
0.0005655986461065005,917.1013603841151
0.0005878016072274912,955.0821498320505
0.0006108761607505036,994.582735739671
0.0006348565216305217,1035.6585383309805
0.0006597782479539537,1078.3665657270576
0.0006856782936641739,1122.7652488879264
0.0007125950633568407,1168.9145901558215
0.0007405684692262436,1216.8760361021375
0.0007696399902471156,1266.7123701730054
0.0007998527336796708,1318.4878913773755
0.000831251498989063,1372.2680579594435
0.0008638828442740447,1428.1196350849439
0.000897795155303332,1486.1105583762048
0.0009330387172620361,1546.309490761528
0.0009696657893145519,1608.786237958127
0.001007730682094461,1673.6114510010955
0.0010472898382363582,1740.856601093936
0.0010884019160690055,1810.5938530641333
0.0011311278765939214,1882.8951602103277
0.001175531073878369,1957.8328138151167
0.0012216773489967915,2035.4791376944088
0.0012696351276599736,2115.906212522814
0.0013194755216767058,2199.185978579809
0.0013712724343984,2285.389216873491
0.0014251026703029975,2374.5858317576285
0.0014810460488806749,2466.8444085245533
0.0015391855229902056,2562.231364213059
0.001599607301861487,2660.8114839710524
0.0016624009789266115,2762.6470144990076
0.0017276596646690358,2867.797555443472
0.0017954801246878305,2976.319804595768
0.0018659629231817451,3088.266343999878
0.001939212572065829,3203.6860621634733
0.0020153376859417325,3322.62285971888
0.002094451143151469,3445.1150719214766
0.002176670253153458,3571.195740547442
0.002262116930469025,3700.8909342727034
0.002350917875457286,3834.220094326892
0.002443204762186487,3971.194939005521
0.0025391144336803463,4111.818171976256
0.002638789104828933,4256.084058084788
0.002742376573264949,4403.976015129425
0.0028500304385181063,4555.466792940188
0.0029619103297725525,4710.518013939868
0.0030781821425650787,4869.078006922331
0.003199018284775064,5031.082762523483
0.0033245979322709396,5196.452535122949
0.003455107294592217,5365.091320302485
0.0035907398910610534,5536.88789915948
0.0037316968377327513,5711.712617923234
0.0038781871456107214,5889.418711556112
0.0040304280305680515,6069.833710322828
0.00418864523543527,6252.7546764382
0.004353073364731888,6437.961131841827
0.00452395623253805,6625.2375480683595
0.004701547224022131,6814.36177737633
0.004886109671160325,7005.053731309174
0.005077917243205399,7196.922861882064
0.005277254352483535,7389.539508191124
0.005484416576121017,7582.486925719733
0.005699711094326071,7775.353567841635
0.005923457145875801,7967.703029744696
0.006155986501483508,8159.068280551772
0.006397643955748424,8348.956298371528
0.0066487878384172625,8536.809466187078
0.0069097905457156435,8721.99744932151
0.007181039092537346,8903.855752235
0.007462935686310132,9081.665977899484
0.007755898323389004,9254.674039036112
0.00806036140886134,9422.08218084601
0.008376776400682916,9583.034411310618
0.008705612479099857,9736.647824525895
0.009047357242349292,9881.976481730917
0.00940251742967013,10018.03416825136
0.009771619672696168,10143.80493654484
0.010155211276345676,10258.204163215933
0.010553861030365234,10360.138403146195
0.010968160052731372,10448.45761653574
0.011398722666160517,10521.968194727353
0.011846187309026826,10579.491974821478
0.012311217482038896,10619.808732194393
0.012794502732078732,10641.735033924731
0.013296759674662111,10644.102429619072
0.013818733056536317,10625.74311245359
0.014361196859990781,10585.592511976527
0.014924955450518284,10522.624390335635
0.015510844769528393,10435.931158511114
0.016119733573881575,10324.761815911794
0.01675252472408214,10188.4915914903
0.017410156523040152,10026.730344348369
0.018093604107387147,9839.317037620369
0.01880388089340914,9626.352031459097
0.019542040079740527,9388.26137856665
0.02030917620904734,9125.840397803935
0.021106426791015535,8840.221785363525
0.021934973989050584,8532.983341807689
0.02279604637318978,8206.143577259309
0.023690920741826323,7862.040598018126
0.02462092401494623,7503.668527952818
0.02558743520168586,7134.272883490611
0.02659188744512693,6757.406685159519
0.027635770147361564,6377.1002600592
0.028720631177978267,5997.228755704473
0.029848079169243254,5622.488642741896
0.03101978590138095,5257.599108398392
0.03223748878149028,4906.484109793096
0.0335029934197723,4572.555282400404
0.03481817630688963,4258.450204666379
0.03618498759642746,3968.0290028036907
0.037605453996581675,3705.934286068061
0.03908168177536263,3474.9905317502757
0.04061585988376978,3275.5782711473585
0.04221026320156896,3107.3324302109386
0.04386725591048496,2969.170073278952
0.0455892949998106,2859.851108640723
0.047378933909631396,2777.5612995223387
0.049238826317067365,2720.143995761532
0.05117173007114603,2683.347137005804
0.05318051128214196,2661.751603095864
0.05526814857144601,2648.5845433559116
0.057437737488265785,2636.0294356981226
0.0596924950997073,2615.0193946927425
0.0620357647610427,2576.697239811655
0.06447102107323864,2513.2601561508845
0.06700187503509585,2419.0786034440807
0.06963207939763882,2292.0462372904926
0.0723655342286965,2133.8546025906235
0.07520629269592405,1950.407347638051
0.07815856707684081,1751.6044820749712
0.08122673500479707,1550.8507559784678
0.08441534596012978,1362.5056574252364
0.0877291280161335,1199.426519032858
0.09117299484984914,1070.4474178559317
0.09475205302806537,979.3521697114288
0.09847160957933764,925.5639429201345
0.1023371798632519,904.77984890464
0.10635449574860109,908.750406918316
0.11052951411260206,924.7959609812459
0.1148684256737553,936.7823808634996
0.1193776641714435,928.3353790238713
0.1240639159058831,887.6009779666573
0.12893412965257148,812.5309264799597
0.13399552696593373,713.8612397510113
0.1392556128874462,611.2640506536844
0.14472218707411338,524.0840736834859
0.15040335536380234,464.7384783483733
0.15630754179458153,436.91987109300607
0.16244350109588662,434.89562003781515
0.16882033167003618,444.21245309374774
0.17544748908334581,446.17807921303876
0.1823348000868439,425.68217499710255
0.189492477187382,381.0585929197118
0.19693113379074215,326.24473414448744
0.20466179993919872,280.42227300565173
0.21269593866686892,255.4908787167447
0.22104546299710207,249.8395374472158
0.22972275360711503,251.2555780744611
0.23874067718606454,243.79480188910375
0.2481126055137766,220.68893446367977
0.25785243528842716,190.98232262311524
0.26797460873256895,168.91650867505433
0.27849413500806414,159.9823653941018
0.28942661247167484,157.15058041559797
0.3007882518043098,149.1547134049354
0.31259590004822796,133.31778372113058
0.324867065587837,117.97034070231592
0.3376199441111335,109.77007887559755
0.35087344559027084,105.47365284141867
0.36464722232127456,98.1108516419634
0.37896169806447155,87.86579906696784
0.3938380983288488,80.21852814717626
0.4092984818452433,75.69265830401896
0.4253657732750382,70.24387363550443
0.44206379720285277,63.57750389775903
0.45941731346364734,58.55257506706452
0.47745205385661277,54.61058626818478
0.4961947603002895,49.98806515225262
0.5156732244854959,45.760193043820514
0.5359163290848509,42.360267758067764
0.556954090580013,39.0136624425682
0.5788177037701272,35.87196722850365
0.6015395880274836,32.949813067158836
0.6251534353689703,30.245000707098495
0.6496942604146115,27.752411102252868
0.6751984523072497,25.464295867719272
0.7017038286703824,23.36618689831536
0.7292496916841444,21.440525559362897
0.7578768863625915,19.671550092351698
0.7876278611187046,18.045191063076846
0.8185467307069019,16.548868386115085
0.850679341636415,15.171614387020982
0.8840733401525058,13.904476372884588
0.9187782428863317,12.739313001132308
0.9548455102782278,11.668501420835204
0.9923286228832539,10.684914279434926
1.0312831606721837,9.781892171890476
1.0717668854455022,8.953134883362257
1.1138398264826193,8.192716641605616
1.1575643695533022,7.495165417191452
1.2030053494233226,6.855433474902759
1.2502301459914542,6.268865622658674
1.299308784200415,5.731173738099495
1.3503140378698726,5.23842089212412
1.4033215376054824,4.786978069787199
1.4584098829439835,4.373496150716467
1.5156607589006013,3.994885647758958
1.575159057091621,3.6482976916422194
1.6369930016117014,3.3311033827710634
1.7012542798525885,3.040877870317519
1.7680381784572046,2.775389436128575
1.8374437246107238,2.5325850140742117
1.9095738328780953,2.3105764693116684
1.9845354578058014,2.1076280287858333
2.0624397525140905,1.9221451367629372
2.143402233514853,1.7526626858708965
2.227542951999554,1.5978345792662116
2.314986671851158,1.4564244521224634
2.405863054644063,1.327297074312394
2.5003068519063225,1.2094100999273143
2.598458104929248,1.1018066648704734
2.7004623524206774,1.003609130630876
2.806470846309834,0.9140127877486867
2.916640776023701,0.8322799917261636
3.031135501567576,0.7577347247610693
3.150124795755327,0.6897574393460025
3.2737850959485697,0.6277806345693567
3.4022997656780634,0.5712847161305937
3.5358593665351745,0.5197940643769497
3.6746619407366854,0.47287341372910446
3.8189133047818515,0.4301245503349401
3.968827354637162,0.3911832630569912
4.1246263829013445,0.3557164526364247
4.286541408420921,0.32341953583554
4.4548125188449825,0.2940140675479879
4.629689226627261,0.2672455479397577
4.811430839003257,0.24288135094749383
5.000306842491082,0.22070893504808567
5.196597302486189,0.2005341983341483
5.400593278542364,0.1821799144156362
5.612597255954967,0.16548429678349139
5.8329235942862,0.1502996718505781
6.06189899349756,0.13649125994703304
6.29986297838068,0.12393609946788484
6.547168402004727,0.11252203547329705
6.804181968927091,0.10214678791518458
7.071284778942991,0.09271710258527584
7.348872892180382,0.08414802594735726
7.637357916378006,0.07636215173828748
7.937167617217536,0.06928891099134919
8.248746552614573,0.06286398023600104
8.572556731909314,0.057028740970934515
8.909078300934132,0.05172971359892205
9.258810253973934,0.04691796701970443
9.622271173675122,0.04254897129229838
9.999999999999984,0.03858225940065152
