k [1/Mpc],P(k) [Mpc^3]
0.0001,2746.055786992019
0.00010392556829367125,2837.3298928682248
0.00010800523745162529,2931.630619484275
0.00011224505680853065,3029.0575712938544
0.00011665131316981963,3129.713457471751
0.00012123054013376525,3233.704251329079
0.00012598952777950273,3341.139157287618
0.00013093533273536104,3452.1308418752255
0.00013607528864243335,3566.7956191778285
0.00014141701702890234,3685.2535721361337
0.00014696843861124463,3807.628578297237
0.00015273778503907136,3934.0481830851645
0.00015873361110102093,4064.643868251359
0.00016496480740980205,4199.551171308298
0.0001714406135851971,4338.909733739909
0.00017817063195457305,4482.863521884128
0.00018516484179121546,4631.560730332531
0.000192433614111598,4785.153993141876
0.00019998772705352857,4943.80051262044
0.0002078383818579757,5107.66195624494
0.00021599721947827182,5276.9048223333275
0.0002244763378413224,5451.700317103691
0.0002332883097864157,5632.224489650001
0.00024244620170823283,5818.658516550178
0.0002519635929317015,6011.188523917609
0.0002618545958474233,6210.005950513775
0.0002721338768375308,6415.307146858513
0.0002828166780230032,6627.293198445026
0.0002939188398646886,6846.170695156737
0.0003054568246515432,7072.151482625325
0.00031744774091091926,7305.452991339591
0.00032990936877709396,7546.297978101612
0.00034286018635565856,7794.913933135737
0.00035631939712285854,8051.534048354487
0.000370306958400514,8316.396885110307
0.00038484361094874304,8589.746576714371
0.0003999509097203664,8871.832733814977
0.00041565125582259895,9162.909139134683
0.00043196792973341727,9463.235021260027
0.0004489251258218605,9773.074506249468
0.0004665479882234472,10092.696454351653
0.000484862648123908,10422.375037684711
0.000503896262506515,10762.388227643321
0.0005236770544204653,11113.018756522242
0.0005442343548300266,11474.553591911721
0.0005655986461065005,11847.283025224162
0.0005878016072274912,12231.501739451225
0.0006108761607505036,12627.50636687732
0.0006348565216305217,13035.59625163452
0.0006597782479539537,13456.07371105474
0.0006856782936641739,13889.24222613655
0.0007125950633568407,14335.407786802678
0.0007405684692262436,14794.875619972048
0.0007696399902471156,15267.949947109162
0.0007998527336796708,15754.934909586547
0.000831251498989063,16256.129583829901
0.0008638828442740447,16771.831049044038
0.000897795155303332,17302.332118570997
0.0009330387172620361,17847.919307231485
0.0009696657893145519,18408.874516353782
0.001007730682094461,18985.466765077475
0.0010472898382363582,19577.955381652526
0.0010884019160690055,20186.58954144017
0.0011311278765939214,20811.603626290587
0.001175531073878369,21453.220509005616
0.0012216773489967915,22111.643196970526
0.0012696351276599736,22787.055365428532
0.0013194755216767058,23479.622611594776
0.0013712724343984,24189.484575297847
0.0014251026703029975,24916.759364058835
0.0014810460488806749,25661.534994748716
0.0015391855229902056,26423.8662097835
0.001599607301861487,27203.77928349725
0.0016624009789266115,28001.26253050253
0.0017276596646690358,28816.26979626989
0.0017954801246878305,29648.713719036525
0.0018659629231817451,30498.457738557587
0.001939212572065829,31365.32368272796
0.0020153376859417325,32249.08147880295
0.002094451143151469,33149.450746620736
0.002176670253153458,34066.09622237708
0.002262116930469025,34998.612635268284
0.002350917875457286,35946.53678468772
0.002443204762186487,36909.338295011825
0.0025391144336803463,37886.41813950548
0.002638789104828933,38877.10927372488
0.002742376573264949,39880.6569733126
0.0028500304385181063,40896.23128161287
0.0029619103297725525,41922.914858251024
0.0030781821425650787,42959.694771917
0.003199018284775064,44005.47401400538
0.0033245979322709396,45059.03888992712
0.003455107294592217,46119.07606394057
0.0035907398910610534,47184.174082674
0.0037316968377327513,48252.80871555169
0.0038781871456107214,49323.35504650342
0.0040304280305680515,50393.9906340224
0.00418864523543527,51462.72232767721
0.004353073364731888,52527.518355473796
0.00452395623253805,53586.464051311355
0.004701547224022131,54637.59143957351
0.004886109671160325,55678.32127593966
0.005077917243205399,56705.402031034035
0.005277254352483535,57715.49180671717
0.005484416576121017,58705.531745745524
0.005699711094326071,59672.5095043292
0.005923457145875801,60613.302838006464
0.006155986501483508,61524.66463529425
0.006397643955748424,62403.22732063138
0.0066487878384172625,63245.03323808549
0.0069097905457156435,64045.77588149877
0.007181039092537346,64801.117085837315
0.007462935686310132,65506.74881193451
0.007755898323389004,66158.33778069887
0.00806036140886134,66750.97329544996
0.008376776400682916,67279.28150748141
0.008705612479099857,67737.89952261656
0.009047357242349292,68121.41878144513
0.00940251742967013,68424.53181319537
0.009771619672696168,68641.67970588275
0.010155211276345676,68766.98036173823
0.010553861030365234,68794.72400464695
0.010968160052731372,68718.8529050479
0.011398722666160517,68533.47544508125
0.011846187309026826,68232.8668821969
0.012311217482038896,67811.18431089468
0.012794502732078732,67263.21496476562
0.013296759674662111,66583.74044140657
0.013818733056536317,65768.01838258842
0.014361196859990781,64812.15037022111
0.014924955450518284,63712.43596990833
0.015510844769528393,62466.5052237139
0.016119733573881575,61072.82636094296
0.01675252472408214,59530.92102092489
0.017410156523040152,57842.197888652605
0.018093604107387147,56009.12596897287
0.01880388089340914,54036.30464880762
0.019542040079740527,51930.390583745844
0.02030917620904734,49699.89120137304
0.021106426791015535,47355.98872727135
0.021934973989050584,44912.16159600141
0.02279604637318978,42384.258130535796
0.023690920741826323,39790.647210231204
0.02462092401494623,37152.06459561396
0.02558743520168586,34490.74827505512
0.02659188744512693,31831.57262692356
0.027635770147361564,29200.384615188366
0.028720631177978267,26622.641315583038
0.029848079169243254,24125.31048458114
0.03101978590138095,21732.1249906217
0.03223748878149028,19467.63487087259
0.0335029934197723,17355.53838811391
0.03481817630688963,15411.414170758051
0.03618498759642746,13647.374894558225
0.037605453996581675,12068.48763072264
0.03908168177536263,10681.553118400147
0.04061585988376978,9495.960311192322
0.04221026320156896,8508.713401375126
0.04386725591048496,7705.992483809037
0.0455892949998106,7073.237820314267
0.047378933909631396,6599.152421280885
0.049238826317067365,6272.464135966394
0.05117173007114603,6076.241789949131
0.05318051128214196,5993.670188706518
0.05526814857144601,6004.962390211491
0.057437737488265785,6085.7193030254775
0.0596924950997073,6205.624196147042
0.0620357647610427,6328.114885023826
0.06447102107323864,6412.290772306234
0.06700187503509585,6416.269334887473
0.06963207939763882,6303.4629820075115
0.0723655342286965,6047.899540466329
0.07520629269592405,5640.8376514988095
0.07815856707684081,5095.194268063994
0.08122673500479707,4448.007178652459
0.08441534596012978,3755.9588434200896
0.0877291280161335,3083.277208905738
0.09117299484984914,2487.432839496464
0.09475205302806537,2008.0729401564104
0.09847160957933764,1663.3668074185407
0.1023371798632519,1453.6786341830982
0.10635449574860109,1368.0941600388185
0.11052951411260206,1388.5423837627975
0.1148684256737553,1488.4374440241575
0.1193776641714435,1627.6521931912366
0.1240639159058831,1749.5461004799608
0.12893412965257148,1789.5684615162031
0.13399552696593373,1701.9028309278792
0.1392556128874462,1489.5016459693495
0.14472218707411338,1205.7848401292854
0.15040335536380234,925.4611280244555
0.15630754179458153,710.9819448251837
0.16244350109588662,592.1326115921207
0.16882033167003618,566.4588858599951
0.17544748908334581,611.5506815370289
0.1823348000868439,685.8385877279607
0.189492477187382,728.1045069139188
0.19693113379074215,688.2499684020964
0.20466179993919872,570.8914129819599
0.21269593866686892,434.3078862045011
0.22104546299710207,338.36177621576076
0.22972275360711503,305.83071177311183
0.23874067718606454,324.8032385490333
0.2481126055137766,355.94330659353375
0.25785243528842716,350.32855741482933
0.26797460873256895,294.94614952068997
0.27849413500806414,228.39337676326835
0.28942661247167484,192.12422433088904
0.3007882518043098,192.38545898676864
0.31259590004822796,203.3262655469407
0.324867065587837,191.23973858239276
0.3376199441111335,156.71122606762992
0.35087344559027084,130.0830655914313
0.36464722232127456,125.31813290693728
0.37896169806447155,126.63592053731416
0.3938380983288488,114.10724558166878
0.4092984818452433,95.2003103336308
0.4253657732750382,86.78363000764804
0.44206379720285277,85.04208482238047
0.45941731346364734,77.0001690937445
0.47745205385661277,66.36683679448593
0.4961947603002895,61.74645029498973
0.5156732244854959,58.04791119422302
0.5359163290848509,51.35889731595319
0.556954090580013,45.78722440587643
0.5788177037701272,41.498099014006044
0.6015395880274836,38.02601339193478
0.6251534353689703,35.02091875431707
0.6496942604146115,32.22506880177917
0.6751984523072497,29.480765108188823
0.7017038286703824,26.816591873163716
0.7292496916841444,24.294884439337977
0.7578768863625915,21.958327066074897
0.7876278611187046,19.832778044652727
0.8185467307069019,17.930295738337026
0.850679341636415,16.239168089706197
0.8840733401525058,14.72739781969763
0.9187782428863317,13.367326104291912
0.9548455102782278,12.13639544318069
0.9923286228832539,11.016202545212979
1.0312831606721837,9.992293838886445
1.0717668854455022,9.05667658908443
1.1138398264826193,8.203690921790777
1.1575643695533022,7.427683378254148
1.2030053494233226,6.723076200631277
1.2502301459914542,6.084431482672539
1.299308784200415,5.506197873493802
1.3503140378698726,4.982573647514509
1.4033215376054824,4.508262676748652
1.4584098829439835,4.078511980841098
1.5156607589006013,3.689052084248098
1.575159057091621,3.3360521638098026
1.6369930016117014,3.0161525739152193
1.7012542798525885,2.7263559230148027
1.7680381784572046,2.463922750002793
1.8374437246107238,2.2263499645690374
1.9095738328780953,2.01135211885892
1.9845354578058014,1.816837434526953
2.0624397525140905,1.640881576522961
2.143402233514853,1.481734927202227
2.227542951999554,1.3378111470750464
2.314986671851158,1.2076720589030405
2.405863054644063,1.0900140836124008
2.5003068519063225,0.9836588663712139
2.598458104929248,0.8875403535555665
2.7004623524206774,0.8006908194198022
2.806470846309834,0.7222319245433659
2.916640776023701,0.6513667019441752
3.031135501567576,0.5873719048854705
3.150124795755327,0.5295903139335248
3.2737850959485697,0.47742623443477794
3.4022997656780634,0.43034032456190274
3.5358593665351745,0.38784434014740415
3.6746619407366854,0.3494963692636941
3.8189133047818515,0.3148968144753016
3.968827354637162,0.2836844277216697
4.1246263829013445,0.2555322090347768
4.286541408420921,0.23014419118573057
4.4548125188449825,0.20725255569406476
4.629689226627261,0.18661497347183004
4.811430839003257,0.16801201997902376
5.000306842491082,0.15124525197563965
5.196597302486189,0.13613535640759275
5.400593278542364,0.12252032998742925
5.612597255954967,0.11025382921393799
5.8329235942862,0.09920370538924976
6.06189899349756,0.0892506656072737
6.29986297838068,0.0802869751833942
6.547168402004727,0.07221534603631184
6.804181968927091,0.06494793841161468
7.071284778942991,0.058405458081785586
7.348872892180382,0.05251635339738826
7.637357916378006,0.04721605852129664
7.937167617217536,0.042446307762614516
8.248746552614573,0.03815452982119994
8.572556731909314,0.034293299458026845
8.909078300934132,0.03081979808620655
9.258810253973934,0.02769530254100312
9.622271173675122,0.02488492423637174
9.999999999999984,0.022357255700305737
