k [1/Mpc],P(k) [Mpc^3]
0.0001,69.46592918987997
0.00010392556829367125,71.9843630773309
0.00010800523745162529,74.59407341156916
0.00011224505680853065,77.29836516014558
0.00011665131316981963,80.10066266676807
0.00012123054013376525,83.00451398726511
0.00012598952777950273,86.01359573861677
0.00013093533273536104,89.13171835321812
0.00013607528864243335,92.36283006277446
0.00014141701702890234,95.71101880680538
0.00014696843861124463,99.18051734337689
0.00015273778503907136,102.77571120959166
0.00015873361110102093,106.50114579076163
0.00016496480740980205,110.3615307829202
0.0001714406135851971,114.36174343578314
0.00017817063195457305,118.50683364489434
0.00018516484179121546,122.8020334647273
0.000192433614111598,127.25276923228537
0.00019998772705352857,131.86466547592826
0.0002078383818579757,136.64354191358046
0.00021599721947827182,141.59541205004243
0.0002244763378413224,146.7265031805694
0.0002332883097864157,152.0432774504889
0.00024244620170823283,157.55243687775834
0.0002519635929317015,163.26092014467457
0.0002618545958474233,169.17590141861353
0.0002721338768375308,175.30480807059317
0.0002828166780230032,181.6553292258112
0.0002939188398646886,188.23542474418758
0.0003054568246515432,195.05333799927766
0.00031744774091091926,202.11760999277897
0.00032990936877709396,209.43708645646396
0.00034286018635565856,217.02091344813186
0.00035631939712285854,224.87854011079193
0.000370306958400514,233.01974708444857
0.00038484361094874304,241.45466951590237
0.0003999509097203664,250.19380417498033
0.00041565125582259895,259.24800588502814
0.00043196792973341727,268.6284852303705
0.0004489251258218605,278.34683891328626
0.0004665479882234472,288.4150614153843
0.000484862648123908,298.84555906087
0.000503896262506515,309.65116179495294
0.0005236770544204653,320.84512544246707
0.0005442343548300266,332.44115599296464
0.0005655986461065005,344.45341371319705
0.0005878016072274912,356.89652533113735
0.0006108761607505036,369.7856081193687
0.0006348565216305217,383.13626986738524
0.0006597782479539537,396.9646348237383
0.0006856782936641739,411.28734953684443
0.0007125950633568407,426.1215873059538
0.0007405684692262436,441.4850813442006
0.0007696399902471156,457.39611255090233
0.0007998527336796708,473.8735383784995
0.000831251498989063,490.9368103522756
0.0008638828442740447,508.605967313834
0.000897795155303332,526.9016771764051
0.0009330387172620361,545.8452213484063
0.0009696657893145519,565.4585152668166
0.001007730682094461,585.7641368714226
0.0010472898382363582,606.7852974817883
0.0010884019160690055,628.5458953981828
0.0011311278765939214,651.0704868512239
0.001175531073878369,674.3842833281032
0.0012216773489967915,698.5132084163155
0.0012696351276599736,723.4838248911052
0.0013194755216767058,749.3234011011356
0.0013712724343984,776.0598965728186
0.0014251026703029975,803.721916154662
0.0014810460488806749,832.3387934779719
0.0015391855229902056,861.9404607398419
0.001599607301861487,892.5575046568596
0.0016624009789266115,924.2211848574395
0.0017276596646690358,956.9633057496835
0.0017954801246878305,990.8163473231536
0.0018659629231817451,1025.8133205807273
0.001939212572065829,1061.9877640804448
0.0020153376859417325,1099.3738137190453
0.002094451143151469,1138.0059898450786
0.002176670253153458,1177.919338258859
0.002262116930469025,1219.1492485128526
0.002350917875457286,1261.731331063517
0.002443204762186487,1305.701584620135
0.0025391144336803463,1351.0960348746896
0.002638789104828933,1397.9508800083079
0.002742376573264949,1446.302454689149
0.0028500304385181063,1496.1870230873378
0.0029619103297725525,1547.6408965382702
0.0030781821425650787,1600.6998184922802
0.003199018284775064,1655.3990446074072
0.0033245979322709396,1711.7734716872503
0.003455107294592217,1769.8572225864807
0.0035907398910610534,1829.683860377505
0.0037316968377327513,1891.2858033917187
0.0038781871456107214,1954.6941639741208
0.0040304280305680515,2019.938905482171
0.00418864523543527,2087.0478763795536
0.004353073364731888,2156.0472694580876
0.00452395623253805,2226.96119107958
0.004701547224022131,2299.811171575074
0.004886109671160325,2374.6164735580633
0.005077917243205399,2451.392559876172
0.005277254352483535,2530.151547086647
0.005484416576121017,2610.9021011566438
0.005699711094326071,2693.6484758834727
0.005923457145875801,2778.391004236294
0.006155986501483508,2865.123229876438
0.006397643955748424,2953.8321416685476
0.0066487878384172625,3044.5002640039525
0.0069097905457156435,3137.106731396293
0.007181039092537346,3231.6254491255554
0.007462935686310132,3328.0143620521244
0.007755898323389004,3426.2131620291066
0.00806036140886134,3526.1540617283426
0.008376776400682916,3627.7694246851074
0.008705612479099857,3730.9864066968876
0.009047357242349292,3835.7145028232876
0.00940251742967013,3941.8383502967863
0.009771619672696168,4049.2305102262035
0.010155211276345676,4157.757286362106
0.010553861030365234,4267.276491179756
0.010968160052731372,4377.627513018955
0.011398722666160517,4488.619843880167
0.011846187309026826,4600.045896784503
0.012311217482038896,4711.675714662566
0.012794502732078732,4823.257962030214
0.013296759674662111,4934.522486070346
0.013818733056536317,5045.170972814113
0.014361196859990781,5154.88569686349
0.014924955450518284,5263.323206401666
0.015510844769528393,5370.1124513578825
0.016119733573881575,5474.862655640312
0.01675252472408214,5577.14752556734
0.017410156523040152,5676.518098149309
0.018093604107387147,5772.5021068995575
0.01880388089340914,5864.5978620686865
0.019542040079740527,5952.289584852332
0.02030917620904734,6035.034375053449
0.021106426791015535,6112.272777933234
0.021934973989050584,6183.4377077742465
0.02279604637318978,6247.949083762632
0.023690920741826323,6305.229914607029
0.02462092401494623,6354.702470001269
0.02558743520168586,6395.795138364142
0.02659188744512693,6427.965556593275
0.027635770147361564,6450.730842565295
0.028720631177978267,6463.650930154906
0.029848079169243254,6466.299309872658
0.03101978590138095,6458.260966806784
0.03223748878149028,6439.226356318266
0.0335029934197723,6409.3113082232285
0.03481817630688963,6368.83615655371
0.03618498759642746,6317.958058027772
0.037605453996581675,6256.477656530749
0.03908168177536263,6184.272980819802
0.04061585988376978,6101.90720918623
0.04221026320156896,6010.367052753109
0.04386725591048496,5910.716085020973
0.0455892949998106,5804.194000868765
0.047378933909631396,5692.041849817246
0.049238826317067365,5575.463739292615
0.05117173007114603,5455.616051713463
0.05318051128214196,5333.733523931295
0.05526814857144601,5211.45935688537
0.057437737488265785,5090.39182242118
0.0596924950997073,4971.852126450949
0.0620357647610427,4856.948695116801
0.06447102107323864,4746.4058977192
0.06700187503509585,4640.663240616494
0.06963207939763882,4539.690434210918
0.0723655342286965,4443.125858861918
0.07520629269592405,4350.093772710813
0.07815856707684081,4259.369751141113
0.08122673500479707,4169.322081862849
0.08441534596012978,4077.9376761092926
0.0877291280161335,3982.9545120702414
0.09117299484984914,3881.985019856138
0.09475205302806537,3772.838799118301
0.09847160957933764,3653.8693882792772
0.1023371798632519,3524.402304322844
0.10635449574860109,3384.9711366228194
0.11052951411260206,3237.4794713112647
0.1148684256737553,3084.9974039977706
0.1193776641714435,2931.5367621143146
0.1240639159058831,2781.676109911937
0.12893412965257148,2640.060668910648
0.13399552696593373,2510.777758857974
0.1392556128874462,2396.6459182311823
0.14472218707411338,2298.714191838291
0.15040335536380234,2215.4859497413822
0.15630754179458153,2142.2086097542583
0.16244350109588662,2072.880622860119
0.16882033167003618,2000.8901033116585
0.17544748908334581,1920.5880959836238
0.1823348000868439,1828.8976449363086
0.189492477187382,1726.5120384497811
0.19693113379074215,1618.0339873408122
0.20466179993919872,1510.92426750194
0.21269593866686892,1413.3212229327348
0.22104546299710207,1331.078892468377
0.22972275360711503,1265.2455073279993
0.23874067718606454,1211.6554935019738
0.2481126055137766,1162.4559966616562
0.25785243528842716,1108.9200799663315
0.26797460873256895,1045.7341210824945
0.27849413500806414,974.5191863817377
0.28942661247167484,902.889707690704
0.3007882518043098,839.8949621987772
0.31259590004822796,790.4149760868895
0.324867065587837,751.6377595386941
0.3376199441111335,714.9747351078784
0.35087344559027084,672.5979383324863
0.36464722232127456,624.1478493652834
0.37896169806447155,576.6164731950472
0.3938380983288488,537.31245579657
0.4092984818452433,506.652343648794
0.4253657732750382,478.2196235730344
0.44206379720285277,446.26285054244414
0.45941731346364734,412.2348689705305
0.47745205385661277,382.11895841080053
0.4961947603002895,357.9795442553485
0.5156732244854959,335.5251294362787
0.5359163290848509,311.1614675389549
0.556954090580013,287.43226920082617
0.5788177037701272,267.53962418486356
0.6015395880274836,249.61321742956642
0.6251534353689703,231.13389856519743
0.6496942604146115,213.61233311420023
0.6751984523072497,198.48709872653365
0.7017038286703824,184.10572575143317
0.7292496916841444,169.97166181783362
0.7578768863625915,157.37663646227662
0.7876278611187046,145.69944254897786
0.8185467307069019,134.47076241555501
0.850679341636415,124.26927543250501
0.8840733401525058,114.80304389212745
0.9187782428863317,105.96615111057777
0.9548455102782278,97.73465546401015
0.9923286228832539,90.0821978539711
1.0312831606721837,82.98118160763097
1.0717668854455022,76.40324450801555
1.1138398264826193,70.31960396988552
1.1575643695533022,64.69856416864172
1.2030053494233226,59.50585137815296
1.2502301459914542,54.70947744013709
1.299308784200415,50.27989724355259
1.3503140378698726,46.189810063685506
1.4033215376054824,42.41401142616298
1.4584098829439835,38.92985421328376
1.5156607589006013,35.71680877090153
1.575159057091621,32.75559212707767
1.6369930016117014,30.028088525473567
1.7012542798525885,27.51730130387529
1.7680381784572046,25.20729227879914
1.8374437246107238,23.083015152069137
1.9095738328780953,21.13036248448073
1.9845354578058014,19.33621592406792
2.0624397525140905,17.688386296061328
2.143402233514853,16.175554851796043
2.227542951999554,14.787218797761843
2.314986671851158,13.513645360137103
2.405863054644063,12.345814095537479
2.5003068519063225,11.275365705153751
2.598458104929248,10.294558352317285
2.7004623524206774,9.396226414325564
2.806470846309834,8.573740646857003
2.916640776023701,7.820968713373683
3.031135501567576,7.132244903334521
3.150124795755327,6.502338782783551
3.2737850959485697,5.926424294680351
3.4022997656780634,5.400050801058405
3.5358593665351745,4.919115416395575
3.6746619407366854,4.479836808157472
3.8189133047818515,4.078733322330246
3.968827354637162,3.7126010718154707
4.1246263829013445,3.3784931250137307
4.286541408420921,3.073700116109232
4.4548125188449825,2.7957317653351788
4.629689226627261,2.5422998564663164
4.811430839003257,2.311303637037737
5.000306842491082,2.100815357205689
5.196597302486189,1.9090667278883813
5.400593278542364,1.7344363533078422
5.612597255954967,1.575437484729216
5.8329235942862,1.4307073018151686
6.06189899349756,1.2989979640870393
6.29986297838068,1.1791673628087884
6.547168402004727,1.0701705080447814
6.804181968927091,0.971051635126593
7.071284778942991,0.8809378525677768
7.348872892180382,0.7990318844351008
7.637357916378006,0.7246047032558913
7.937167617217536,0.6569899073664998
8.248746552614573,0.5955785768377275
8.572556731909314,0.5398142403202094
8.909078300934132,0.4891857083816381
9.258810253973934,0.4432254570301113
9.622271173675122,0.4015082451487754
9.999999999999984,0.3636473262672535
