k [1/Mpc],P(k) [Mpc^3]
0.0001,247.6344723773043
0.00010392556829367125,255.87184906349768
0.00010800523745162529,264.3831067952946
0.00011224505680853065,273.1773204336957
0.00011665131316981963,282.2638683070306
0.00012123054013376525,291.65246958117547
0.00012598952777950273,301.3531784533016
0.00013093533273536104,311.37636053024863
0.00013607528864243335,321.7326811481675
0.00014141701702890234,332.4331531448233
0.00014696843861124463,343.4891792057578
0.00015273778503907136,354.9125557953443
0.00015873361110102093,366.71546358842056
0.00016496480740980205,378.91046651446493
0.0001714406135851971,391.51053810742974
0.00017817063195457305,404.52907506504016
0.00018516484179121546,417.9799108236105
0.000192433614111598,431.87733155819876
0.00019998772705352857,446.2360879841953
0.0002078383818579757,461.0714124552671
0.00021599721947827182,476.39903069528
0.0002244763378413224,492.235174707334
0.0002332883097864157,508.5966038828375
0.00024244620170823283,525.5006129273733
0.0002519635929317015,542.9650531869926
0.0002618545958474233,561.0083514298425
0.0002721338768375308,579.6495223784135
0.0002828166780230032,598.9081925549128
0.0002939188398646886,618.8045954850106
0.0003054568246515432,639.3595933176795
0.00031744774091091926,660.5947099741613
0.00032990936877709396,682.5321354419322
0.00034286018635565856,705.1947606968348
0.00035631939712285854,728.6062209141544
0.000370306958400514,752.7909245781323
0.00038484361094874304,777.774038513741
0.0003999509097203664,803.5813896775784
0.00041565125582259895,830.2395516756302
0.00043196792973341727,857.7759378543681
0.0004489251258218605,886.218847346393
0.0004665479882234472,915.5974549112567
0.000484862648123908,945.9417734225236
0.000503896262506515,977.2826920699716
0.0005236770544204653,1009.6520121157528
0.0005442343548300266,1043.0824088240686
0.0005655986461065005,1077.6075138956626
0.0005878016072274912,1113.2618998984715
0.0006108761607505036,1150.0810950549258
0.0006348565216305217,1188.1016513398135
0.0006597782479539537,1227.361124444109
0.0006856782936641739,1267.8981295750523
0.0007125950633568407,1309.7523074629755
0.0007405684692262436,1352.9642868940057
0.0007696399902471156,1397.5758013141663
0.0007998527336796708,1443.6296175662305
0.000831251498989063,1491.1695968470005
0.0008638828442740447,1540.240718793543
0.000897795155303332,1590.8889995879026
0.0009330387172620361,1643.1616137232152
0.0009696657893145519,1697.1067512727454
0.001007730682094461,1752.773633791
0.0010472898382363582,1810.2126316676636
0.0010884019160690055,1869.4751099742277
0.0011311278765939214,1930.613565553251
0.001175531073878369,1993.681433705744
0.0012216773489967915,2058.7329569310255
0.0012696351276599736,2125.82344538807
0.0013194755216767058,2195.008999604503
0.0013712724343984,2266.3466475917076
0.0014251026703029975,2339.8942288980265
0.0014810460488806749,2415.7100398499306
0.0015391855229902056,2493.853201704788
0.001599607301861487,2574.3832090391406
0.0016624009789266115,2657.3599709702844
0.0017276596646690358,2742.843923338298
0.0017954801246878305,2830.8954419473553
0.0018659629231817451,2921.5752487432956
0.001939212572065829,3014.94401891447
0.0020153376859417325,3111.062167116714
0.002094451143151469,3209.9900662498744
0.002176670253153458,3311.786938163948
0.002262116930469025,3416.511361321569
0.002350917875457286,3524.221080132317
0.002443204762186487,3634.97238554376
0.0025391144336803463,3748.820639804373
0.002638789104828933,3865.8193608050174
0.002742376573264949,3986.02031163941
0.0028500304385181063,4109.47320019757
0.0029619103297725525,4236.224098011734
0.0030781821425650787,4366.316585638084
0.003199018284775064,4499.791023387885
0.0033245979322709396,4636.684234439763
0.003455107294592217,4777.02953738677
0.0035907398910610534,4920.854525104617
0.0037316968377327513,5068.182147464343
0.0038781871456107214,5219.029757398888
0.0040304280305680515,5373.407884794156
0.00418864523543527,5531.321294210231
0.004353073364731888,5692.766078474064
0.00452395623253805,5857.73042200236
0.004701547224022131,6026.19424768381
0.004886109671160325,6198.1265926478645
0.005077917243205399,6373.487591898111
0.005277254352483535,6552.225321710795
0.005484416576121017,6734.27560339714
0.005699711094326071,6919.561964062884
0.005923457145875801,7107.988490943715
0.006155986501483508,7299.444972164772
0.006397643955748424,7493.811694935461
0.0066487878384172625,7690.960372704883
0.0069097905457156435,7890.7445062639745
0.007181039092537346,8092.963653622408
0.007462935686310132,8297.381966708257
0.007755898323389004,8503.756275575473
0.00806036140886134,8711.850956259677
0.008376776400682916,8921.41339980346
0.008705612479099857,9132.131841212282
0.009047357242349292,9343.644282089599
0.00940251742967013,9555.570965026707
0.009771619672696168,9767.531393392881
0.010155211276345676,9979.12755085371
0.010553861030365234,10189.907215799974
0.010968160052731372,10399.358656873086
0.011398722666160517,10606.938698034293
0.011846187309026826,10812.05267824927
0.012311217482038896,11014.071003952935
0.012794502732078732,11212.330257451536
0.013296759674662111,11406.127661598675
0.013818733056536317,11594.733062124036
0.014361196859990781,11777.358297447325
0.014924955450518284,11953.174259748743
0.015510844769528393,12121.321682741009
0.016119733573881575,12280.891047347302
0.01675252472408214,12430.954922203518
0.017410156523040152,12570.551827654559
0.018093604107387147,12698.693869718116
0.01880388089340914,12814.390843607114
0.019542040079740527,12916.63216392773
0.02030917620904734,13004.417765155607
0.021106426791015535,13076.76522749887
0.021934973989050584,13132.714212312272
0.02279604637318978,13171.353037140629
0.023690920741826323,13191.842528032601
0.02462092401494623,13193.419136420182
0.02558743520168586,13175.41979475351
0.02659188744512693,13137.318386939056
0.027635770147361564,13078.702971782519
0.028720631177978267,12999.416295313169
0.029848079169243254,12899.520263890501
0.03101978590138095,12779.207582968045
0.03223748878149028,12638.85688115464
0.0335029934197723,12478.987572713286
0.03481817630688963,12300.844721551615
0.03618498759642746,12106.459357226067
0.037605453996581675,11897.788903970913
0.03908168177536263,11676.10849680615
0.04061585988376978,11442.457120827667
0.04221026320156896,11198.573513700943
0.04386725591048496,10947.398397686191
0.0455892949998106,10691.841269649567
0.047378933909631396,10434.741993477852
0.049238826317067365,10178.79684307946
0.05117173007114603,9926.50350997276
0.05318051128214196,9680.205861142394
0.05526814857144601,9441.854399908418
0.057437737488265785,9212.40080814814
0.0596924950997073,8992.290660835532
0.0620357647610427,8780.924006009092
0.06447102107323864,8577.177545767257
0.06700187503509585,8379.071896959053
0.06963207939763882,8184.165087343748
0.0723655342286965,7989.314460202379
0.07520629269592405,7790.981622988961
0.07815856707684081,7585.314019447921
0.08122673500479707,7368.348591382773
0.08441534596012978,7136.607256362352
0.0877291280161335,6887.656049135383
0.09117299484984914,6620.932807690646
0.09475205302806537,6338.16848803813
0.09847160957933764,6043.63983135519
0.1023371798632519,5743.534598010955
0.10635449574860109,5445.504037537862
0.11052951411260206,5157.496725970591
0.1148684256737553,4887.181222694674
0.1193776641714435,4641.408254262325
0.1240639159058831,4424.575081051343
0.12893412965257148,4236.242007447411
0.13399552696593373,4071.631959623045
0.1392556128874462,3922.555518110285
0.14472218707411338,3778.387818481633
0.15040335536380234,3628.534689168614
0.15630754179458153,3464.8622476904666
0.16244350109588662,3283.969559761056
0.16882033167003618,3088.6010262541417
0.17544748908334581,2887.302915071479
0.1823348000868439,2692.2262034121013
0.189492477187382,2515.7631270409775
0.19693113379074215,2366.2702187214013
0.20466179993919872,2244.0501624580984
0.21269593866686892,2140.6371036404075
0.22104546299710207,2042.5941870639463
0.22972275360711503,1937.004894692354
0.23874067718606454,1817.3655187481652
0.2481126055137766,1688.3279203328934
0.25785243528842716,1562.961630864098
0.26797460873256895,1453.8558678002103
0.27849413500806414,1365.6894193083235
0.28942661247167484,1292.1777094224024
0.3007882518043098,1220.6545404164056
0.31259590004822796,1141.8752115646566
0.324867065587837,1057.3027787260767
0.3376199441111335,976.9518490967007
0.35087344559027084,909.2513440655512
0.36464722232127456,853.3268681072133
0.37896169806447155,800.151267633008
0.3938380983288488,743.2438609617735
0.4092984818452433,685.8581586358202
0.4253657732750382,635.3725341613159
0.44206379720285277,592.6126898826201
0.45941731346364734,551.9787278162943
0.47745205385661277,510.38864248895084
0.4961947603002895,471.07949490001727
0.5156732244854959,436.9283029324264
0.5359163290848509,405.48828039159065
0.556954090580013,374.3665196043356
0.5788177037701272,345.4288474405241
0.6015395880274836,319.5841545197947
0.6251534353689703,295.1834406072675
0.6496942604146115,271.9840402697303
0.6751984523072497,250.94832643542702
0.7017038286703824,231.38381950928917
0.7292496916841444,213.0118315283475
0.7578768863625915,196.17654256375212
0.7876278611187046,180.53843330418115
0.8185467307069019,166.03858168993787
0.850679341636415,152.63449200361626
0.8840733401525058,140.24874770346466
0.9187782428863317,128.80959275200146
0.9548455102782278,118.2498661501708
0.9923286228832539,108.5067288651321
1.0312831606721837,99.52142233397709
1.0717668854455022,91.23922339107736
1.1138398264826193,83.60951859444609
1.1575643695533022,76.58497908648123
1.2030053494233226,70.12127448257783
1.2502301459914542,64.17692832128488
1.299308784200415,58.71316766120319
1.3503140378698726,53.69366815812474
1.4033215376054824,49.0844888600697
1.4584098829439835,44.85405780857783
1.5156607589006013,40.97303196750458
1.575159057091621,37.414159769246126
1.6369930016117014,34.15215393879159
1.7012542798525885,31.163573598089823
1.7680381784572046,28.426692756158296
1.8374437246107238,25.921386209728766
1.9095738328780953,23.62902447015189
1.9845354578058014,21.532373629611303
2.0624397525140905,19.61549080754517
2.143402233514853,17.86364146618575
2.227542951999554,16.263227119609066
2.314986671851158,14.801705415822003
2.405863054644063,13.467514729919223
2.5003068519063225,12.250001846557746
2.598458104929248,11.13935256577061
2.7004623524206774,10.126535889903076
2.806470846309834,9.203247122358153
2.916640776023701,8.361853266869842
3.031135501567576,7.595342123798223
3.150124795755327,6.897274513208293
3.2737850959485697,6.261740411399239
3.4022997656780634,5.683318432604498
3.5358593665351745,5.1570377187433385
3.6746619407366854,4.678342551325197
3.8189133047818515,4.243058852432679
3.968827354637162,3.8473622879896547
4.1246263829013445,3.48775281991915
4.286541408420921,3.1610291175093392
4.4548125188449825,2.8642641900399792
4.629689226627261,2.5947828961252655
4.811430839003257,2.3501412753073114
5.000306842491082,2.1281073669343242
5.196597302486189,1.9266434660833036
5.400593278542364,1.743889885039872
5.612597255954967,1.578150006227477
5.8329235942862,1.427876198637284
6.06189899349756,1.2916563725815007
6.29986297838068,1.1682037456507064
6.547168402004727,1.056346427810787
6.804181968927091,0.9550174677402452
7.071284778942991,0.8632457741170028
7.348872892180382,0.780148737566629
7.637357916378006,0.7049241496175724
7.937167617217536,0.6368419384705205
8.248746552614573,0.5752378669492888
8.572556731909314,0.519507810549973
8.909078300934132,0.46910169983172345
9.258810253973934,0.42351654509482833
9.622271173675122,0.3822956841044375
9.999999999999984,0.34502553567101446
