k [1/Mpc],P(k) [Mpc^3]
0.0001,1045.5079829681777
0.00010392556829367125,1086.5161653952737
0.00010800523745162529,1129.1300584139526
0.00011224505680853065,1173.4122256512442
0.00011665131316981963,1219.4275974566851
0.00012123054013376525,1267.2435838254441
0.00012598952777950273,1316.9301144208162
0.00013093533273536104,1368.559783633835
0.00013607528864243335,1422.2079814909357
0.00014141701702890234,1477.9530022841373
0.00014696843861124463,1535.87611728219
0.00015273778503907136,1596.061586906939
0.00015873361110102093,1658.596833361842
0.00016496480740980205,1723.5725568790156
0.0001714406135851971,1791.0828253073662
0.00017817063195457305,1861.225237159532
0.00018516484179121546,1934.1009563675416
0.000192433614111598,2009.8148760805097
0.00019998772705352857,2088.475751879705
0.0002078383818579757,2170.1962395788632
0.00021599721947827182,2255.0931330820986
0.0002244763378413224,2343.28739890374
0.0002332883097864157,2434.904321698007
0.00024244620170823283,2530.0737182150665
0.0002519635929317015,2628.9299546452235
0.0002618545958474233,2731.6122007175395
0.0002721338768375308,2838.2643527796276
0.0002828166780230032,2949.0350519752265
0.0002939188398646886,3064.0781246399656
0.0003054568246515432,3183.5525778308183
0.00031744774091091926,3307.6228541881483
0.00032990936877709396,3436.4588259731663
0.00034286018635565856,3570.2356335745662
0.00035631939712285854,3709.134235423406
0.000370306958400514,3853.341372372247
0.00038484361094874304,4003.04977772883
0.0003999509097203664,4158.458253026644
0.00041565125582259895,4319.771173311481
0.00043196792973341727,4487.199195759239
0.0004489251258218605,4660.959121769666
0.0004665479882234472,4841.2739365394955
0.000484862648123908,5028.373205127313
0.000503896262506515,5222.492465603828
0.0005236770544204653,5423.873806144096
0.0005442343548300266,5632.7657298901895
0.0005655986461065005,5849.422822111455
0.0005878016072274912,6074.106386274685
0.0006108761607505036,6307.083346842468
0.0006348565216305217,6548.626721428095
0.0006597782479539537,6799.015854178381
0.0006856782936641739,7058.535602684005
0.0007125950633568407,7327.477106933535
0.0007405684692262436,7606.136209444023
0.0007696399902471156,7894.813384783575
0.0007998527336796708,8193.81427262014
0.000831251498989063,8503.447136379818
0.0008638828442740447,8824.024468634128
0.000897795155303332,9155.861828149125
0.0009330387172620361,9499.276761021538
0.0009696657893145519,9854.58967396538
0.001007730682094461,10222.119378736588
0.0010472898382363582,10602.184687332807
0.0010884019160690055,10995.104074643516
0.0011311278765939214,11401.193041257422
0.001175531073878369,11820.765752568575
0.0012216773489967915,12254.13028611252
0.0012696351276599736,12701.588670541063
0.0013194755216767058,13163.437334155216
0.0013712724343984,13639.962422875436
0.0014251026703029975,14131.441937678817
0.0014810460488806749,14638.140546278737
0.0015391855229902056,15160.307303034728
0.001599607301861487,15698.177907981339
0.0016624009789266115,16251.968754435993
0.0017276596646690358,16821.878355726847
0.0017954801246878305,17408.08282618782
0.0018659629231817451,18010.730474645585
0.001939212572065829,18629.94547453203
0.0020153376859417325,19265.820997090912
0.002094451143151469,19918.419257907844
0.002176670253153458,20587.767852395802
0.002262116930469025,21273.84956854999
0.002350917875457286,21976.608492640305
0.002443204762186487,22695.943238128097
0.0025391144336803463,23431.704763395996
0.002638789104828933,24183.695448268318
0.002742376573264949,24951.6554636596
0.0028500304385181063,25735.2688972596
0.0029619103297725525,26534.154553004653
0.0030781821425650787,27347.858968612534
0.003199018284775064,28175.861848718738
0.0033245979322709396,29017.55330717092
0.003455107294592217,29872.242511606233
0.0035907398910610534,30739.156559620245
0.0037316968377327513,31617.42875013659
0.0038781871456107214,32506.104115760125
0.0040304280305680515,33404.07298517504
0.00418864523543527,34310.0847189014
0.004353073364731888,35222.83258680181
0.00452395623253805,36141.05760587387
0.004701547224022131,37063.43477096533
0.004886109671160325,37988.190889004574
0.005077917243205399,38913.05017746117
0.005277254352483535,39835.62194891064
0.005484416576121017,40753.65726913467
0.005699711094326071,41664.888710387066
0.005923457145875801,42566.9207159545
0.006155986501483508,43457.216064981294
0.006397643955748424,44333.095683185864
0.0066487878384172625,45191.39980122681
0.0069097905457156435,46028.64827216893
0.007181039092537346,46841.261600747675
0.007462935686310132,47625.604114472524
0.007755898323389004,48377.943006201036
0.00806036140886134,49094.04057254877
0.008376776400682916,49769.225311130096
0.008705612479099857,50398.73345977785
0.009047357242349292,50977.66544696667
0.00940251742967013,51501.09393084295
0.009771619672696168,51963.79767099315
0.010155211276345676,52360.19994085139
0.010553861030365234,52684.739345229915
0.010968160052731372,52931.471267069726
0.011398722666160517,53094.45676143489
0.011846187309026826,53167.76516779428
0.012311217482038896,53145.25279857365
0.012794502732078732,53021.14845481111
0.013296759674662111,52789.562039382836
0.013818733056536317,52444.86696590998
0.014361196859990781,51982.00463754342
0.014924955450518284,51395.98149260965
0.015510844769528393,50682.79122600587
0.016119733573881575,49839.04309317825
0.01675252472408214,48862.157497745226
0.017410156523040152,47751.07857824456
0.018093604107387147,46505.63250590362
0.01880388089340914,45127.44677397669
0.019542040079740527,43619.94075819024
0.02030917620904734,41988.2023572614
0.021106426791015535,40239.73511736074
0.021934973989050584,38384.2026827379
0.02279604637318978,36433.551941417834
0.023690920741826323,34402.2059576006
0.02462092401494623,32306.99784644081
0.02558743520168586,30166.479313224503
0.02659188744512693,28001.9623466757
0.027635770147361564,25836.120713201533
0.028720631177978267,23691.809688290694
0.029848079169243254,21593.764807692114
0.03101978590138095,19564.376460075146
0.03223748878149028,17627.28272135492
0.0335029934197723,15805.878155359216
0.03481817630688963,14116.641716519582
0.03618498759642746,12573.216199962377
0.037605453996581675,11183.003799879594
0.03908168177536263,9955.163303812398
0.04061585988376978,8901.459823833276
0.04221026320156896,8022.220631410023
0.04386725591048496,7307.480223970526
0.0455892949998106,6746.300612161335
0.047378933909631396,6330.586531701763
0.049238826317067365,6052.047640943646
0.05117173007114603,5896.679993544806
0.05318051128214196,5850.240434356679
0.05526814857144601,5895.213344154721
0.057437737488265785,6009.10113245433
0.0596924950997073,6162.98951748011
0.0620357647610427,6321.0419639014835
0.06447102107323864,6442.2249780058455
0.06700187503509585,6483.561382724686
0.06963207939763882,6406.467226926519
0.0723655342286965,6182.332118741976
0.07520629269592405,5799.622485796437
0.07815856707684081,5268.964020875246
0.08122673500479707,4626.348303739258
0.08441534596012978,3929.180977952211
0.0877291280161335,3244.1590796431833
0.09117299484984914,2632.3843135668826
0.09475205302806537,2137.3998547943593
0.09847160957933764,1780.7488960375501
0.1023371798632519,1565.277784394167
0.10635449574860109,1481.655932837192
0.11052951411260206,1512.5121679921892
0.1148684256737553,1630.717322571347
0.1193776641714435,1793.5689078470293
0.1240639159058831,1939.0553707111142
0.12893412965257148,1994.9016921093016
0.13399552696593373,1908.1666589693564
0.1392556128874462,1679.6967860050233
0.14472218707411338,1367.6283167996842
0.15040335536380234,1055.759038189858
0.15630754179458153,815.7809498850003
0.16244350109588662,683.3486314607044
0.16882033167003618,657.5065803186656
0.17544748908334581,713.957771803534
0.1823348000868439,805.3234559770151
0.189492477187382,859.9050762162924
0.19693113379074215,817.5444125256964
0.20466179993919872,682.0669820775406
0.21269593866686892,521.8907414807449
0.22104546299710207,408.9512446439998
0.22972275360711503,371.7745827523188
0.23874067718606454,397.125076471764
0.2481126055137766,437.71975995771686
0.25785243528842716,433.3105107364788
0.26797460873256895,366.9228643351926
0.27849413500806414,285.7747878172788
0.28942661247167484,241.78585703575382
0.3007882518043098,243.5170486579333
0.31259590004822796,258.85643943163507
0.324867065587837,244.87925289715034
0.3376199441111335,201.82841976831574
0.35087344559027084,168.50443495719227
0.36464722232127456,163.2724274383999
0.37896169806447155,165.94501348144567
0.3938380983288488,150.39343486599464
0.4092984818452433,126.20087950751459
0.4253657732750382,115.70981270803053
0.44206379720285277,114.04457689866618
0.45941731346364734,103.85819726012515
0.47745205385661277,90.03442200731062
0.4961947603002895,84.2515344375645
0.5156732244854959,79.66375647237683
0.5359163290848509,70.89216451973786
0.556954090580013,63.56751361782681
0.5788177037701272,57.94653487881941
0.6015395880274836,53.40580015848145
0.6251534353689703,49.47018404477315
0.6496942604146115,45.78447147663755
0.6751984523072497,42.128060320912255
0.7017038286703824,38.54292383158051
0.7292496916841444,35.12078974884968
0.7578768863625915,31.926921635014175
0.7876278611187046,29.003453246372
0.8185467307069019,26.373147998483702
0.850679341636415,24.024074032112015
0.8840733401525058,21.91377810672938
0.9187782428863317,20.005257499701713
0.9548455102782278,18.268280976764494
0.9923286228832539,16.678163901557124
1.0312831606721837,15.215628040773977
1.0717668854455022,13.870812689031478
1.1138398264826193,12.637195335388439
1.1575643695533022,11.50808742929226
1.2030053494233226,10.47673996686637
1.2502301459914542,9.536444754683796
1.299308784200415,8.68013876238917
1.3503140378698726,7.900179181949386
1.4033215376054824,7.189534772635136
1.4584098829439835,6.541866535882954
1.5156607589006013,5.951454056255893
1.575159057091621,5.413142904546313
1.6369930016117014,4.922416157379249
1.7012542798525885,4.47523591031973
1.7680381784572046,4.06788653525609
1.8374437246107238,3.6969496638433963
1.9095738328780953,3.3592828515329427
1.9845354578058014,3.0519885251990027
2.0624397525140905,2.77237789166459
2.143402233514853,2.5179903846677076
2.227542951999554,2.2865816859794723
2.314986671851158,2.0761048838392613
2.405863054644063,1.8846935408575365
2.5003068519063225,1.7106513519266404
2.598458104929248,1.5524351356091415
2.7004623524206774,1.4086352933980915
2.806470846309834,1.2779644094137719
2.916640776023701,1.1592470313406664
3.031135501567576,1.0514096763996603
3.150124795755327,0.9534703550145497
3.2737850959485697,0.8645334515407931
3.4022997656780634,0.7837831574081158
3.5358593665351745,0.7104764761253688
3.6746619407366854,0.6439368437027805
3.8189133047818515,0.5835488729262771
3.968827354637162,0.5287529766042048
4.1246263829013445,0.4790395151341688
4.286541408420921,0.4339443805267398
4.4548125188449825,0.39304502794872687
4.629689226627261,0.35595677282869653
4.811430839003257,0.3223290794091491
5.000306842491082,0.2918429761495964
5.196597302486189,0.2642085025445333
5.400593278542364,0.23916210980928537
5.612597255954967,0.2164642899545888
5.8329235942862,0.1958974733010608
6.06189899349756,0.17726408994601
6.29986297838068,0.1603846346252431
6.547168402004727,0.14509602698561289
6.804181968927091,0.131250134019898
7.071284778942991,0.11871242621328773
7.348872892180382,0.10736078292664883
7.637357916378006,0.0970843437719719
7.937167617217536,0.08778246031483564
8.248746552614573,0.07936377139831753
8.572556731909314,0.07174536088043389
8.909078300934132,0.06485189978626936
9.258810253973934,0.05861481366227289
9.622271173675122,0.05297194982812222
9.999999999999984,0.047867031055410444
