k [1/Mpc],P(k) [Mpc^3]
0.0001,35.896085920925266
0.00010392556829367125,37.52107086311532
0.00010800523745162529,39.21959831502255
0.00011224505680853065,40.99499169691296
0.00011665131316981963,42.85072492623932
0.00012123054013376525,44.790433426195214
0.00012598952777950273,46.81791897522056
0.00013093533273536104,48.93715185763524
0.00013607528864243335,51.15227482013069
0.00014141701702890234,53.46761662362991
0.00014696843861124463,55.88770541068735
0.00015273778503907136,58.41727641244242
0.00015873361110102093,61.06127765349546
0.00016496480740980205,63.82487720321628
0.0001714406135851971,66.71347527728176
0.00017817063195457305,69.73271466065816
0.00018516484179121546,72.88849152373214
0.000192433614111598,76.18696706904657
0.00019998772705352857,79.63457887379937
0.0002078383818579757,83.23805359530247
0.00021599721947827182,87.00441918215357
0.0002244763378413224,90.94101773555491
0.0002332883097864157,95.05552036395176
0.00024244620170823283,99.35594012659226
0.0002519635929317015,103.85064796641217
0.0002618545958474233,108.5483887675282
0.0002721338768375308,113.45829679173596
0.0002828166780230032,118.5899138908026
0.0002939188398646886,123.95320268912967
0.0003054568246515432,129.55856544948048
0.00031744774091091926,135.41686601226246
0.00032990936877709396,141.53944664811067
0.00034286018635565856,147.93815184514824
0.00035631939712285854,154.62535482594305
0.000370306958400514,161.61398216211578
0.00038484361094874304,168.91752976783158
0.0003999509097203664,176.55006091950406
0.00041565125582259895,184.52624437580178
0.00043196792973341727,192.8613958332266
0.0004489251258218605,201.57151070858706
0.0004665479882234472,210.67328534351955
0.000484862648123908,220.184132339579
0.000503896262506515,230.12221378517103
0.0005236770544204653,240.5064751971488
0.0005442343548300266,251.3566629703142
0.0005655986461065005,262.69337130199426
0.0005878016072274912,274.5380670867516
0.0006108761607505036,286.91312291252274
0.0006348565216305217,299.84186457515136
0.0006597782479539537,313.3485981240247
0.0006856782936641739,327.45865702584763
0.0007125950633568407,342.19842777224375
0.0007405684692262436,357.5953749000315
0.0007696399902471156,373.6781074708452
0.0007998527336796708,390.4763978666344
0.000831251498989063,408.02123646328124
0.0008638828442740447,426.3448782896493
0.000897795155303332,445.48086156123406
0.0009330387172620361,465.4640834330266
0.0009696657893145519,486.3308034675262
0.001007730682094461,508.1186914398592
0.0010472898382363582,530.8669063639223
0.0010884019160690055,554.6160985531773
0.0011311278765939214,579.4084971807107
0.001175531073878369,605.2879016143756
0.0012216773489967915,632.2996890482917
0.0012696351276599736,660.4909422730599
0.0013194755216767058,689.9104152554312
0.0013712724343984,720.6086257861257
0.0014251026703029975,752.6378710025921
0.0014810460488806749,786.0521639546866
0.0015391855229902056,820.9074013910879
0.001599607301861487,857.2612681154828
0.0016624009789266115,895.1732982475713
0.0017276596646690358,934.7049627296379
0.0017954801246878305,975.9195196928767
0.0018659629231817451,1018.882198251796
0.001939212572065829,1063.6601111276593
0.0020153376859417325,1110.3222227060585
0.002094451143151469,1158.9394688569193
0.002176670253153458,1209.5843979759575
0.002262116930469025,1262.331382162749
0.002350917875457286,1317.2565806036714
0.002443204762186487,1374.4377363931887
0.0025391144336803463,1433.95439506563
0.002638789104828933,1495.887579655256
0.002742376573264949,1560.3198348532383
0.0028500304385181063,1627.335118770936
0.0029619103297725525,1697.0181729858748
0.0030781821425650787,1769.4549527441948
0.003199018284775064,1844.7323190609923
0.0033245979322709396,1922.9378799534104
0.003455107294592217,2004.1599674225054
0.0035907398910610534,2088.486656878277
0.0037316968377327513,2176.006137295827
0.0038781871456107214,2266.8062251701745
0.0040304280305680515,2360.9737268028684
0.00418864523543527,2458.5947740341094
0.004353073364731888,2559.753404937199
0.00452395623253805,2664.5317181368277
0.004701547224022131,2773.009530275114
0.004886109671160325,2885.262958116434
0.005077917243205399,3001.3650780655303
0.005277254352483535,3121.384192056554
0.005484416576121017,3245.3834068749047
0.005699711094326071,3373.420271751411
0.005923457145875801,3505.5428976671365
0.006155986501483508,3641.791948298787
0.006397643955748424,3782.2026168309517
0.0066487878384172625,3926.804779755234
0.0069097905457156435,4075.6177153498493
0.007181039092537346,4228.630832033042
0.007462935686310132,4385.811758941961
0.007755898323389004,4547.1201658524915
0.00806036140886134,4712.515440139674
0.008376776400682916,4881.943353349991
0.008705612479099857,5055.312031560315
0.009047357242349292,5232.494888733023
0.00940251742967013,5413.347180513113
0.009771619672696168,5597.714921557653
0.010155211276345676,5785.424860624711
0.010553861030365234,5976.262096054645
0.010968160052731372,6169.964782687253
0.011398722666160517,6366.238576207062
0.011846187309026826,6564.742963931278
0.012311217482038896,6765.099175811031
0.012794502732078732,6966.889134289725
0.013296759674662111,7169.650221161807
0.013818733056536317,7372.8808861192165
0.014361196859990781,7576.019311729695
0.014924955450518284,7778.45169008737
0.015510844769528393,7979.517052965223
0.016119733573881575,8178.491960427661
0.01675252472408214,8374.609523397547
0.017410156523040152,8567.04682091768
0.018093604107387147,8754.927894015296
0.01880388089340914,8937.338525095622
0.019542040079740527,9113.312374874915
0.02030917620904734,9281.851156478639
0.021106426791015535,9441.929128026197
0.021934973989050584,9592.495969307492
0.02279604637318978,9732.496244521977
0.023690920741826323,9860.888206362166
0.02462092401494623,9976.648211058184
0.02558743520168586,10078.792012635915
0.02659188744512693,10166.406463528301
0.027635770147361564,10238.636935101706
0.028720631177978267,10294.803005585438
0.029848079169243254,10334.381036500172
0.03101978590138095,10356.942339283356
0.03223748878149028,10362.204336093188
0.0335029934197723,10350.001926457058
0.03481817630688963,10320.785143693956
0.03618498759642746,10275.706035915191
0.037605453996581675,10215.920505573547
0.03908168177536263,10142.058001971289
0.04061585988376978,10054.581160547763
0.04221026320156896,9954.60697831443
0.04386725591048496,9844.395619139448
0.0455892949998106,9726.293267690977
0.047378933909631396,9602.69854469242
0.049238826317067365,9475.993386093456
0.05117173007114603,9348.486934150174
0.05318051128214196,9222.450661442594
0.05526814857144601,9099.882166733043
0.057437737488265785,8981.895891365111
0.0596924950997073,8869.15512260713
0.0620357647610427,8761.306133801902
0.06447102107323864,8657.445361317976
0.06700187503509585,8555.748280571375
0.06963207939763882,8453.82367551936
0.0723655342286965,8348.434457748344
0.07520629269592405,8235.77415950371
0.07815856707684081,8111.5254654498485
0.08122673500479707,7971.055952158975
0.08441534596012978,7810.057178320823
0.0877291280161335,7625.188603460608
0.09117299484984914,7415.0663508629505
0.09475205302806537,7180.858406595515
0.09847160957933764,6926.723958794881
0.1023371798632519,6659.2492392133345
0.10635449574860109,6387.057633637433
0.11052951411260206,6119.535154740102
0.1148684256737553,5866.169924416745
0.1193776641714435,5635.892336918132
0.1240639159058831,5435.02078603429
0.12893412965257148,5264.13629471156
0.13399552696593373,5118.369086460364
0.1392556128874462,4988.257987209503
0.14472218707411338,4860.747509435406
0.15040335536380234,4722.201683097236
0.15630754179458153,4561.586847962473
0.16244350109588662,4373.668068589661
0.16882033167003618,4161.2636327174005
0.17544748908334581,3935.251483242843
0.1823348000868439,3712.0037927049893
0.189492477187382,3508.9997255671396
0.19693113379074215,3338.832613559905
0.20466179993919872,3203.16707897687
0.21269593866686892,3091.0554990534893
0.22104546299710207,2983.7509345014464
0.22972275360711503,2862.384140596439
0.23874067718606454,2716.7908447896157
0.2481126055137766,2553.2153467327807
0.25785243528842716,2391.0886760908256
0.26797460873256895,2250.0151485012716
0.27849413500806414,2138.1233460090266
0.28942661247167484,2046.5378363126329
0.3007882518043098,1955.7215738723844
0.31259590004822796,1850.7579485079534
0.324867065587837,1733.5927180846486
0.3376199441111335,1620.457264606322
0.35087344559027084,1525.6857749134087
0.36464722232127456,1448.4826176889871
0.37896169806447155,1373.9998576094001
0.3938380983288488,1291.1082114081655
0.4092984818452433,1205.2644419996395
0.4253657732750382,1129.5180997559055
0.44206379720285277,1065.7428476893458
0.45941731346364734,1004.200754502412
0.47745205385661277,939.325097318531
0.4961947603002895,877.0530187306332
0.5156732244854959,822.9217620278587
0.5359163290848509,772.5798880844393
0.556954090580013,721.5705772602857
0.5788177037701272,673.530303253319
0.6015395880274836,630.3772004984404
0.6251534353689703,589.0117682397866
0.6496942604146115,549.02500513402
0.6751984523072497,512.4479144280903
0.7017038286703824,477.98595370976483
0.7292496916841444,445.14612542888756
0.7578768863625915,414.72734328803904
0.7876278611187046,386.1019413006163
0.8185467307069019,359.21796914405564
0.850679341636415,334.0553613755762
0.8840733401525058,310.5142069069434
0.9187782428863317,288.50105966175295
0.9548455102782278,267.927064435167
0.9923286228832539,248.70775161826248
1.0312831606721837,230.7628781256664
1.0717668854455022,214.01670586287244
1.1138398264826193,198.39857130023609
1.1575643695533022,183.84132355996573
1.2030053494233226,170.28094956072053
1.2502301459914542,157.65651110981628
1.299308784200415,145.91005427406594
1.3503140378698726,134.9862411251697
1.4033215376054824,124.83243006196358
1.4584098829439835,115.3988850562143
1.5156607589006013,106.63866495113629
1.575159057091621,98.50750415968557
1.6369930016117014,90.96370497726828
1.7012542798525885,83.9680402926626
1.7680381784572046,77.483605623762
1.8374437246107238,71.47570235277597
1.9095738328780953,65.91173189546643
1.9845354578058014,60.761090647184986
2.0624397525140905,55.99503949926992
2.143402233514853,51.58662221235469
2.227542951999554,47.51060359819497
2.314986671851158,43.7433762205745
2.405863054644063,40.262869636560715
2.5003068519063225,37.04845846276035
2.598458104929248,34.080869027596485
2.7004623524206774,31.342117842551986
2.806470846309834,28.81543890990195
2.916640776023701,26.485209955506818
3.031135501567576,24.33688226428792
3.150124795755327,22.356912851574293
3.2737850959485697,20.53270201327258
3.4022997656780634,18.85253506939309
3.5358593665351745,17.30552573970324
3.6746619407366854,15.881562576932991
3.8189133047818515,14.571256063224514
3.968827354637162,13.3658856329528
4.1246263829013445,12.257363848959278
4.286541408420921,11.238195896284072
4.4548125188449825,10.30143905608286
4.629689226627261,9.440664698548852
4.811430839003257,8.649922952299269
5.000306842491082,7.923709163978393
5.196597302486189,7.256932237654687
5.400593278542364,6.644885393794655
5.612597255954967,6.083218837621129
5.8329235942862,5.567912932813629
6.06189899349756,5.095251135504951
6.29986297838068,4.661803035268222
6.547168402004727,4.26440472940856
6.804181968927091,3.9001390034271144
7.071284778942991,3.5663170849715664
7.348872892180382,3.2604656233288467
7.637357916378006,2.980309224636093
7.937167617217536,2.7237504560358987
8.248746552614573,2.488856458397106
8.572556731909314,2.273846725061519
8.909078300934132,2.077078135980445
9.258810253973934,1.897024462009823
9.622271173675122,1.7322822984122523
9.999999999999984,1.5815656850988813
