k [1/Mpc],P(k) [Mpc^3]
0.0001,26.905810442891816
0.00010392556829367125,28.123860810456268
0.00010800523745162529,29.397041975188312
0.00011224505680853065,30.727847960132333
0.00011665131316981963,32.1188859138763
0.00012123054013376525,33.57288149666996
0.00012598952777950273,35.09268352875439
0.00013093533273536104,36.681267646473415
0.00013607528864243335,38.34174271094834
0.00014141701702890234,40.07735832015203
0.00014696843861124463,41.89151214361857
0.00015273778503907136,43.78775548139735
0.00015873361110102093,45.76979891223903
0.00016496480740980205,47.84151944128276
0.0001714406135851971,50.0069692348996
0.00017817063195457305,52.27038507558754
0.00018516484179121546,54.63619548853881
0.000192433614111598,57.10902509919684
0.00019998772705352857,59.69370111648973
0.0002078383818579757,62.39526801605112
0.00021599721947827182,65.21900602074965
0.0002244763378413224,68.17043820519594
0.0002332883097864157,71.25533139443388
0.00024244620170823283,74.47969750385303
0.0002519635929317015,77.84981569446326
0.0002618545958474233,81.37225495210198
0.0002721338768375308,85.05388666917456
0.0002828166780230032,88.90188948074048
0.0002939188398646886,92.92375547801015
0.0003054568246515432,97.12730963374042
0.00031744774091091926,101.52072412466995
0.00032990936877709396,106.11253233506395
0.00034286018635565856,110.91164848785137
0.00035631939712285854,115.92738993825253
0.000370306958400514,121.16949253680049
0.00038484361094874304,126.64811866169094
0.0003999509097203664,132.37386439694689
0.00041565125582259895,138.35779276004232
0.00043196792973341727,144.61146578059208
0.0004489251258218605,151.14696536516809
0.0004665479882234472,157.97690341658412
0.000484862648123908,165.11442635687055
0.000503896262506515,172.5732527062521
0.0005236770544204653,180.36769969048848
0.0005442343548300266,188.5127075146126
0.0005655986461065005,197.02386865188737
0.0005878016072274912,205.91745232962023
0.0006108761607505036,215.21043489707384
0.0006348565216305217,224.92052268217182
0.0006597782479539537,235.06617168507162
0.0006856782936641739,245.66663107026986
0.0007125950633568407,256.74195754102334
0.0007405684692262436,268.3130516016277
0.0007696399902471156,280.40170621521446
0.0007998527336796708,293.03064442730187
0.000831251498989063,306.22355507448367
0.0008638828442740447,320.00509121079796
0.000897795155303332,334.40089445328465
0.0009330387172620361,349.43767511905895
0.0009696657893145519,365.1432588480647
0.001007730682094461,381.5466284334759
0.0010472898382363582,398.6779333576029
0.0010884019160690055,416.5684949436855
0.0011311278765939214,435.2508995065182
0.001175531073878369,454.75901874727026
0.0012216773489967915,475.12806317709095
0.0012696351276599736,496.3946232729767
0.0013194755216767058,518.5966454840664
0.0013712724343984,541.7735404354754
0.0014251026703029975,565.9661837090883
0.0014810460488806749,591.2169456556919
0.0015391855229902056,617.5697853689867
0.001599607301861487,645.070208228022
0.0016624009789266115,673.7653661281009
0.0017276596646690358,703.7040559729148
0.0017954801246878305,734.9366774108487
0.0018659629231817451,767.5153862233651
0.001939212572065829,801.4940132778027
0.0020153376859417325,836.9281378511382
0.002094451143151469,873.8751440802466
0.002176670253153458,912.3941036659631
0.002262116930469025,952.5459389892576
0.002350917875457286,994.3932624865691
0.002443204762186487,1038.0003515790781
0.0025391144336803463,1083.4333218101597
0.002638789104828933,1130.7599134719062
0.002742376573264949,1180.0496382862357
0.0028500304385181063,1231.3736547492529
0.0029619103297725525,1284.8045683696441
0.0030781821425650787,1340.4166629552044
0.003199018284775064,1398.285527146612
0.0033245979322709396,1458.4881253310832
0.003455107294592217,1521.1027863460354
0.0035907398910610534,1586.2087657976913
0.0037316968377327513,1653.8865145452683
0.0038781871456107214,1724.2171886299639
0.0040304280305680515,1797.2824777066621
0.00418864523543527,1873.1647618705167
0.004353073364731888,1951.9463556824421
0.00452395623253805,2033.7097533084086
0.004701547224022131,2118.537108069209
0.004886109671160325,2206.509588371402
0.005077917243205399,2297.7077388737994
0.005277254352483535,2392.210044048373
0.005484416576121017,2490.093065363472
0.005699711094326071,2591.4313544190964
0.005923457145875801,2696.29626215528
0.006155986501483508,2804.756328751331
0.006397643955748424,2916.8747296667016
0.0066487878384172625,3032.708661514002
0.0069097905457156435,3152.3110085334656
0.007181039092537346,3275.7309406672716
0.007462935686310132,3403.012615865784
0.007755898323389004,3534.1873890469083
0.00806036140886134,3669.268452923366
0.008376776400682916,3808.2588047112667
0.008705612479099857,3951.153595317102
0.009047357242349292,4097.938523666219
0.00940251742967013,4248.587138576071
0.009771619672696168,4403.058688180482
0.010155211276345676,4561.298333885597
0.010553861030365234,4723.227943387584
0.010968160052731372,4888.745259035935
0.011398722666160517,5057.727979265416
0.011846187309026826,5230.026815719281
0.012311217482038896,5405.469180890032
0.012794502732078732,5583.855606602936
0.013296759674662111,5764.956347418817
0.013818733056536317,5948.514799990549
0.014361196859990781,6134.237551630019
0.014924955450518284,6321.798181673623
0.015510844769528393,6510.836711964244
0.016119733573881575,6700.952120927406
0.01675252472408214,6891.71020772382
0.017410156523040152,7082.6350245841195
0.018093604107387147,7273.210210077304
0.01880388089340914,7462.8852560077385
0.019542040079740527,7651.0701414834275
0.02030917620904734,7837.1420386195
0.021106426791015535,8020.445412212833
0.021934973989050584,8200.292635006026
0.02279604637318978,8375.97192489502
0.023690920741826323,8546.758471530093
0.02462092401494623,8711.913701042135
0.02558743520168586,8870.695295739913
0.02659188744512693,9022.373956673608
0.027635770147361564,9166.224332289185
0.028720631177978267,9301.58086792345
0.029848079169243254,9427.831147617822
0.03101978590138095,9544.392957776898
0.03223748878149028,9650.753316078075
0.0335029934197723,9746.444100167804
0.03481817630688963,9831.243447020279
0.03618498759642746,9905.232913737853
0.037605453996581675,9968.532195694113
0.03908168177536263,10021.134103856959
0.04061585988376978,10063.001106052507
0.04221026320156896,10094.314141807998
0.04386725591048496,10115.659204417327
0.0455892949998106,10127.706587757117
0.047378933909631396,10131.200353591412
0.049238826317067365,10126.938528227383
0.05117173007114603,10115.775078721676
0.05318051128214196,10098.70636894524
0.05526814857144601,10076.731101499388
0.057437737488265785,10050.32598463131
0.0596924950997073,10019.531694442187
0.0620357647610427,9984.004719588651
0.06447102107323864,9942.79435392597
0.06700187503509585,9894.682347488302
0.06963207939763882,9838.008841665314
0.0723655342286965,9770.987294753055
0.07520629269592405,9691.697136784005
0.07815856707684081,9598.230824358256
0.08122673500479707,9488.756515195651
0.08441534596012978,9361.66825853596
0.0877291280161335,9215.847691533529
0.09117299484984914,9051.020882250383
0.09475205302806537,8868.313535158586
0.09847160957933764,8670.423415484349
0.1023371798632519,8461.63554595327
0.10635449574860109,8247.350907100377
0.11052951411260206,8033.185394863345
0.1148684256737553,7824.099358580472
0.1193776641714435,7623.788848512129
0.1240639159058831,7434.137949956353
0.12893412965257148,7254.9238358837265
0.13399552696593373,7083.1423798908445
0.1392556128874462,6913.111691859298
0.14472218707411338,6738.946759610256
0.15040335536380234,6553.501521029936
0.15630754179458153,6351.435385568036
0.16244350109588662,6132.49212645573
0.16882033167003618,5901.576687043413
0.17544748908334581,5667.3577081569865
0.1823348000868439,5439.900306163099
0.189492477187382,5227.365503106195
0.19693113379074215,5033.290814994392
0.20466179993919872,4855.148108566181
0.21269593866686892,4684.38883797994
0.22104546299710207,4509.777193578799
0.22972275360711503,4324.2485977148635
0.23874067718606454,4129.187055774783
0.2481126055137766,3932.603241649835
0.25785243528842716,3745.2243770224327
0.26797460873256895,3574.3785055197636
0.27849413500806414,3418.215860544552
0.28942661247167484,3268.2246697190863
0.3007882518043098,3116.1239966321154
0.31259590004822796,2959.7801628609527
0.324867065587837,2804.959938646643
0.3376199441111335,2659.365288629083
0.35087344559027084,2525.479989581575
0.36464722232127456,2398.6367810648585
0.37896169806447155,2273.386723326268
0.3938380983288488,2148.9815826679005
0.4092984818452433,2029.524597888875
0.4253657732750382,1918.0669797376408
0.44206379720285277,1812.8420024937172
0.45941731346364734,1710.3936954645797
0.47745205385661277,1611.0217942455454
0.4961947603002895,1517.342090814854
0.5156732244854959,1429.216372556906
0.5359163290848509,1344.405671760585
0.556954090580013,1263.1934656376623
0.5788177037701272,1186.6885619837149
0.6015395880274836,1114.136992087094
0.6251534353689703,1045.078551117434
0.6496942604146115,979.6871242001354
0.6751984523072497,917.8801173770763
0.7017038286703824,859.423553273358
0.7292496916841444,804.1395484982655
0.7578768863625915,752.0542946757756
0.7876278611187046,702.8147040965644
0.8185467307069019,656.5045851082236
0.850679341636415,612.8407609111554
0.8840733401525058,571.7759076992573
0.9187782428863317,533.187818333484
0.9548455102782278,496.93353140038465
0.9923286228832539,462.89347899977895
1.0312831606721837,430.95741868613356
1.0717668854455022,401.01818520632935
1.1138398264826193,372.97184595593694
1.1575643695533022,346.71783155673313
1.2030053494233226,322.1585802533624
1.2502301459914542,299.1990309790882
1.299308784200415,277.7479660419563
1.3503140378698726,257.7181980606313
1.4033215376054824,239.02649810077267
1.4584098829439835,221.5935156234088
1.5156607589006013,205.34374490162202
1.575159057091621,190.20542623956436
1.6369930016117014,176.11035613675918
1.7012542798525885,162.99377982022773
1.7680381784572046,150.7942857032569
1.8374437246107238,139.45368665959526
1.9095738328780953,128.9168066923388
1.9845354578058014,119.1314416258839
2.0624397525140905,110.04833162286009
2.143402233514853,101.62103768770424
2.227542951999554,93.80581777600878
2.314986671851158,86.56150009358349
2.405863054644063,79.84934555426712
2.5003068519063225,73.63295421290604
2.598458104929248,67.87815927257266
2.7004623524206774,62.55291398345002
2.806470846309834,57.62718200883661
2.916640776023701,53.072821313651126
3.031135501567576,48.86347114487163
3.150124795755327,44.974481132422056
3.2737850959485697,41.3828192170981
3.4022997656780634,38.06697880509981
3.5358593665351745,35.00688968227261
3.6746619407366854,32.183822383730494
3.8189133047818515,29.580309012066554
3.968827354637162,27.180082476108208
4.1246263829013445,24.968002936570116
4.286541408420921,22.929987025701642
4.4548125188449825,21.052940673865415
4.629689226627261,19.324694186507774
4.811430839003257,17.73394361316204
5.000306842491082,16.270195468558843
5.196597302486189,14.923713249989625
5.400593278542364,13.68546703263533
5.612597255954967,12.54708365627571
5.8329235942862,11.500794058326433
6.06189899349756,10.539402840729775
6.29986297838068,9.656252411801134
6.547168402004727,8.845185067749497
6.804181968927091,8.100507556883164
7.071284778942991,7.416963462060598
7.348872892180382,6.789707122374397
7.637357916378006,6.214260369100368
7.937167617217536,5.68648453537942
8.248746552614573,5.202556445062503
8.572556731909314,4.75894516912876
8.909078300934132,4.35236886842363
9.258810253973934,3.9797804945849213
9.622271173675122,3.638380713039069
9.999999999999984,3.325599362475887
