k [1/Mpc],P(k) [Mpc^3]
0.0001,21.77207373256425
0.00010392556829367125,22.75767387962237
0.00010800523745162529,23.787881709666827
0.00011224505680853065,24.86471336375625
0.00011665131316981963,25.990275538008294
0.00012123054013376525,27.166771077317385
0.00012598952777950273,28.396503207824786
0.00013093533273536104,29.68187908847278
0.00013607528864243335,31.025414021656143
0.00014141701702890234,32.4297366671904
0.00014696843861124463,33.897593821573054
0.00015273778503907136,35.43185551397281
0.00015873361110102093,37.035521069744064
0.00016496480740980205,38.71172514532167
0.0001714406135851971,40.463743713130704
0.00017817063195457305,42.295000280397375
0.00018516484179121546,44.209072457156196
0.000192433614111598,46.20969873322321
0.00019998772705352857,48.300782824768234
0.0002078383818579757,50.486401312980064
0.00021599721947827182,52.77081408938735
0.0002244763378413224,55.158474851379374
0.0002332883097864157,57.65403790758349
0.00024244620170823283,60.262365211268985
0.0002519635929317015,62.9885350295533
0.0002618545958474233,65.83785229012145
0.0002721338768375308,68.81585436149204
0.0002828166780230032,71.92832340995263
0.0002939188398646886,75.18130101016114
0.0003054568246515432,78.58110218299382
0.00031744774091091926,82.13432371117072
0.00032990936877709396,85.84784715759146
0.00034286018635565856,89.7288522484898
0.00035631939712285854,93.7848366294568
0.000370306958400514,98.02363149036724
0.00038484361094874304,102.45341468298702
0.0003999509097203664,107.08272309737028
0.00041565125582259895,111.9204672340236
0.00043196792973341727,116.97594798083325
0.0004489251258218605,122.25886223631227
0.0004665479882234472,127.77932527899598
0.000484862648123908,133.54789192466689
0.000503896262506515,139.5755729395622
0.0005236770544204653,145.8738563970898
0.0005442343548300266,152.45472067705734
0.0005655986461065005,159.3306557884851
0.0005878016072274912,166.5146860646845
0.0006108761607505036,174.02038080056371
0.0006348565216305217,181.8618856077699
0.0006597782479539537,190.0539390798017
0.0006856782936641739,198.61189248996905
0.0007125950633568407,207.551743023956
0.0007405684692262436,216.89014723789177
0.0007696399902471156,226.64445342691045
0.0007998527336796708,236.83272305606764
0.000831251498989063,247.47374332268365
0.0008638828442740447,258.5870714226625
0.000897795155303332,270.19303724817854
0.0009330387172620361,282.31277582646607
0.0009696657893145519,294.9682703624412
0.001007730682094461,308.1823631058984
0.0010472898382363582,321.97880143624894
0.0010884019160690055,336.3822275334693
0.0011311278765939214,351.4181894374726
0.001175531073878369,367.113217086293
0.0012216773489967915,383.4948274637029
0.0012696351276599736,400.5915713753382
0.0013194755216767058,418.43303013303625
0.0013712724343984,437.0497828062798
0.0014251026703029975,456.4735071487854
0.0014810460488806749,476.73692765366354
0.0015391855229902056,497.873855176786
0.001599607301861487,519.9192552500118
0.0016624009789266115,542.9092097164333
0.0017276596646690358,566.8809927772859
0.0017954801246878305,591.8729950346694
0.0018659629231817451,617.9246962030351
0.001939212572065829,645.0767783609358
0.0020153376859417325,673.3709840237439
0.002094451143151469,702.8502090576309
0.002176670253153458,733.558518083057
0.002262116930469025,765.5410686431491
0.002350917875457286,798.8441928074878
0.002443204762186487,833.5151239221724
0.0025391144336803463,869.6020225336094
0.002638789104828933,907.1540950014887
0.002742376573264949,946.2214190543134
0.0028500304385181063,986.8550352589297
0.0029619103297725525,1029.1066632068985
0.0030781821425650787,1073.0285426089683
0.003199018284775064,1118.6736359919755
0.0033245979322709396,1166.0953494746775
0.003455107294592217,1215.347578093014
0.0035907398910610534,1266.484402009071
0.0037316968377327513,1319.5595878619688
0.0038781871456107214,1374.6269534188662
0.0040304280305680515,1431.7400121116948
0.00418864523543527,1490.9518830368788
0.004353073364731888,1552.3151082799557
0.00452395623253805,1615.880814419025
0.004701547224022131,1681.6990671554167
0.004886109671160325,1749.8183050952425
0.005077917243205399,1820.2849212867318
0.005277254352483535,1893.1434678002474
0.005484416576121017,1968.4357897378434
0.005699711094326071,2046.2010819138538
0.005923457145875801,2126.474907193961
0.006155986501483508,2209.2877132373446
0.006397643955748424,2294.6660788208856
0.0066487878384172625,2382.633897882313
0.0069097905457156435,2473.211830307077
0.007181039092537346,2566.4132815788507
0.007462935686310132,2662.236121192506
0.007755898323389004,2760.6688170255406
0.00806036140886134,2861.694528173263
0.008376776400682916,2965.2914997788685
0.008705612479099857,3071.430048660623
0.009047357242349292,3180.0720808159745
0.00940251742967013,3291.170531129134
0.009771619672696168,3404.6651304164866
0.010155211276345676,3520.477587945556
0.010553861030365234,3638.516612411019
0.010968160052731372,3758.675646245813
0.011398722666160517,3880.8328840741183
0.011846187309026826,4004.8514127402873
0.012311217482038896,4130.575888428549
0.012794502732078732,4257.834668896419
0.013296759674662111,4386.437439331352
0.013818733056536317,4516.174122368098
0.014361196859990781,4646.816803047241
0.014924955450518284,4778.115404485403
0.015510844769528393,4909.800229199324
0.016119733573881575,5041.581958708666
0.01675252472408214,5173.149755179636
0.017410156523040152,5304.174613711505
0.018093604107387147,5434.308308730084
0.01880388089340914,5563.18461949666
0.019542040079740527,5690.42204547925
0.02030917620904734,5815.6260773773965
0.021106426791015535,5938.389539047715
0.021934973989050584,6058.297438969787
0.02279604637318978,6174.929490708122
0.023690920741826323,6287.860720203336
0.02462092401494623,6396.677317926039
0.02558743520168586,6500.9698204166225
0.02659188744512693,6600.338930828434
0.027635770147361564,6694.407490917836
0.028720631177978267,6782.810915821429
0.029848079169243254,6865.243119511345
0.03101978590138095,6941.444413621203
0.03223748878149028,7011.161276262456
0.0335029934197723,7074.12155058048
0.03481817630688963,7130.069491365287
0.03618498759642746,7178.961483433192
0.037605453996581675,7220.99544400487
0.03908168177536263,7256.333108321218
0.04061585988376978,7284.693329170217
0.04221026320156896,7305.636748355065
0.04386725591048496,7318.997825061464
0.0455892949998106,7325.117787558761
0.047378933909631396,7324.400057042275
0.049238826317067365,7317.089666449023
0.05117173007114603,7303.332533997595
0.05318051128214196,7283.130602364156
0.05526814857144601,7255.979706805255
0.057437737488265785,7221.2948159828875
0.0596924950997073,7178.52308754825
0.0620357647610427,7127.150233149996
0.06447102107323864,7066.792765403884
0.06700187503509585,6997.458281391457
0.06963207939763882,6919.293492701984
0.0723655342286965,6832.57373865016
0.07520629269592405,6737.651852289157
0.07815856707684081,6634.859088259866
0.08122673500479707,6524.558567987788
0.08441534596012978,6407.475643964268
0.0877291280161335,6284.624695548495
0.09117299484984914,6157.511028106113
0.09475205302806537,6027.632874870426
0.09847160957933764,5896.178514939865
0.1023371798632519,5763.557166074627
0.10635449574860109,5629.625139587787
0.11052951411260206,5493.931342777496
0.1148684256737553,5355.633009924911
0.1193776641714435,5215.131996704118
0.1240639159058831,5072.877615361606
0.12893412965257148,4926.505449858703
0.13399552696593373,4775.454326764057
0.1392556128874462,4620.90720301598
0.14472218707411338,4465.003388137255
0.15040335536380234,4310.265005034212
0.15630754179458153,4158.594946487577
0.16244350109588662,4010.69323415187
0.16882033167003618,3865.9496037092445
0.17544748908334581,3723.035476879062
0.1823348000868439,3580.9415000747413
0.189492477187382,3439.2294983179186
0.19693113379074215,3297.952882682294
0.20466179993919872,3158.4143679125477
0.21269593866686892,3022.7093703023543
0.22104546299710207,2891.508964010053
0.22972275360711503,2764.0886114950786
0.23874067718606454,2639.725596633264
0.2481126055137766,2517.746930343566
0.25785243528842716,2398.4483653256225
0.26797460873256895,2282.891859433948
0.27849413500806414,2171.376634933324
0.28942661247167484,2063.643771177099
0.3007882518043098,1959.3959362867133
0.31259590004822796,1858.7945493895731
0.324867065587837,1761.8728908906712
0.3376199441111335,1668.559520263056
0.35087344559027084,1578.7662454316742
0.36464722232127456,1492.7156369819568
0.37896169806447155,1410.347243370382
0.3938380983288488,1331.3550711848843
0.4092984818452433,1255.7796453404042
0.4253657732750382,1183.755818574893
0.44206379720285277,1114.9652297825298
0.45941731346364734,1049.3576389398409
0.47745205385661277,987.02816255861
0.4961947603002895,927.6682449104524
0.5156732244854959,871.2699114091033
0.5359163290848509,817.7924950853467
0.556954090580013,767.0096311540814
0.5788177037701272,718.978715295113
0.6015395880274836,673.4663604471858
0.6251534353689703,630.4855818717172
0.6496942604146115,589.8586235457825
0.6751984523072497,551.5469691378017
0.7017038286703824,515.3924127453887
0.7292496916841444,481.35271691615804
0.7578768863625915,449.2706601138394
0.7876278611187046,419.1125322304245
0.8185467307069019,390.7507018712584
0.850679341636415,364.11128472376635
0.8840733401525058,339.11138310768786
0.9187782428863317,315.665626319227
0.9548455102782278,293.6922798458572
0.9923286228832539,273.11257580020276
1.0312831606721837,253.85072794210387
1.0717668854455022,235.8339359889484
1.1138398264826193,218.9924457200266
1.1575643695533022,203.25949665166613
1.2030053494233226,188.57120249489466
1.2502301459914542,174.86651045566606
1.299308784200415,162.0871553428003
1.3503140378698726,150.1775661161339
1.4033215376054824,139.08472612104845
1.4584098829439835,128.75824739205302
1.5156607589006013,119.1503258401931
1.575159057091621,110.21565725234387
1.6369930016117014,101.9113492459325
1.7012542798525885,94.19680574107053
1.7680381784572046,87.03365533607482
1.8374437246107238,80.38569066934188
1.9095738328780953,74.21877793030484
1.9845354578058014,68.500766412752
2.0624397525140905,63.20138809873229
2.143402233514853,58.29215497978853
2.227542951999554,53.74630670655479
2.314986671851158,49.538730849840135
2.405863054644063,45.64587893777311
2.5003068519063225,42.04568330862995
2.598458104929248,38.717460006058495
2.7004623524206774,35.641847356549924
2.806470846309834,32.800748591413644
2.916640776023701,30.17726003504408
3.031135501567576,27.755602108406382
3.150124795755327,25.521051649909367
3.2737850959485697,23.459877589570794
3.4022997656780634,21.55928555365811
3.5358593665351745,19.807361225845497
3.6746619407366854,18.19301589404272
3.8189133047818515,16.705933837391928
3.968827354637162,15.33651617140951
4.1246263829013445,14.075841398407297
4.286541408420921,12.915626739560443
4.4548125188449825,11.84818601717189
4.629689226627261,10.866389928497846
4.811430839003257,9.96362832822246
5.000306842491082,9.13377493931156
5.196597302486189,8.371155043991712
5.400593278542364,7.67051450337124
5.612597255954967,7.026990617876566
5.8329235942862,6.436084113475822
6.06189899349756,5.89362963892333
6.29986297838068,5.395776241537569
6.547168402004727,4.93896730541625
6.804181968927091,4.51991916836363
7.071284778942991,4.135601248481304
7.348872892180382,3.78322129810106
7.637357916378006,3.460208472023948
7.937167617217536,3.1641904067276507
8.248746552614573,2.8929782807881645
8.572556731909314,2.644553456994157
8.909078300934132,2.417051828046781
9.258810253973934,2.208738957378687
9.622271173675122,2.01801659789215
9.999999999999984,1.8434191190900338
