k [1/Mpc],P(k) [Mpc^3]
0.0001,349.299187380507
0.00010392556829367125,364.05542596115714
0.00010800523745162529,379.4346010623035
0.00011224505680853065,395.4629428012722
0.00011665131316981963,412.1677800546291
0.00012123054013376525,429.5775895013791
0.00012598952777950273,447.7220422592577
0.00013093533273536104,466.63204833721153
0.00013607528864243335,486.33980271912264
0.00014141701702890234,506.8788452216831
0.00014696843861124463,528.2841110819754
0.00015273778503907136,550.5919897599066
0.00015873361110102093,573.8403847268057
0.00016496480740980205,598.0687632149028
0.0001714406135851971,623.3182309090079
0.00017817063195457305,649.6315803007392
0.00018516484179121546,677.0533523338318
0.000192433614111598,705.6299351884854
0.00019998772705352857,735.4096667892915
0.0002078383818579757,766.442899862722
0.00021599721947827182,798.7820165870093
0.0002244763378413224,832.4814465603552
0.0002332883097864157,867.5978387761752
0.00024244620170823283,904.1901867269895
0.0002519635929317015,942.3199169512607
0.0002618545958474233,982.0509421361775
0.0002721338768375308,1023.4496866184361
0.0002828166780230032,1066.5852504437928
0.0002939188398646886,1111.5295223254352
0.0003054568246515432,1158.3572859845729
0.00031744774091091926,1207.1463112896479
0.00032990936877709396,1257.97730281285
0.00034286018635565856,1310.9341098565078
0.00035631939712285854,1366.103904374329
0.000370306958400514,1423.5772999646415
0.00038484361094874304,1483.4484748818318
0.0003999509097203664,1545.815151129273
0.00041565125582259895,1610.7787640730344
0.00043196792973341727,1678.444632285891
0.0004489251258218605,1748.921963314961
0.0004665479882234472,1822.3241118515637
0.000484862648123908,1898.7686252455594
0.000503896262506515,1978.3773628525387
0.0005236770544204653,2061.2767209978097
0.0005442343548300266,2147.597587690338
0.0005655986461065005,2237.4756138496186
0.0005878016072274912,2331.051254831331
0.0006108761607505036,2428.4697564346916
0.0006348565216305217,2529.8815329673257
0.0006597782479539537,2635.4420982001784
0.0006856782936641739,2745.3122902322234
0.0007125950633568407,2859.6583648127144
0.0007405684692262436,2978.651717632283
0.0007696399902471156,3102.4694246519502
0.0007998527336796708,3231.2942376118194
0.000831251498989063,3365.314690462692
0.0008638828442740447,3504.7252277028597
0.000897795155303332,3649.7253775957734
0.0009330387172620361,3800.520468380371
0.0009696657893145519,3957.321634847145
0.001007730682094461,4120.3455751028405
0.0010472898382363582,4289.815039650325
0.0010884019160690055,4465.957764798146
0.0011311278765939214,4649.006899834281
0.001175531073878369,4839.201112480798
0.0012216773489967915,5036.783544606432
0.0012696351276599736,5242.002759213489
0.0013194755216767058,5455.111496129157
0.0013712724343984,5676.366473998626
0.0014251026703029975,5906.029002806388
0.0014810460488806749,6144.363206128094
0.0015391855229902056,6391.636926473247
0.001599607301861487,6648.120685285503
0.0016624009789266115,6914.086477204319
0.0017276596646690358,7189.80873870937
0.0017954801246878305,7475.561399076272
0.0018659629231817451,7771.618442454085
0.001939212572065829,8078.2538192865
0.0020153376859417325,8395.739250574234
0.002094451143151469,8724.345144593013
0.002176670253153458,9064.336685955846
0.002262116930469025,9415.97301397175
0.002350917875457286,9779.508357655652
0.002443204762186487,10155.188439538546
0.0025391144336803463,10543.251390963034
0.002638789104828933,10943.924021043995
0.002742376573264949,11357.418589673205
0.0028500304385181063,11783.934932862716
0.0029619103297725525,12223.654559470446
0.0030781821425650787,12676.741241111762
0.003199018284775064,13143.33848617538
0.0033245979322709396,13623.562767061154
0.003455107294592217,14117.507149938356
0.0035907398910610534,14625.233931130284
0.0037316968377327513,15146.773061806032
0.0038781871456107214,15682.121178358038
0.0040304280305680515,16231.227031287293
0.00418864523543527,16793.998780790644
0.004353073364731888,17370.29876322016
0.00452395623253805,17959.93796303611
0.004701547224022131,18562.67598011766
0.004886109671160325,19178.185701388673
0.005077917243205399,19806.06663662833
0.005277254352483535,20445.871203004463
0.005484416576121017,21097.12127948439
0.005699711094326071,21759.272810554394
0.005923457145875801,22431.569060378195
0.006155986501483508,23113.05569145102
0.006397643955748424,23802.69338035801
0.0066487878384172625,24499.407525782302
0.0069097905457156435,25202.045104047313
0.007181039092537346,25909.343977007386
0.007462935686310132,26619.926481851693
0.007755898323389004,27332.29289661123
0.00806036140886134,28044.68037905159
0.008376776400682916,28755.141844958995
0.008705612479099857,29461.559613320438
0.009047357242349292,30161.588115114922
0.00940251742967013,30852.73501735188
0.009771619672696168,31532.273040160107
0.010155211276345676,32197.27207879441
0.010553861030365234,32844.62850624049
0.010968160052731372,33470.93211890105
0.011398722666160517,34072.61680411485
0.011846187309026826,34645.84620136634
0.012311217482038896,35186.495567719176
0.012794502732078732,35690.31930921226
0.013296759674662111,36152.73268570496
0.013818733056536317,36569.022234145334
0.014361196859990781,36934.32222470518
0.014924955450518284,37243.48760012528
0.015510844769528393,37491.42746374349
0.016119733573881575,37672.84812033275
0.01675252472408214,37782.45761591532
0.017410156523040152,37815.14815203024
0.018093604107387147,37765.73730856142
0.01880388089340914,37629.464250245524
0.019542040079740527,37401.861134011655
0.02030917620904734,37078.849035245825
0.021106426791015535,36657.15257010526
0.021934973989050584,36134.07061172
0.02279604637318978,35507.90148247566
0.023690920741826323,34778.11672002284
0.02462092401494623,33945.384093435096
0.02558743520168586,33011.82960208977
0.02659188744512693,31981.211905201697
0.027635770147361564,30858.86659723879
0.028720631177978267,29651.978536707073
0.029848079169243254,28370.1841876103
0.03101978590138095,27024.366181287387
0.03223748878149028,25627.175265015416
0.0335029934197723,24192.56265624767
0.03481817630688963,22735.508784589834
0.03618498759642746,21275.909993380978
0.037605453996581675,19833.043082153363
0.03908168177536263,18423.1580545456
0.04061585988376978,17059.481904735992
0.04221026320156896,15754.24112555292
0.04386725591048496,14527.641495330246
0.0455892949998106,13397.763776132677
0.047378933909631396,12376.14718274409
0.049238826317067365,11469.229195142076
0.05117173007114603,10680.478334494563
0.05318051128214196,10011.39208109151
0.05526814857144601,9459.98042280887
0.057437737488265785,9022.208547076245
0.0596924950997073,8690.871561705815
0.0620357647610427,8456.830534992881
0.06447102107323864,8306.635675638167
0.06700187503509585,8222.175030209622
0.06963207939763882,8180.468444032238
0.0723655342286965,8154.906703426269
0.07520629269592405,8113.366577680943
0.07815856707684081,8021.269736988955
0.08122673500479707,7847.651753155945
0.08441534596012978,7569.458167911972
0.0877291280161335,7175.433042266997
0.09117299484984914,6669.205956994416
0.09475205302806537,6071.016372740318
0.09847160957933764,5416.9062591399925
0.1023371798632519,4753.728885893102
0.10635449574860109,4131.028047149098
0.11052951411260206,3592.04614328156
0.1148684256737553,3167.1342481067277
0.1193776641714435,2871.4873129286184
0.1240639159058831,2705.897815466831
0.12893412965257148,2657.487815266858
0.13399552696593373,2698.692406427231
0.1392556128874462,2785.681409245547
0.14472218707411338,2860.241612568978
0.15040335536380234,2859.8566250723993
0.15630754179458153,2738.517065517042
0.16244350109588662,2490.3206919103195
0.16882033167003618,2156.8949315717755
0.17544748908334581,1809.3809204184854
0.1823348000868439,1519.26713924399
0.189492477187382,1334.0969300167005
0.19693113379074215,1265.0376031918513
0.20466179993919872,1288.178527602239
0.21269593866686892,1350.682890094609
0.22104546299710207,1379.2474894917077
0.22972275360711503,1313.0119844939618
0.23874067718606454,1150.1391526211103
0.2481126055137766,953.6561318459563
0.25785243528842716,802.0970686624133
0.26797460873256895,735.9536078666051
0.27849413500806414,744.772056975886
0.28942661247167484,773.8331518904693
0.3007882518043098,753.6886894464507
0.31259590004822796,663.3373700196496
0.324867065587837,552.596724344293
0.3376199441111335,484.8765740834267
0.35087344559027084,475.27688712907894
0.36464722232127456,483.7944839168138
0.37896169806447155,456.6486040946967
0.3938380983288488,392.4364470104963
0.4092984818452433,340.4616675085014
0.4253657732750382,326.50015652509717
0.44206379720285277,323.5651881627504
0.45941731346364734,295.75340394120997
0.47745205385661277,256.3004617677275
0.4961947603002895,236.9634701313339
0.5156732244854959,230.42385629931508
0.5359163290848509,210.98760897883005
0.556954090580013,186.62893548067865
0.5788177037701272,175.18646697918146
0.6015395880274836,165.21005373696562
0.6251534353689703,148.50301456423497
0.6496942604146115,135.33387496220408
0.6751984523072497,124.82524682584821
0.7017038286703824,115.61449083889995
0.7292496916841444,106.86264056911263
0.7578768863625915,98.47849124311317
0.7876278611187046,90.54456540796748
0.8185467307069019,83.11755290863759
0.850679341636415,76.2318231690344
0.8840733401525058,69.90316862138002
0.9187782428863317,64.12076481710668
0.9548455102782278,58.83293586103027
0.9923286228832539,53.987573999033906
1.0312831606721837,49.53931954237003
1.0717668854455022,45.448616112971656
1.1138398264826193,41.68092705572924
1.1575643695533022,38.20844912304741
1.2030053494233226,35.01071048389206
1.2502301459914542,32.06878800913064
1.299308784200415,29.364655665930922
1.3503140378698726,26.881200269890083
1.4033215376054824,24.602213166371754
1.4584098829439835,22.511915360925652
1.5156607589006013,20.595011722737265
1.575159057091621,18.837388673462343
1.6369930016117014,17.226067543506876
1.7012542798525885,15.74911366825949
1.7680381784572046,14.395556988150293
1.8374437246107238,13.155380011554005
1.9095738328780953,12.01940918556853
1.9845354578058014,10.97918086317213
2.0624397525140905,10.026887750323317
2.143402233514853,9.155331202880598
2.227542951999554,8.357875363869493
2.314986671851158,7.628395197900597
2.405863054644063,6.96124752658831
2.5003068519063225,6.351242553398735
2.598458104929248,5.793608988327184
2.7004623524206774,5.283961625433019
2.806470846309834,4.818271155915786
2.916640776023701,4.392835715309761
3.031135501567576,4.004255970171564
3.150124795755327,3.6494116142136748
3.2737850959485697,3.3254392512389366
3.4022997656780634,3.029711955197846
3.5358593665351745,2.759820441412831
3.6746619407366854,2.5135557449948007
3.8189133047818515,2.288892915079442
3.968827354637162,2.083976123882706
4.1246263829013445,1.8971049837133966
4.286541408420921,1.726721927534905
4.4548125188449825,1.5714005093496441
4.629689226627261,1.429834624841104
4.811430839003257,1.300828808146802
5.000306842491082,1.183289145883964
5.196597302486189,1.0762148868208143
5.400593278542364,0.9786907150564949
5.612597255954967,0.8898792779146756
5.8329235942862,0.8090146190875079
6.06189899349756,0.7353968516790571
6.29986297838068,0.6683866315388095
6.547168402004727,0.607400026285143
6.804181968927091,0.5519038330141335
7.071284778942991,0.5014117946856268
7.348872892180382,0.45548042125943056
7.637357916378006,0.4137046868336071
7.937167617217536,0.37571475804364457
8.248746552614573,0.34117302065555016
8.572556731909314,0.3097712409091503
8.909078300934132,0.2812269006620844
9.258810253973934,0.2552818285185289
9.622271173675122,0.23170111007759514
9.999999999999984,0.21027100641345764
