k [1/Mpc],P(k) [Mpc^3]
0.0001,331.7636927216174
0.00010392556829367125,342.79639614944494
0.00010800523745162529,354.1955736830743
0.00011224505680853065,365.97333988227234
0.00011665131316981963,378.1422055717333
0.00012123054013376525,390.71509366819515
0.00012598952777950273,403.70535138656203
0.00013093533273536104,417.1267592067292
0.00013607528864243335,430.9935401464323
0.00014141701702890234,445.3203799633652
0.00014696843861124463,460.1224375282286
0.00015273778503907136,475.41536101534604
0.00015873361110102093,491.215303341873
0.00016496480740980205,507.53892750532833
0.0001714406135851971,524.4034318209682
0.00017817063195457305,541.8265510642597
0.00018516484179121546,559.8265676859586
0.000192433614111598,578.4223520227463
0.00019998772705352857,597.6334025639022
0.0002078383818579757,617.4798530198799
0.00021599721947827182,637.9824377682882
0.0002244763378413224,659.1624607015686
0.0002332883097864157,681.041885592999
0.00024244620170823283,703.6433843498476
0.0002519635929317015,726.9903534952434
0.0002618545958474233,751.1069015534043
0.0002721338768375308,776.0178149946343
0.0002828166780230032,801.7486289355103
0.0002939188398646886,828.3256549637432
0.0003054568246515432,855.7760014091001
0.00031744774091091926,884.1275801638458
0.00032990936877709396,913.409008319214
0.00034286018635565856,943.6497017838578
0.00035631939712285854,974.8799399200813
0.000370306958400514,1007.1308838031783
0.00038484361094874304,1040.4345949268513
0.0003999509097203664,1074.823951410949
0.00041565125582259895,1110.3326983784464
0.00043196792973341727,1146.995494465263
0.0004489251258218605,1184.847843278657
0.0004665479882234472,1223.9261963708825
0.000484862648123908,1264.2679077983155
0.000503896262506515,1305.911238148628
0.0005236770544204653,1348.8954258899178
0.0005442343548300266,1393.2605780969543
0.0005655986461065005,1439.0477687013113
0.0005878016072274912,1486.2989836034367
0.0006108761607505036,1535.0570318140947
0.0006348565216305217,1585.3657052073443
0.0006597782479539537,1637.2696506488362
0.0006856782936641739,1690.8144279770106
0.0007125950633568407,1746.0464830105773
0.0007405684692262436,1803.012895627978
0.0007696399902471156,1861.7616300607401
0.0007998527336796708,1922.3414466555412
0.000831251498989063,1984.8018818759106
0.0008638828442740447,2049.193240481922
0.000897795155303332,2115.5660328218178
0.0009330387172620361,2183.971326266205
0.0009696657893145519,2254.4606731294484
0.001007730682094461,2327.0858997841265
0.0010472898382363582,2401.8993153382903
0.0010884019160690055,2478.9530448381443
0.0011311278765939214,2558.299217587
0.001175531073878369,2639.989969541417
0.0012216773489967915,2724.076822883351
0.0012696351276599736,2810.611164482665
0.0013194755216767058,2899.6435346234753
0.0013712724343984,2991.2235031751343
0.0014251026703029975,3085.3999756663407
0.0014810460488806749,3182.2202457818908
0.0015391855229902056,3281.730474380729
0.001599607301861487,3383.9751544513015
0.0016624009789266115,3488.996520538063
0.0017276596646690358,3596.835077530754
0.0017954801246878305,3707.528160792322
0.0018659629231817451,3821.1102982723387
0.001939212572065829,3937.6132394831625
0.0020153376859417325,4057.064967124825
0.002094451143151469,4179.490253308594
0.002176670253153458,4304.908897726008
0.002262116930469025,4433.3355144901725
0.002350917875457286,4564.780248267516
0.002443204762186487,4699.247269263848
0.0025391144336803463,4836.735420272894
0.002638789104828933,4977.236723358685
0.002742376573264949,5120.735196689885
0.0028500304385181063,5267.208132348165
0.0029619103297725525,5416.623759053561
0.0030781821425650787,5568.941885762811
0.003199018284775064,5724.113165056077
0.0033245979322709396,5882.0765705852755
0.003455107294592217,6042.761468153212
0.0035907398910610534,6206.08492804496
0.0037316968377327513,6371.951622716908
0.0038781871456107214,6540.253996735165
0.0040304280305680515,6710.866818955073
0.00418864523543527,6883.65099415639
0.004353073364731888,7058.452107015477
0.00452395623253805,7235.098939625872
0.004701547224022131,7413.404279079372
0.004886109671160325,7593.151729257323
0.005077917243205399,7774.102326270016
0.005277254352483535,7956.005884947233
0.005484416576121017,8138.608032269104
0.005699711094326071,8321.637024115042
0.005923457145875801,8504.749034777862
0.006155986501483508,8687.537125847444
0.006397643955748424,8869.576179885484
0.0066487878384172625,9050.442344188057
0.0069097905457156435,9229.697488467573
0.007181039092537346,9406.87899203525
0.007462935686310132,9581.498820912246
0.007755898323389004,9753.042641354856
0.00806036140886134,9920.921424298367
0.008376776400682916,10084.502723657308
0.008705612479099857,10243.117745815096
0.009047357242349292,10396.043659211133
0.00940251742967013,10542.534165652629
0.009771619672696168,10681.791204570949
0.010155211276345676,10812.978560242405
0.010553861030365234,10935.233893833094
0.010968160052731372,11047.626617473912
0.011398722666160517,11149.210828291785
0.011846187309026826,11238.989623504936
0.012311217482038896,11315.91223130025
0.012794502732078732,11378.93055482007
0.013296759674662111,11426.930913735114
0.013818733056536317,11458.803667865239
0.014361196859990781,11473.436644434374
0.014924955450518284,11469.677036915637
0.015510844769528393,11446.435903407215
0.016119733573881575,11402.608604168321
0.01675252472408214,11337.137781010944
0.017410156523040152,11249.06652829174
0.018093604107387147,11137.458663599822
0.01880388089340914,11001.543759064973
0.019542040079740527,10840.673563488179
0.02030917620904734,10654.34502275444
0.021106426791015535,10442.312769392947
0.021934973989050584,10204.513794748853
0.02279604637318978,9941.178975091434
0.023690920741826323,9652.86884241355
0.02462092401494623,9340.46569824757
0.02558743520168586,9005.230958549553
0.02659188744512693,8648.835484626019
0.027635770147361564,8273.32620709621
0.028720631177978267,7881.181199279616
0.029848079169243254,7475.448418167792
0.03101978590138095,7059.404524085975
0.03223748878149028,6636.678034509862
0.0335029934197723,6211.111746002529
0.03481817630688963,5786.6818281661635
0.03618498759642746,5368.469982497242
0.037605453996581675,4961.228138275857
0.03908168177536263,4568.791919992315
0.04061585988376978,4194.117534780683
0.04221026320156896,3839.8097387053645
0.04386725591048496,3510.3044913800363
0.0455892949998106,3209.3674980726087
0.047378933909631396,2939.0708650190377
0.049238826317067365,2700.20216920827
0.05117173007114603,2492.81593318474
0.05318051128214196,2316.4953718735446
0.05526814857144601,2170.0246266946583
0.057437737488265785,2051.7514290734766
0.0596924950997073,1959.3529404070707
0.0620357647610427,1890.141977744543
0.06447102107323864,1840.5576314699974
0.06700187503509585,1806.127617408013
0.06963207939763882,1781.4652191637515
0.0723655342286965,1760.579452919758
0.07520629269592405,1736.5016051971627
0.07815856707684081,1701.980850993115
0.08122673500479707,1650.7782166531663
0.08441534596012978,1578.5242504053151
0.0877291280161335,1483.447016128136
0.09117299484984914,1366.896120162498
0.09475205302806537,1233.5599016923384
0.09847160957933764,1091.157941563271
0.1023371798632519,949.3102397663872
0.10635449574860109,817.8419018884003
0.11052951411260206,705.0023738228729
0.1148684256737553,616.2438570980437
0.1193776641714435,553.8988845020579
0.1240639159058831,517.4548227287839
0.12893412965257148,503.81348439771403
0.13399552696593373,507.2118020424159
0.1392556128874462,519.0448273805714
0.14472218707411338,528.3401321119877
0.15040335536380234,523.7120888377177
0.15630754179458153,497.16580210343534
0.16244350109588662,448.2068931243934
0.16882033167003618,384.8484151245035
0.17544748908334581,320.05762420096255
0.1823348000868439,266.4218092947074
0.189492477187382,231.93189256661066
0.19693113379074215,218.02885816136856
0.20466179993919872,220.10203562429842
0.21269593866686892,228.79095972967878
0.22104546299710207,231.6141680035299
0.22972275360711503,218.58938498472386
0.23874067718606454,189.82273392014224
0.2481126055137766,156.0368232669971
0.25785243528842716,130.10670603431274
0.26797460873256895,118.34792545507965
0.27849413500806414,118.73289115554805
0.28942661247167484,122.30169010408271
0.3007882518043098,118.09039717903849
0.31259590004822796,103.03730908297163
0.324867065587837,85.09534590296435
0.3376199441111335,74.02291141766469
0.35087344559027084,71.9314993844175
0.36464722232127456,72.5889958549307
0.37896169806447155,67.92497214197492
0.3938380983288488,57.87008601202697
0.4092984818452433,49.7726166197394
0.4253657732750382,47.31982207121675
0.44206379720285277,46.489937012299485
0.45941731346364734,42.127372932658545
0.47745205385661277,36.192740783494486
0.4961947603002895,33.17347314708507
0.5156732244854959,31.97970407494002
0.5359163290848509,29.02962386990512
0.556954090580013,25.456629122938654
0.5788177037701272,23.68972006995109
0.6015395880274836,22.14793831886394
0.6251534353689703,19.736473729448594
0.6496942604146115,17.831105363793455
0.6751984523072497,16.30465602181335
0.7017038286703824,14.97128012937156
0.7292496916841444,13.718607324669444
0.7578768863625915,12.533228810063381
0.7876278611187046,11.424085079711713
0.8185467307069019,10.39655000990623
0.850679341636415,9.453013174521775
0.8840733401525058,8.593464298460537
0.9187782428863317,7.814614644651848
0.9548455102782278,7.108318063049217
0.9923286228832539,6.4666238806603555
1.0312831606721837,5.88262662914456
1.0717668854455022,5.350315217241084
1.1138398264826193,4.864447648495676
1.1575643695533022,4.420720243005852
1.2030053494233226,4.015799344657931
1.2502301459914542,3.6466248345553534
1.299308784200415,3.3103270998513676
1.3503140378698726,3.00422261753638
1.4033215376054824,2.725806923418512
1.4584098829439835,2.4726965255878097
1.5156607589006013,2.2426312680269054
1.575159057091621,2.0335459325520193
1.6369930016117014,1.8435583660474313
1.7012542798525885,1.6709533356945547
1.7680381784572046,1.5141682501520544
1.8374437246107238,1.3717864802467432
1.9095738328780953,1.2425208901580354
1.9845354578058014,1.1251954732538598
2.0624397525140905,1.018735987580678
2.143402233514853,0.922161556582811
2.227542951999554,0.8345767887731692
2.314986671851158,0.755163609746384
2.405863054644063,0.6831756905640324
2.5003068519063225,0.6179331365332282
2.598458104929248,0.5588167632590371
2.7004623524206774,0.5052628382737788
2.806470846309834,0.4567582471178758
2.916640776023701,0.4128360180966207
3.031135501567576,0.3730713586805918
3.150124795755327,0.337077981872475
3.2737850959485697,0.3045047082086798
3.4022997656780634,0.2750323579855145
3.5358593665351745,0.24837091477215076
3.6746619407366854,0.22425693869110216
3.8189133047818515,0.20245117470073207
3.968827354637162,0.18273638253721483
4.1246263829013445,0.1649153601424212
4.286541408420921,0.14880913934532355
4.4548125188449825,0.13425533375414692
4.629689226627261,0.12110663211430069
4.811430839003257,0.10922944364512276
5.000306842491082,0.09850264999390548
5.196597302486189,0.08881646564678128
5.400593278542364,0.08007139928724925
5.612597255954967,0.07217727837490309
5.8329235942862,0.06505238682683476
6.06189899349756,0.05862273696214899
6.29986297838068,0.052821354989102606
6.547168402004727,0.04758762682883527
6.804181968927091,0.042866705706462185
7.071284778942991,0.03860901330772509
7.348872892180382,0.034769730872836996
7.637357916378006,0.0313083020239953
7.937167617217536,0.028188033978386946
8.248746552614573,0.025375737360951854
8.572556731909314,0.02284139077002456
8.909078300934132,0.020557758839032464
9.258810253973934,0.018500193318183242
9.622271173675122,0.016646461755826614
9.999999999999984,0.014976511847950734
