k [1/Mpc],P(k) [Mpc^3]
0.0001,247.63443891337522
0.00010392556829367125,255.8717817822703
0.00010800523745162529,264.3830275510307
0.00011224505680853065,273.17725456841936
0.00011665131316981963,282.26383658751234
0.00012123054013376525,291.65246896400987
0.00012598952777950273,301.35317766174506
0.00013093533273536104,311.3763194895449
0.00013607528864243335,321.7325881212514
0.00014141701702890234,332.43302893705567
0.00014696843861124463,343.48904736351545
0.00015273778503907136,354.91241869512754
0.00015873361110102093,366.7153056725772
0.00016496480740980205,378.91027338921737
0.0001714406135851971,391.5103014569809
0.00017817063195457305,404.5287962965974
0.00018516484179121546,417.9796045680221
0.000192433614111598,431.8770262733549
0.00019998772705352857,446.23580310471533
0.0002078383818579757,461.07113621867927
0.00021599721947827182,476.39872668699593
0.0002244763378413224,492.23481211849315
0.0002332883097864157,508.5961666169945
0.00024244620170823283,525.5001010507008
0.0002519635929317015,542.9644757029643
0.0002618545958474233,561.0077246230826
0.0002721338768375308,579.6488380662751
0.0002828166780230032,598.9073990652927
0.0002939188398646886,618.803634204683
0.0003054568246515432,639.3584543146816
0.00031744774091091926,660.5934442924045
0.00032990936877709396,682.5308093570685
0.00034286018635565856,705.1934043094406
0.00035631939712285854,728.6048082067329
0.000370306958400514,752.789360004603
0.00038484361094874304,777.7721703731424
0.0003999509097203664,803.5791247013618
0.00041565125582259895,830.2368996945764
0.00043196792973341727,857.7729924702571
0.0004489251258218605,886.2156642104559
0.0004665479882234472,915.5940050122384
0.000484862648123908,945.9379830836704
0.000503896262506515,977.2784545737534
0.0005236770544204653,1009.6472040505399
0.0005442343548300266,1043.0769220638776
0.0005655986461065005,1077.601237488113
0.0005878016072274912,1113.254753756392
0.0006108761607505036,1150.0729997550532
0.0006348565216305217,1188.0925161851455
0.0006597782479539537,1227.3508378983731
0.0006856782936641739,1267.8864933942648
0.0007125950633568407,1309.7390863377445
0.0007405684692262436,1352.949244643653
0.0007696399902471156,1397.558686011511
0.0007998527336796708,1443.6102086644273
0.000831251498989063,1491.147625506501
0.0008638828442740447,1540.2158878457965
0.000897795155303332,1590.86095211663
0.0009330387172620361,1643.1298248737246
0.0009696657893145519,1697.070661897046
0.001007730682094461,1752.732673545332
0.0010472898382363582,1810.166230453058
0.0010884019160690055,1869.4226443941864
0.0011311278765939214,1930.5540774568317
0.001175531073878369,1993.6138064392105
0.0012216773489967915,2058.656084705174
0.0012696351276599736,2125.7362301260628
0.0013194755216767058,2194.9104400926885
0.0013712724343984,2266.2354623255137
0.0014251026703029975,2339.76896954091
0.0014810460488806749,2415.5691303119797
0.0015391855229902056,2493.6946639566454
0.001599607301861487,2574.2050303139663
0.0016624009789266115,2657.160080810025
0.0017276596646690358,2742.6202831733463
0.0017954801246878305,2830.646200422237
0.0018659629231817451,2921.2982320868623
0.001939212572065829,3014.6370272895265
0.0020153376859417325,3110.722688257105
0.002094451143151469,3209.615098036468
0.002176670253153458,3311.373874182472
0.002262116930469025,3416.0579163170346
0.002350917875457286,3523.725677193584
0.002443204762186487,3634.433866548725
0.0025391144336803463,3748.237532022775
0.002638789104828933,3865.190530217832
0.002742376573264949,3985.344731639235
0.0028500304385181063,4108.750387310013
0.0029619103297725525,4235.454926932665
0.0030781821425650787,4365.502348710621
0.003199018284775064,4498.934108537336
0.0033245979322709396,4635.788036395169
0.003455107294592217,4776.098605525209
0.0035907398910610534,4919.895831725322
0.0037316968377327513,5067.203504674826
0.0038781871456107214,5218.0408249101765
0.0040304280305680515,5372.42123619313
0.00418864523543527,5530.352330286068
0.004353073364731888,5691.835428188588
0.00452395623253805,5856.862823227673
0.004701547224022131,6025.419500083925
0.004886109671160325,6197.481490607881
0.005077917243205399,6373.014873811216
0.005277254352483535,6551.9770180931255
0.005484416576121017,6734.314094569546
0.005699711094326071,6919.961899232958
0.005923457145875801,7108.843169583364
0.006155986501483508,7300.863449620257
0.006397643955748424,7495.9161830925805
0.0066487878384172625,7693.887289920562
0.0069097905457156435,7894.653920310905
0.007181039092537346,8098.072358939189
0.007462935686310132,8303.953490920168
0.007755898323389004,8512.084451728739
0.00806036140886134,8722.242655966993
0.008376776400682916,8934.19776937318
0.008705612479099857,9147.703416018769
0.009047357242349292,9362.496932320098
0.00940251742967013,9578.29894951029
0.009771619672696168,9794.802478036516
0.010155211276345676,10011.661122183794
0.010553861030365234,10228.50582694982
0.010968160052731372,10444.940308794155
0.011398722666160517,10660.543130594595
0.011846187309026826,10874.87002842993
0.012311217482038896,11087.44684424963
0.012794502732078732,11297.777477957861
0.013296759674662111,11505.33954413043
0.013818733056536317,11709.583715442517
0.014361196859990781,11909.940905945503
0.014924955450518284,12105.813195614955
0.015510844769528393,12296.582631482015
0.016119733573881575,12481.613204539737
0.01675252472408214,12660.24810404186
0.017410156523040152,12831.81991867511
0.018093604107387147,12995.649659979052
0.01880388089340914,13151.051282876362
0.019542040079740527,13297.339420741044
0.02030917620904734,13433.835597158926
0.021106426791015535,13559.86962591213
0.021934973989050584,13674.791102533385
0.02279604637318978,13777.974909181554
0.023690920741826323,13868.822103907516
0.02462092401494623,13946.793959508334
0.02558743520168586,14011.394765170753
0.02659188744512693,14062.182642856784
0.027635770147361564,14098.79250789791
0.028720631177978267,14120.91252148619
0.029848079169243254,14128.376228069608
0.03101978590138095,14121.130207958615
0.03223748878149028,14099.147116137425
0.0335029934197723,14062.375170842484
0.03481817630688963,14010.808679959555
0.03618498759642746,13944.865859379237
0.037605453996581675,13865.42117786955
0.03908168177536263,13773.251699791874
0.04061585988376978,13668.278651960172
0.04221026320156896,13550.143747424785
0.04386725591048496,13419.017639780453
0.0455892949998106,13275.992420685887
0.047378933909631396,13122.232194345519
0.049238826317067365,12958.57705641757
0.05117173007114603,12785.664121522139
0.05318051128214196,12603.860609520156
0.05526814857144601,12412.659172667856
0.057437737488265785,12211.446881219605
0.0596924950997073,11999.701087813857
0.0620357647610427,11776.995724757662
0.06447102107323864,11543.147292558306
0.06700187503509585,11298.621940377916
0.06963207939763882,11044.096407142124
0.0723655342286965,10780.42895333279
0.07520629269592405,10508.568471665887
0.07815856707684081,10229.395574920562
0.08122673500479707,9943.806877238374
0.08441534596012978,9653.210770297037
0.0877291280161335,9359.387964688685
0.09117299484984914,9064.765596562504
0.09475205302806537,8771.653149691581
0.09847160957933764,8481.810378459586
0.1023371798632519,8195.808792490341
0.10635449574860109,7913.415471068789
0.11052951411260206,7633.979610603893
0.1148684256737553,7356.341044551642
0.1193776641714435,7081.082073437182
0.1240639159058831,6808.822076417405
0.12893412965257148,6536.41842947129
0.13399552696593373,6263.237085902333
0.1392556128874462,5990.936005867475
0.14472218707411338,5722.324787171951
0.15040335536380234,5460.569777004728
0.15630754179458153,5207.915004037653
0.16244350109588662,4965.00841828847
0.16882033167003618,4730.859057787347
0.17544748908334581,4503.646283023858
0.1823348000868439,4282.009266763149
0.189492477187382,4065.320698949816
0.19693113379074215,3853.5533725070136
0.20466179993919872,3648.121684896688
0.21269593866686892,3451.277493070713
0.22104546299710207,3263.5577908350597
0.22972275360711503,3083.912190666954
0.23874067718606454,2911.334476513189
0.2481126055137766,2744.9135588928134
0.25785243528842716,2584.8196595632985
0.26797460873256895,2432.027559219108
0.27849413500806414,2286.659976718726
0.28942661247167484,2148.248111345903
0.3007882518043098,2016.3001772039017
0.31259590004822796,1890.808966774961
0.324867065587837,1771.6344382028478
0.3376199441111335,1658.5345435442564
0.35087344559027084,1551.2576210032166
0.36464722232127456,1449.8612927081874
0.37896169806447155,1354.1248400308098
0.3938380983288488,1263.60060536479
0.4092984818452433,1178.1827108205666
0.4253657732750382,1097.8540550649402
0.44206379720285277,1022.1793080984468
0.45941731346364734,950.9825920868255
0.47745205385661277,884.2231087970575
0.4961947603002895,821.5013556747601
0.5156732244854959,762.696209245578
0.5359163290848509,707.6610131334393
0.556954090580013,656.0942688036703
0.5788177037701272,607.9456257930301
0.6015395880274836,562.9215691427268
0.6251534353689703,520.9432546163206
0.6496942604146115,481.77745172273734
0.6751984523072497,445.3119166542499
0.7017038286703824,411.34205479465743
0.7292496916841444,379.76225485677264
0.7578768863625915,350.38032018116667
0.7876278611187046,323.1064087984699
0.8185467307069019,297.7816756797177
0.850679341636415,274.29356514434386
0.8840733401525058,252.5265968497228
0.9187782428863317,232.36746945130398
0.9548455102782278,213.70950757296933
0.9923286228832539,196.45192504738742
1.0312831606721837,180.49961560142833
1.0717668854455022,165.76294162208947
1.1138398264826193,152.15756769203648
1.1575643695533022,139.60422009451037
1.2030053494233226,128.02840915878912
1.2502301459914542,117.36021589503342
1.299308784200415,107.53408254566
1.3503140378698726,98.4885793342829
1.4033215376054824,90.16615051266628
1.4584098829439835,82.51300868632863
1.5156607589006013,75.47895495375987
1.575159057091621,69.01718099584957
1.6369930016117014,63.08407665115215
1.7012542798525885,57.63902858203632
1.7680381784572046,52.6442543085025
1.8374437246107238,48.06464949850709
1.9095738328780953,43.86762363692621
1.9845354578058014,40.022942768722935
2.0624397525140905,36.50257329944062
2.143402233514853,33.280531489886286
2.227542951999554,30.33276819389476
2.314986671851158,27.637042965641463
2.405863054644063,25.172801392189154
2.5003068519063225,22.921058399978012
2.598458104929248,20.864279351209582
2.7004623524206774,18.986285797065214
2.806470846309834,17.272167503382157
2.916640776023701,15.708190820827454
3.031135501567576,14.281712750536188
3.150124795755327,12.981099681106814
3.2737850959485697,11.795651629070841
3.4022997656780634,10.715534487368126
3.5358593665351745,9.731714802805419
3.6746619407366854,8.835898689337789
3.8189133047818515,8.02047451956435
3.968827354637162,7.278456668754061
4.1246263829013445,6.603439849988216
4.286541408420921,5.989555928763379
4.4548125188449825,5.431431175523557
4.629689226627261,4.924146660734623
4.811430839003257,4.463201461866446
5.000306842491082,4.044478728873494
5.196597302486189,3.6642147007038406
5.400593278542364,3.3189697956117232
5.612597255954967,3.0056018956147956
5.8329235942862,2.7212414100559013
6.06189899349756,2.463266941321465
6.29986297838068,2.2292862973958782
6.547168402004727,2.017118181255149
6.804181968927091,1.8247742273359404
7.071284778942991,1.650442527004433
7.348872892180382,1.4924739904121718
7.637357916378006,1.3493685014990457
7.937167617217536,1.2197594461741803
8.248746552614573,1.1024020987241254
8.572556731909314,0.9961631815538714
8.909078300934132,0.9000100858228208
9.258810253973934,0.8129972605842702
9.622271173675122,0.7342647889609027
9.999999999999984,0.663033289001289
