k [1/Mpc],P(k) [Mpc^3]
0.0001,1694.4095106754685
0.00010392556829367125,1755.7919833677602
0.00010800523745162529,1819.3935608559316
0.00011224505680853065,1885.2940073510924
0.00011665131316981963,1953.575943497305
0.00012123054013376525,2024.3248286578573
0.00012598952777950273,2097.62888236346
0.00013093533273536104,2173.579386978992
0.00013607528864243335,2252.2709879937647
0.00014141701702890234,2333.8018014110094
0.00014696843861124463,2418.2733153220115
0.00015273778503907136,2505.7901847090884
0.00015873361110102093,2596.4605959310093
0.00016496480740980205,2690.396528360924
0.0001714406135851971,2787.713900290121
0.00017817063195457305,2888.5326032633507
0.00018516484179121546,2992.9763804847876
0.000192433614111598,3101.1730902779823
0.00019998772705352857,3213.254923543499
0.0002078383818579757,3329.3585194654465
0.00021599721947827182,3449.625091244337
0.0002244763378413224,3574.20003697521
0.0002332883097864157,3703.233214503684
0.00024244620170823283,3836.879478956378
0.0002519635929317015,3975.2989963101536
0.0002618545958474233,4118.657209417935
0.0002721338768375308,4267.124199270356
0.0002828166780230032,4420.874749931946
0.0002939188398646886,4580.089127065063
0.0003054568246515432,4744.953215471294
0.00031744774091091926,4915.658685849737
0.00032990936877709396,5092.402603868213
0.00034286018635565856,5275.387231145788
0.00035631939712285854,5464.8207375349875
0.000370306958400514,5660.916733259371
0.00038484361094874304,5863.894688007133
0.0003999509097203664,6073.980144189842
0.00041565125582259895,6291.4045195649605
0.00043196792973341727,6516.405517767757
0.0004489251258218605,6749.226047795365
0.0004665479882234472,6990.1144906592845
0.000484862648123908,7239.325323709585
0.000503896262506515,7497.118366127471
0.0005236770544204653,7763.759533633707
0.0005442343548300266,8039.52024241747
0.0005655986461065005,8324.67721335625
0.0005878016072274912,8619.513022168248
0.0006108761607505036,8924.314674960882
0.0006348565216305217,9239.374449411458
0.0006597782479539537,9564.988854694304
0.0006856782936641739,9901.457239195248
0.0007125950633568407,10249.083561496285
0.0007405684692262436,10608.174777118702
0.0007696399902471156,10979.0412410328
0.0007998527336796708,11361.995948957989
0.000831251498989063,11757.35166819957
0.0008638828442740447,12165.423177208548
0.000897795155303332,12586.523503718865
0.0009330387172620361,13020.963568757721
0.0009696657893145519,13469.053511644746
0.001007730682094461,13931.098056299197
0.0010472898382363582,14407.39904543998
0.0010884019160690055,14898.252714425624
0.0011311278765939214,15403.947517231589
0.001175531073878369,15924.765824732709
0.0012216773489967915,16460.976930567256
0.0012696351276599736,17012.8393646217
0.0013194755216767058,17580.599308085726
0.0013712724343984,18164.48584649311
0.0014251026703029975,18764.713984035163
0.0014810460488806749,19381.4765073682
0.0015391855229902056,20014.944407385225
0.001599607301861487,20665.26710789375
0.0016624009789266115,21332.56456493073
0.0017276596646690358,22016.931389026347
0.0017954801246878305,22718.42953811138
0.0018659629231817451,23437.085677793955
0.001939212572065829,24172.89300265995
0.0020153376859417325,24925.799514515445
0.002094451143151469,25695.712805904077
0.002176670253153458,26482.495078260596
0.002262116930469025,27285.957085207665
0.002350917875457286,28105.86195736388
0.002443204762186487,28941.91157611639
0.0025391144336803463,29793.749691273126
0.002638789104828933,30660.95745972102
0.002742376573264949,31543.03969130697
0.0028500304385181063,32439.435561188635
0.0029619103297725525,33349.50218256129
0.0030781821425650787,34272.51502792084
0.003199018284775064,35207.66858029411
0.0033245979322709396,36154.04989741932
0.003455107294592217,37110.658467317655
0.0035907398910610534,38076.3971843135
0.0037316968377327513,39050.06760042188
0.0038781871456107214,40030.36305366446
0.0040304280305680515,41015.768455019286
0.00418864523543527,42004.62535013333
0.004353073364731888,42995.273070401854
0.00452395623253805,43986.13397822348
0.004701547224022131,44975.503543436185
0.004886109671160325,45960.94392233805
0.005077917243205399,46939.51364434525
0.005277254352483535,47908.32945544313
0.005484416576121017,48864.966532901446
0.005699711094326071,49806.98237660618
0.005923457145875801,50731.28253245687
0.006155986501483508,51634.16665423375
0.006397643955748424,52511.88413647249
0.0066487878384172625,53360.97842929518
0.0069097905457156435,54178.02160478439
0.007181039092537346,54959.09539773355
0.007462935686310132,55699.65107177957
0.007755898323389004,56394.986937489215
0.00806036140886134,57039.98182987619
0.008376776400682916,57629.334012463005
0.008705612479099857,58157.60784697879
0.009047357242349292,58619.12761114664
0.00940251742967013,59008.226669847325
0.009771619672696168,59318.75609921907
0.010155211276345676,59544.36007271391
0.010553861030365234,59678.670718637244
0.010968160052731372,59714.81674451868
0.011398722666160517,59646.17614516938
0.011846187309026826,59465.90737392319
0.012311217482038896,59167.098597197735
0.012794502732078732,58743.3616467185
0.013296759674662111,58187.91664813103
0.013818733056536317,57494.74687285791
0.014361196859990781,56658.23942199127
0.014924955450518284,55672.97044108953
0.015510844769528393,54535.09235328588
0.016119733573881575,53240.932073127355
0.01675252472408214,51788.43608532395
0.017410156523040152,50177.32179147184
0.018093604107387147,48408.072571531746
0.01880388089340914,46484.37854283716
0.019542040079740527,44411.284046338995
0.02030917620904734,42196.46524622939
0.021106426791015535,39851.33824741295
0.021934973989050584,37388.72105099811
0.02279604637318978,34826.137727294554
0.023690920741826323,32183.544571320595
0.02462092401494623,29483.48234231232
0.02558743520168586,26753.315486030653
0.02659188744512693,24021.197447930328
0.027635770147361564,21318.99623677348
0.028720631177978267,18679.44024542276
0.029848079169243254,16133.960357123622
0.03101978590138095,13716.194711764729
0.03223748878149028,11457.697403095517
0.0335029934197723,9387.330651731201
0.03481817630688963,7527.0059058665765
0.03618498759642746,5888.125660858249
0.037605453996581675,4479.377620097977
0.03908168177536263,3307.009758434585
0.04061585988376978,2366.1578730361534
0.04221026320156896,1639.6093475547402
0.04386725591048496,1100.577919988176
0.0455892949998106,719.6544333389783
0.047378933909631396,465.11997149702546
0.049238826317067365,306.51066324758744
0.05117173007114603,217.0057332538123
0.05318051128214196,175.608135983596
0.05526814857144601,171.718590214948
0.057437737488265785,201.50824984377462
0.0596924950997073,270.7889843679801
0.0620357647610427,387.094164424508
0.06447102107323864,556.9649318940096
0.06700187503509585,778.4772645506861
0.06963207939763882,1037.041864062043
0.0723655342286965,1303.659603567596
0.07520629269592405,1537.441880956009
0.07815856707684081,1692.658215584256
0.08122673500479707,1730.5128078692296
0.08441534596012978,1631.548644869816
0.0877291280161335,1405.447398349244
0.09117299484984914,1092.2244706932522
0.09475205302806537,752.3928733305822
0.09847160957933764,448.29158848334174
0.1023371798632519,223.63061967811925
0.10635449574860109,90.52067671100373
0.11052951411260206,30.538373281342864
0.1148684256737553,12.365954366463123
0.1193776641714435,13.902925568917532
0.1240639159058831,36.25885017160021
0.12893412965257148,97.22038495607579
0.13399552696593373,204.37827069632073
0.1392556128874462,330.3759585043089
0.14472218707411338,418.4065730051659
0.15040335536380234,417.19110816248536
0.15630754179458153,321.7162911423086
0.16244350109588662,184.64445207669934
0.16882033167003618,74.66604984384874
0.17544748908334581,21.103930735821404
0.1823348000868439,7.428914126600081
0.189492477187382,12.565069931258696
0.19693113379074215,41.84018306791545
0.20466179993919872,99.1391739093169
0.21269593866686892,147.81545438174078
0.22104546299710207,139.96725504274886
0.22972275360711503,82.77811514581084
0.23874067718606454,29.849159709686738
0.2481126055137766,9.221405532157837
0.25785243528842716,9.819774503576774
0.26797460873256895,28.11671972661449
0.27849413500806414,56.88763586327905
0.28942661247167484,61.56979386695743
0.3007882518043098,35.05308918924317
0.31259590004822796,12.365232872123132
0.324867065587837,7.766033592163449
0.3376199441111335,16.453045181869747
0.35087344559027084,29.78084623010617
0.36464722232127456,26.122130179330657
0.37896169806447155,11.957256679925532
0.3938380983288488,6.838331985661753
0.4092984818452433,11.336349232995921
0.4253657732750382,16.72885440621083
0.44206379720285277,11.740310368686023
0.45941731346364734,6.153466380000828
0.47745205385661277,7.1762073680453105
0.4961947603002895,9.948892345280012
0.5156732244854959,7.2310401345621855
0.5359163290848509,4.983478985188254
0.556954090580013,5.397449065898403
0.5788177037701272,5.24592193153567
0.6015395880274836,4.668501780213967
0.6251534353689703,4.050421673892442
0.6496942604146115,3.592619959790473
0.6751984523072497,3.261120403204652
0.7017038286703824,3.0060713125525664
0.7292496916841444,2.792164428487094
0.7578768863625915,2.5931303101696375
0.7876278611187046,2.3897171203261
0.8185467307069019,2.178913069761597
0.850679341636415,1.970747915871318
0.8840733401525058,1.7733058646023214
0.9187782428863317,1.5920667283835765
0.9548455102782278,1.4303013987917506
0.9923286228832539,1.2891684223765778
1.0312831606721837,1.1659290237502484
1.0717668854455022,1.057015704280125
1.1138398264826193,0.9596244290455486
1.1575643695533022,0.8715560802137581
1.2030053494233226,0.7910927944884987
1.2502301459914542,0.7171268601525495
1.299308784200415,0.649330371971204
1.3503140378698726,0.587439372643836
1.4033215376054824,0.5311466312651131
1.4584098829439835,0.48011612949730154
1.5156607589006013,0.4339925490697193
1.575159057091621,0.3923498459360402
1.6369930016117014,0.35472673528978776
1.7012542798525885,0.32071097844880997
1.7680381784572046,0.2899368710830249
1.8374437246107238,0.26207948811599496
1.9095738328780953,0.2368516987169366
1.9845354578058014,0.21400952357139652
2.0624397525140905,0.19333599062418147
2.143402233514853,0.17463257250054287
2.227542951999554,0.15771777994677633
2.314986671851158,0.1424258543450017
2.405863054644063,0.12860457424873134
2.5003068519063225,0.11611331564175237
2.598458104929248,0.10482457032909505
2.7004623524206774,0.09462307006594066
2.806470846309834,0.08540460409232092
2.916640776023701,0.0770749706858995
3.031135501567576,0.0695493475159341
3.150124795755327,0.06275123658992711
3.2737850959485697,0.05661129256393161
3.4022997656780634,0.051066656498776807
3.5358593665351745,0.0460603639303201
3.6746619407366854,0.04154077844652203
3.8189133047818515,0.037460989822220875
3.968827354637162,0.0337785187796655
4.1246263829013445,0.030454962665412005
4.286541408420921,0.02745560640585745
4.4548125188449825,0.02474907048840576
4.629689226627261,0.022307019000660826
4.811430839003257,0.02010388681773696
5.000306842491082,0.018116553503359348
5.196597302486189,0.01632410563692493
5.400593278542364,0.014707629654814116
5.612597255954967,0.013250022616488274
5.8329235942862,0.011935804658487271
6.06189899349756,0.010750975136555123
6.29986297838068,0.009682889775116695
6.547168402004727,0.008720130774435873
6.804181968927091,0.007852388726888234
7.071284778942991,0.007070357429655418
7.348872892180382,0.00636564291242511
7.637357916378006,0.005730667639224053
7.937167617217536,0.005158589098489925
8.248746552614573,0.004643229360423668
8.572556731909314,0.004179011241182878
8.909078300934132,0.00376089475089725
9.258810253973934,0.0033843226448329977
9.622271173675122,0.003045186006067729
9.999999999999984,0.0027397814577473927
