k [1/Mpc],P(k) [Mpc^3]
0.0001,21.772073386035885
0.00010392556829367125,22.757673918864292
0.00010800523745162529,23.78788195470616
0.00011224505680853065,24.86471369277896
0.00011665131316981963,25.99027643739519
0.00012123054013376525,27.16677363586323
0.00012598952777950273,28.396508520072846
0.00013093533273536104,29.681887668586178
0.00013607528864243335,31.02542533991613
0.00014141701702890234,32.42974916631634
0.00014696843861124463,33.897606015059985
0.00015273778503907136,35.431866997296055
0.00015873361110102093,37.03553271243089
0.00016496480740980205,38.71173902944593
0.0001714406135851971,40.463763005932634
0.00017817063195457305,42.29502663586247
0.00018516484179121546,44.20910386450802
0.000192433614111598,46.209729991038344
0.00019998772705352857,48.30081128056566
0.0002078383818579757,50.48643032495419
0.00021599721947827182,52.77085005293577
0.0002244763378413224,55.15852116554003
0.0002332883097864157,57.65409382659116
0.00024244620170823283,60.26242823656934
0.0002519635929317015,62.98860294293395
0.0002618545958474233,65.83792273488153
0.0002721338768375308,68.81592773382847
0.0002828166780230032,71.92840518663421
0.0002939188398646886,75.1813984215146
0.0003054568246515432,78.58121894408005
0.00031744774091091926,82.13445764064531
0.00032990936877709396,85.84799422595226
0.00034286018635565856,89.72901297696986
0.00035631939712285854,93.78501650197316
0.000370306958400514,98.02383963099899
0.00038484361094874304,102.45366174832425
0.0003999509097203664,107.08301459738895
0.00041565125582259895,111.92080310168734
0.00043196792973341727,116.97632295396997
0.0004489251258218605,122.25927718997205
0.0004665479882234472,127.77979233160364
0.000484862648123908,133.5484258092845
0.000503896262506515,139.57618983785446
0.0005236770544204653,145.87457044425153
0.0005442343548300266,152.45554234181733
0.0005655986461065005,159.33159592283354
0.0005878016072274912,166.51575717851117
0.0006108761607505036,174.02161045056204
0.0006348565216305217,181.86331342120246
0.0006597782479539537,190.05559933564544
0.0006856782936641739,198.6138200155142
0.0007125950633568407,207.55397016919972
0.0007405684692262436,216.89271227108313
0.0007696399902471156,226.6474040214271
0.0007998527336796708,236.83611051692972
0.000831251498989063,247.47764165766517
0.0008638828442740447,258.59156236398337
0.000897795155303332,270.1982054585027
0.0009330387172620361,282.318726572378
0.0009696657893145519,294.9751161957121
0.001007730682094461,308.1902386631798
0.0010472898382363582,321.9878507563338
0.0010884019160690055,336.3925981091011
0.0011311278765939214,351.4300834070817
0.001175531073878369,367.1268666650063
0.0012216773489967915,383.5105006244578
0.0012696351276599736,400.6095659074055
0.0013194755216767058,418.45363082211753
0.0013712724343984,437.07333831507265
0.0014251026703029975,456.5003777203313
0.0014810460488806749,476.7674866371969
0.0015391855229902056,497.9085458357491
0.001599607301861487,519.9585464739403
0.0016624009789266115,542.9536527288345
0.0017276596646690358,566.9311593718934
0.0017954801246878305,591.9294201932458
0.0018659629231817451,617.9879889557589
0.001939212572065829,645.1475318388858
0.0020153376859417325,673.4498760788049
0.002094451143151469,702.9380035074496
0.002176670253153458,733.6558753487446
0.002262116930469025,765.648605892631
0.002350917875457286,798.9623700819902
0.002443204762186487,833.6443872706177
0.0025391144336803463,869.7429442297106
0.002638789104828933,907.307085062068
0.002742376573264949,946.3867876263372
0.0028500304385181063,987.0328420511202
0.0029619103297725525,1029.2967020340463
0.0030781821425650787,1073.2305968427022
0.003199018284775064,1118.8871104332056
0.0033245979322709396,1166.3192783933446
0.003455107294592217,1215.5804568231251
0.0035907398910610534,1266.7239132663472
0.0037316968377327513,1319.8030556530668
0.0038781871456107214,1374.8707893604285
0.0040304280305680515,1431.9794599607635
0.00418864523543527,1491.1809151944503
0.004353073364731888,1552.5258556993297
0.00452395623253805,1616.0640408183376
0.004701547224022131,1681.8433451354288
0.004886109671160325,1749.9092922106827
0.005077917243205399,1820.3054788821237
0.005277254352483535,1893.0725452364911
0.005484416576121017,1968.2483523663975
0.005699711094326071,2045.8664171996877
0.005923457145875801,2125.954179979819
0.006155986501483508,2208.5349333339427
0.006397643955748424,2293.62945242028
0.0066487878384172625,2381.2550695656178
0.0069097905457156435,2471.4193283126187
0.007181039092537346,2564.1100912918278
0.007462935686310132,2659.304907711259
0.007755898323389004,2756.979217936556
0.00806036140886134,2857.105994670502
0.008376776400682916,2959.646182520577
0.008705612479099857,3064.534361626135
0.009047357242349292,3171.688271584935
0.00940251742967013,3281.0162317251024
0.009771619672696168,3392.4185375684506
0.010155211276345676,3505.7802004189994
0.010553861030365234,3620.955091166385
0.010968160052731372,3737.7727771952405
0.011398722666160517,3856.0397463075024
0.011846187309026826,3975.5329835091884
0.012311217482038896,4096.006862330815
0.012794502732078732,4217.186549869856
0.013296759674662111,4338.769506470896
0.013818733056536317,4460.424646936728
0.014361196859990781,4581.77855531285
0.014924955450518284,4702.428722189269
0.015510844769528393,4821.934744430034
0.016119733573881575,4939.817318188503
0.01675252472408214,5055.568024770022
0.017410156523040152,5168.633263106228
0.018093604107387147,5278.429327502438
0.01880388089340914,5384.339777085392
0.019542040079740527,5485.710186906669
0.02030917620904734,5581.867262772453
0.021106426791015535,5672.10780140797
0.021934973989050584,5755.712181535218
0.02279604637318978,5831.956628027022
0.023690920741826323,5900.1143156692
0.02462092401494623,5959.4705736870255
0.02558743520168586,6009.331837078831
0.02659188744512693,6049.034321057243
0.027635770147361564,6077.970691959819
0.028720631177978267,6095.651643062412
0.029848079169243254,6101.662609645825
0.03101978590138095,6095.6475261437145
0.03223748878149028,6077.313909313088
0.0335029934197723,6046.527714304483
0.03481817630688963,6003.770454489745
0.03618498759642746,5949.800373060168
0.037605453996581675,5885.17407966875
0.03908168177536263,5810.023538634384
0.04061585988376978,5724.581405456496
0.04221026320156896,5630.111832394038
0.04386725591048496,5528.4744553965975
0.0455892949998106,5421.430523906653
0.047378933909631396,5310.542622750738
0.049238826317067365,5197.299481221604
0.05117173007114603,5083.596319022557
0.05318051128214196,4971.54303387713
0.05526814857144601,4862.96870412055
0.057437737488265785,4759.382647105072
0.0596924950997073,4661.943549908768
0.0620357647610427,4571.341166140183
0.06447102107323864,4487.833478822537
0.06700187503509585,4411.137138232979
0.06963207939763882,4340.395710761966
0.0723655342286965,4274.211245849196
0.07520629269592405,4210.518977127491
0.07815856707684081,4146.706759051532
0.08122673500479707,4079.565287510247
0.08441534596012978,4005.496887849373
0.0877291280161335,3920.9172518536147
0.09117299484984914,3822.7046707734
0.09475205302806537,3708.8138767938376
0.09847160957933764,3578.894465894979
0.1023371798632519,3434.355756029606
0.10635449574860109,3278.5140478784624
0.11052951411260206,3116.4061694236825
0.1148684256737553,2954.1476027584886
0.1193776641714435,2798.8702762865296
0.1240639159058831,2657.8032220181435
0.12893412965257148,2535.6042191587326
0.13399552696593373,2434.9241586830285
0.1392556128874462,2355.171109169117
0.14472218707411338,2292.2297397347565
0.15040335536380234,2238.9204487808715
0.15630754179458153,2185.968693140705
0.16244350109588662,2123.7156938997937
0.16882033167003618,2044.5531781090003
0.17544748908334581,1945.4897402693598
0.1823348000868439,1829.7719173106823
0.189492477187382,1706.7707194225904
0.19693113379074215,1589.606720216807
0.20466179993919872,1490.480798945573
0.21269593866686892,1415.6675319667036
0.22104546299710207,1363.1989294974737
0.22972275360711503,1323.4205650259248
0.23874067718606454,1281.8320684702537
0.2481126055137766,1225.626332763111
0.25785243528842716,1151.4382585066921
0.26797460873256895,1067.319656257125
0.27849413500806414,988.0152515005294
0.28942661247167484,926.1156344838121
0.3007882518043098,883.869647703092
0.31259590004822796,851.6778956863764
0.324867065587837,814.5137762584108
0.3376199441111335,764.0781243217536
0.35087344559027084,706.0983157604145
0.36464722232127456,654.6693867604752
0.37896169806447155,617.9928014473554
0.3938380983288488,590.383035503214
0.4092984818452433,559.3649354612103
0.4253657732750382,520.2741076462204
0.44206379720285277,481.1737421249085
0.45941731346364734,451.07577299117884
0.47745205385661277,427.6345636235956
0.4961947603002895,401.6885307863708
0.5156732244854959,372.2070185210991
0.5359163290848509,346.4098127035004
0.556954090580013,326.02975236301285
0.5788177037701272,305.39992480775027
0.6015395880274836,283.2131006031338
0.6251534353689703,263.98384273119314
0.6496942604146115,247.30041907399612
0.6751984523072497,230.0103191897647
0.7017038286703824,213.68713777687523
0.7292496916841444,199.4774958929162
0.7578768863625915,185.45534684449729
0.7876278611187046,172.2527861834988
0.8185467307069019,160.36267635143224
0.850679341636415,149.16122737939347
0.8840733401525058,138.54960196322907
0.9187782428863317,128.55248775216594
0.9548455102782278,119.18202084499899
0.9923286228832539,110.43970764831629
1.0312831606721837,102.31726783895523
1.0717668854455022,94.78188617329567
1.1138398264826193,87.78590224622222
1.1575643695533022,81.28584109207686
1.2030053494233226,75.24253278303476
1.2502301459914542,69.62063221651988
1.299308784200415,64.38926859591979
1.3503140378698726,59.524360271603506
1.4033215376054824,55.00398042346548
1.4584098829439835,50.807059527947644
1.5156607589006013,46.91340812962701
1.575159057091621,43.30371259388203
1.6369930016117014,39.95904926149604
1.7012542798525885,36.861000989946305
1.7680381784572046,33.99231868414283
1.8374437246107238,31.336888004845388
1.9095738328780953,28.879659988185033
1.9845354578058014,26.60661033111226
2.0624397525140905,24.504772390026275
2.143402233514853,22.562053149792295
2.227542951999554,20.76713354622306
2.314986671851158,19.109426687879445
2.405863054644063,17.579037253916603
2.5003068519063225,16.16670375580041
2.598458104929248,14.863759781517237
2.7004623524206774,13.662131191597549
2.806470846309834,12.554302021066073
2.916640776023701,11.533279385506354
3.031135501567576,10.592560448398434
3.150124795755327,9.726102011962201
3.2737850959485697,8.928289792780655
3.4022997656780634,8.1939098590987
3.5358593665351745,7.51812236156316
3.6746619407366854,6.896436769195711
3.8189133047818515,6.324687359770527
3.968827354637162,5.799010676943597
4.1246263829013445,5.315827551973354
4.286541408420921,4.87182383778022
4.4548125188449825,4.4639320243552625
4.629689226627261,4.089313947601142
4.811430839003257,3.7453440960217486
5.000306842491082,3.4295950276138583
5.196597302486189,3.1398236934174264
5.400593278542364,2.873958190444959
5.612597255954967,2.6300853887348032
5.8329235942862,2.4064388453888443
6.06189899349756,2.201387448429207
6.29986297838068,2.0134269274717407
6.547168402004727,1.8411706524822455
6.804181968927091,1.6833408172682072
7.071284778942991,1.5387603743445657
7.348872892180382,1.4063470659270898
7.637357916378006,1.2851052512415517
7.937167617217536,1.174117761856451
8.248746552614573,1.0725399916713076
8.572556731909314,0.9795944406205852
8.909078300934132,0.8945637848248333
9.258810253973934,0.8167826152446795
9.622271173675122,0.7456398378512631
9.999999999999984,0.6805756997016159
