k [1/Mpc],P(k) [Mpc^3]
0.0001,578.7453940315785
0.00010392556829367125,597.9951113998163
0.00010800523745162529,617.8846511543447
0.00011224505680853065,638.4352088187673
0.00011665131316981963,659.6686774998069
0.00012123054013376525,681.6076906945011
0.00012598952777950273,704.2756417003574
0.00013093533273536104,727.6966893196636
0.00013607528864243335,751.8957650772363
0.00014141701702890234,776.898615499262
0.00014696843861124463,802.7318246206381
0.00015273778503907136,829.4228400751822
0.00015873361110102093,857.0000056270297
0.00016496480740980205,885.4925758515571
0.0001714406135851971,914.9307557097618
0.00017817063195457305,945.3457416145782
0.00018516484179121546,976.7697570622345
0.000192433614111598,1009.2360722181601
0.00019998772705352857,1042.7789825543837
0.0002078383818579757,1077.4338634952535
0.00021599721947827182,1113.237239371868
0.0002244763378413224,1150.2268295530864
0.0002332883097864157,1188.4415724802604
0.00024244620170823283,1227.9216181903655
0.0002519635929317015,1268.708368761595
0.0002618545958474233,1310.8445352671424
0.0002721338768375308,1354.374124397589
0.0002828166780230032,1399.3425220818697
0.0002939188398646886,1445.796535112343
0.0003054568246515432,1493.7844267330186
0.00031744774091091926,1543.3559735642718
0.00032990936877709396,1594.5624721660952
0.00034286018635565856,1647.4568050556547
0.00035631939712285854,1702.0934130625715
0.000370306958400514,1758.528229285556
0.00038484361094874304,1816.8188724059387
0.0003999509097203664,1877.0247027073135
0.00041565125582259895,1939.2068736038607
0.00043196792973341727,2003.4283432683621
0.0004489251258218605,2069.7538059493377
0.0004665479882234472,2138.2498440010236
0.000484862648123908,2208.9848788487593
0.000503896262506515,2282.0291926424125
0.0005236770544204653,2357.455052228461
0.0005442343548300266,2435.3365345724496
0.0005655986461065005,2515.749717866056
0.0005878016072274912,2598.7727731190157
0.0006108761607505036,2684.485977387773
0.0006348565216305217,2772.97177361091
0.0006597782479539537,2864.314422715053
0.0006856782936641739,2958.6001826553634
0.0007125950633568407,3055.91750299431
0.0007405684692262436,3156.356943510845
0.0007696399902471156,3260.0113213345635
0.0007998527336796708,3366.975383950215
0.000831251498989063,3477.345834031322
0.0008638828442740447,3591.2215433088245
0.000897795155303332,3708.70311825378
0.0009330387172620361,3829.8932597880575
0.0009696657893145519,3954.8965635289255
0.001007730682094461,4083.8193361659623
0.0010472898382363582,4216.7699075706605
0.0010884019160690055,4353.85790757607
0.0011311278765939214,4495.194605045111
0.001175531073878369,4640.892684389457
0.0012216773489967915,4791.0654699383385
0.0012696351276599736,4945.827733743104
0.0013194755216767058,5105.294835515021
0.0013712724343984,5269.582800057741
0.0014251026703029975,5438.808475883738
0.0014810460488806749,5613.088324661455
0.0015391855229902056,5792.539240251548
0.001599607301861487,5977.277296426624
0.0016624009789266115,6167.417199023237
0.0017276596646690358,6363.073283721883
0.0017954801246878305,6564.358134775226
0.0018659629231817451,6771.383122902681
0.001939212572065829,6984.257254369745
0.0020153376859417325,7203.085582485487
0.002094451143151469,7427.970770655804
0.002176670253153458,7659.011094878567
0.002262116930469025,7896.300706744551
0.002350917875457286,8139.929199546885
0.002443204762186487,8389.978787162805
0.0025391144336803463,8646.526268059195
0.002638789104828933,8909.641014778763
0.002742376573264949,9179.384364010823
0.0028500304385181063,9455.80993326371
0.0029619103297725525,9738.95922714665
0.0030781821425650787,10028.863849347359
0.003199018284775064,10325.543556748005
0.0033245979322709396,10629.004031083981
0.003455107294592217,10939.238734066448
0.0035907398910610534,11256.22302023566
0.0037316968377327513,11579.915867923024
0.0038781871456107214,11910.259329778126
0.0040304280305680515,12247.17409583584
0.00418864523543527,12590.56260479357
0.004353073364731888,12940.300758411666
0.00452395623253805,13296.238114562164
0.004701547224022131,13658.200511884967
0.004886109671160325,14025.981899523316
0.005077917243205399,14399.349459526782
0.005277254352483535,14778.030043142313
0.005484416576121017,15161.70450597685
0.005699711094326071,15550.025238517088
0.005923457145875801,15942.631261136197
0.006155986501483508,16339.13844223136
0.006397643955748424,16739.077185713868
0.0066487878384172625,17141.835426026926
0.0069097905457156435,17546.7493773895
0.007181039092537346,17953.176909659458
0.007462935686310132,18360.47894424686
0.007755898323389004,18767.9372049656
0.00806036140886134,19174.65939976506
0.008376776400682916,19579.678806767366
0.008705612479099857,19982.01804379519
0.009047357242349292,20380.693728797385
0.00940251742967013,20774.65553134638
0.009771619672696168,21162.67245131019
0.010155211276345676,21543.419621459616
0.010553861030365234,21915.476688477003
0.010968160052731372,22277.302867385035
0.011398722666160517,22627.29818840189
0.011846187309026826,22963.759859259182
0.012311217482038896,23284.916723285853
0.012794502732078732,23588.912198388778
0.013296759674662111,23873.728315097414
0.013818733056536317,24137.30331744169
0.014361196859990781,24377.453005694577
0.014924955450518284,24591.904903151277
0.015510844769528393,24778.365660607928
0.016119733573881575,24934.412275401897
0.01675252472408214,25057.637876448625
0.017410156523040152,25145.597035965875
0.018093604107387147,25195.799726083624
0.01880388089340914,25205.864314899947
0.019542040079740527,25173.39875231083
0.02030917620904734,25096.150442073515
0.021106426791015535,24972.037702342604
0.021934973989050584,24799.106283001365
0.02279604637318978,24575.7234101877
0.023690920741826323,24300.55737986425
0.02462092401494623,23972.654430920255
0.02558743520168586,23591.52975724989
0.02659188744512693,23157.18218205015
0.027635770147361564,22670.161190304338
0.028720631177978267,22131.865896864987
0.029848079169243254,21544.528666184902
0.03101978590138095,20910.910852914643
0.03223748878149028,20234.298847765443
0.0335029934197723,19518.467869707154
0.03481817630688963,18769.21520069261
0.03618498759642746,17994.93928586651
0.037605453996581675,17203.641140445947
0.03908168177536263,16401.132670017567
0.04061585988376978,15592.106084800962
0.04221026320156896,14782.927150155763
0.04386725591048496,13983.858987710475
0.0455892949998106,13204.361853410275
0.047378933909631396,12453.572354907226
0.049238826317067365,11739.548694528909
0.05117173007114603,11069.163089939595
0.05318051128214196,10448.31950658218
0.05526814857144601,9881.011381532539
0.057437737488265785,9369.545800303717
0.0596924950997073,8914.497000573387
0.0620357647610427,8514.89217040373
0.06447102107323864,8167.827436767399
0.06700187503509585,7868.914440444627
0.06963207939763882,7611.662958577072
0.0723655342286965,7387.75756338772
0.07520629269592405,7186.666986636865
0.07815856707684081,6995.81391625705
0.08122673500479707,6801.472980483633
0.08441534596012978,6589.815010019576
0.0877291280161335,6348.605991010518
0.09117299484984914,6068.767762180223
0.09475205302806537,5746.765413256339
0.09847160957933764,5385.323988385382
0.1023371798632519,4991.17768193628
0.10635449574860109,4577.2597951759435
0.11052951411260206,4161.825145184363
0.1148684256737553,3765.7481649407887
0.1193776641714435,3409.4480110378863
0.1240639159058831,3109.048890148857
0.12893412965257148,2873.641614340598
0.13399552696593373,2704.1526848985
0.1392556128874462,2593.286999728731
0.14472218707411338,2525.89642121432
0.15040335536380234,2480.0153842439345
0.15630754179458153,2429.6020030403092
0.16244350109588662,2349.6217138684115
0.16882033167003618,2222.951555202306
0.17544748908334581,2047.3676893247648
0.1823348000868439,1838.8208802356144
0.189492477187382,1626.5454233829973
0.19693113379074215,1441.2405872684265
0.20466179993919872,1304.5947312636076
0.21269593866686892,1223.491849366979
0.22104546299710207,1187.1507815186835
0.22972275360711503,1169.2782225414007
0.23874067718606454,1137.723304184313
0.2481126055137766,1069.1782680569418
0.25785243528842716,963.4259050344418
0.26797460873256895,845.0075738153274
0.27849413500806414,746.3640203964388
0.28942661247167484,687.0097445434036
0.3007882518043098,662.406419642539
0.31259590004822796,647.62975970203
0.324867065587837,614.1519785606315
0.3376199441111335,553.63816595982
0.35087344559027084,485.71112949285566
0.36464722232127456,436.6591454282754
0.37896169806447155,413.71384879398414
0.3938380983288488,399.6331959628089
0.4092984818452433,372.3682393707474
0.4253657732750382,331.26263631875327
0.44206379720285277,295.74606974949376
0.45941731346364734,276.8852179969683
0.47745205385661277,263.5854665070156
0.4961947603002895,241.41486994098483
0.5156732244854959,215.2685240657712
0.5359163290848509,197.83013967918137
0.556954090580013,186.3492332538169
0.5788177037701272,170.5924695401455
0.6015395880274836,153.44874036245182
0.6251534353689703,141.93678802572003
0.6496942604146115,131.6364014835989
0.6751984523072497,119.13683614959848
0.7017038286703824,109.10530893332394
0.7292496916841444,100.73135469640067
0.7578768863625915,91.60705287953132
0.7876278611187046,83.36981274203002
0.8185467307069019,76.11940723004038
0.850679341636415,69.65276712601631
0.8840733401525058,63.80981785043828
0.9187782428863317,58.46453999852037
0.9548455102782278,53.51897398887862
0.9923286228832539,48.92254168471585
1.0312831606721837,44.66715308987493
1.0717668854455022,40.74383213219428
1.1138398264826193,37.140361410128065
1.1575643695533022,33.84210273247776
1.2030053494233226,30.832235253651636
1.2502301459914542,28.087819541241167
1.299308784200415,25.584245055805233
1.3503140378698726,23.299363911168285
1.4033215376054824,21.213274647869515
1.4584098829439835,19.308070245427306
1.5156607589006013,17.567818503873042
1.575159057091621,15.978921040329752
1.6369930016117014,14.529039603829585
1.7012542798525885,13.206733080425803
1.7680381784572046,12.001405866848026
1.8374437246107238,10.903256859064374
1.9095738328780953,9.90316503403442
1.9845354578058014,8.992618247648014
2.0624397525140905,8.163807567745012
2.143402233514853,7.409585543140636
2.227542951999554,6.723411957329429
2.314986671851158,6.099304607606017
2.405863054644063,5.53180430830459
2.5003068519063225,5.015925556713595
2.598458104929248,4.5471059899037485
2.7004623524206774,4.121171856782713
2.806470846309834,3.7343064790371763
2.916640776023701,3.383020659665754
3.031135501567576,3.0641238491135483
3.150124795755327,2.7747018833693526
3.2737850959485697,2.5120950434978884
3.4022997656780634,2.273876656561748
3.5358593665351745,2.0578334097277367
3.6746619407366854,1.8619471017937914
3.8189133047818515,1.6843778702052825
3.968827354637162,1.5234493330828902
4.1246263829013445,1.3776345896744064
4.286541408420921,1.2455433092505686
4.4548125188449825,1.1259098905179055
4.629689226627261,1.0175825790664785
4.811430839003257,0.9195135352086993
5.000306842491082,0.8307497682101114
5.196597302486189,0.7504247954334138
5.400593278542364,0.6777510073820248
5.612597255954967,0.6120126445567848
5.8329235942862,0.5525591549384038
6.06189899349756,0.49879963822330353
6.29986297838068,0.4501976810972896
6.547168402004727,0.40626644702414777
6.804181968927091,0.36656419544575686
7.071284778942991,0.3306903315842843
7.348872892180382,0.2982819216500615
7.637357916378006,0.2690097958135172
7.937167617217536,0.2425753872088893
8.248746552614573,0.21870796308602566
8.572556731909314,0.1971620854442581
8.909078300934132,0.17771468918448013
9.258810253973934,0.16016299812472184
9.622271173675122,0.14432368953898544
9.999999999999984,0.1300311052873205
