k [1/Mpc],P(k) [Mpc^3]
0.0001,208.25435446864319
0.00010392556829367125,216.42621655501196
0.00010800523745162529,224.91846688694415
0.00011224505680853065,233.74363804997904
0.00011665131316981963,242.91474398209422
0.00012123054013376525,252.4452955022102
0.00012598952777950273,262.34932823179116
0.00013093533273536104,272.64142998079757
0.00013607528864243335,283.3367583638125
0.00014141701702890234,294.4510499276434
0.00014696843861124463,306.0006318233385
0.00015273778503907136,318.00246025292853
0.00015873361110102093,330.4741538475117
0.00016496480740980205,343.43401677836306
0.0001714406135851971,356.9010529851844
0.00017817063195457305,370.89497768732616
0.00018516484179121546,385.4362589711586
0.000192433614111598,400.546135104787
0.00019998772705352857,416.246643168829
0.0002078383818579757,432.5606622723338
0.00021599721947827182,449.51195085416174
0.0002244763378413224,467.125174584734
0.0002332883097864157,485.4259123240327
0.00024244620170823283,504.4406785121059
0.0002519635929317015,524.1969832058255
0.0002618545958474233,544.7233516128468
0.0002721338768375308,566.0493709898095
0.0002828166780230032,588.2057176841367
0.0002939188398646886,611.2241761285728
0.0003054568246515432,635.1377036797146
0.00031744774091091926,659.9804402902515
0.00032990936877709396,685.7877603413262
0.00034286018635565856,712.5963150592507
0.00035631939712285854,740.444034708027
0.000370306958400514,769.3702129536883
0.00038484361094874304,799.4155199827665
0.0003999509097203664,830.6220478001787
0.00041565125582259895,863.0333654775579
0.00043196792973341727,896.6944795205796
0.0004489251258218605,931.6519463585296
0.0004665479882234472,967.9538869447532
0.000484862648123908,1005.6500089228531
0.000503896262506515,1044.7917063699322
0.0005236770544204653,1085.4320298772157
0.0005442343548300266,1127.6257796553368
0.0005655986461065005,1171.42948996811
0.0005878016072274912,1216.901373502688
0.0006108761607505036,1264.1015048571978
0.0006348565216305217,1313.0917895981543
0.0006597782479539537,1363.9360385284597
0.0006856782936641739,1416.699991717073
0.0007125950633568407,1471.4512107422674
0.0007405684692262436,1528.2592607594997
0.0007696399902471156,1587.1955377721533
0.0007998527336796708,1648.333299828109
0.000831251498989063,1711.7478323049431
0.0008638828442740447,1777.516272480178
0.000897795155303332,1845.7177874065756
0.0009330387172620361,1916.4332810961262
0.0009696657893145519,1989.7452463977975
0.001007730682094461,2065.7381227946485
0.0010472898382363582,2144.4980171334255
0.0010884019160690055,2226.112861780731
0.0011311278765939214,2310.6720553258215
0.001175531073878369,2398.2659526174334
0.0012216773489967915,2488.9864635608324
0.0012696351276599736,2582.9265758851648
0.0013194755216767058,2680.180448160774
0.0013712724343984,2780.843238137988
0.0014251026703029975,2885.010253316686
0.0014810460488806749,2992.7775907344762
0.0015391855229902056,3104.2415420317698
0.001599607301861487,3219.498454626444
0.0016624009789266115,3338.644679887562
0.0017276596646690358,3461.775037481861
0.0017954801246878305,3588.983652140185
0.0018659629231817451,3720.3635061050563
0.001939212572065829,3856.0059396802785
0.0020153376859417325,3996.0008119101844
0.002094451143151469,4140.4348127592575
0.002176670253153458,4289.391930750168
0.002262116930469025,4442.952790168842
0.002350917875457286,4601.193374229573
0.002443204762186487,4764.185796125649
0.0025391144336803463,4931.99649825936
0.002638789104828933,5104.686273645653
0.002742376573264949,5282.3097058958265
0.0028500304385181063,5464.912856834324
0.0029619103297725525,5652.534482011399
0.0030781821425650787,5845.203643877906
0.003199018284775064,6042.939134606366
0.0033245979322709396,6245.7497209299345
0.003455107294592217,6453.630691543634
0.0035907398910610534,6666.565331097499
0.0037316968377327513,6884.5220259981315
0.0038781871456107214,7107.452361615395
0.0040304280305680515,7335.293053789804
0.00418864523543527,7567.962384695827
0.004353073364731888,7805.3610685867525
0.00452395623253805,8047.364853372688
0.004701547224022131,8293.816178303234
0.004886109671160325,8544.536822151043
0.005077917243205399,8799.348170896252
0.005277254352483535,9058.06411633246
0.005484416576121017,9320.44578612558
0.005699711094326071,9586.139156090796
0.005923457145875801,9854.743947104196
0.006155986501483508,10125.884643728838
0.006397643955748424,10399.207786535948
0.0066487878384172625,10674.312171791069
0.0069097905457156435,10950.66891894699
0.007181039092537346,11227.6868325739
0.007462935686310132,11504.773266825052
0.007755898323389004,11781.347435945141
0.00806036140886134,12056.786252051024
0.008376776400682916,12330.343322993216
0.008705612479099857,12601.198276590287
0.009047357242349292,12868.47482917444
0.00940251742967013,13131.228273636789
0.009771619672696168,13388.468969185133
0.010155211276345676,13639.131448301334
0.010553861030365234,13882.092878583797
0.010968160052731372,14116.179005512193
0.011398722666160517,14340.134187876778
0.011846187309026826,14552.667037464962
0.012311217482038896,14752.401185499628
0.012794502732078732,14937.89182014635
0.013296759674662111,15107.670240111414
0.013818733056536317,15260.197451831727
0.014361196859990781,15393.931421090036
0.014924955450518284,15507.301811016008
0.015510844769528393,15598.711967969804
0.016119733573881575,15666.611887012776
0.01675252472408214,15709.456948429164
0.017410156523040152,15725.775706830678
0.018093604107387147,15714.192098066967
0.01880388089340914,15673.42645823713
0.019542040079740527,15602.365746613905
0.02030917620904734,15500.094132157687
0.021106426791015535,15365.914101325727
0.021934973989050584,15199.409171711282
0.02279604637318978,15000.528055469329
0.023690920741826323,14769.510811526654
0.02462092401494623,14507.070675815537
0.02558743520168586,14214.342066421435
0.02659188744512693,13892.854479501282
0.027635770147361564,13544.934102292651
0.028720631177978267,13173.190892654029
0.029848079169243254,12780.682974434765
0.03101978590138095,12370.89350743371
0.03223748878149028,11947.566820632648
0.0335029934197723,11516.15342695857
0.03481817630688963,11082.28815629253
0.03618498759642746,10650.534105855695
0.037605453996581675,10224.14690826955
0.03908168177536263,9806.249512028146
0.04061585988376978,9402.80050419115
0.04221026320156896,9020.53862217906
0.04386725591048496,8664.323717155596
0.0455892949998106,8336.739189878741
0.047378933909631396,8039.425909469548
0.049238826317067365,7772.537208503734
0.05117173007114603,7535.52487624276
0.05318051128214196,7326.103612258832
0.05526814857144601,7141.227425613172
0.057437737488265785,6976.252530071392
0.0596924950997073,6825.579374055286
0.0620357647610427,6681.961772553646
0.06447102107323864,6536.848686510108
0.06700187503509585,6380.681325882087
0.06963207939763882,6203.83194806011
0.0723655342286965,5998.757810240139
0.07520629269592405,5760.652551391147
0.07815856707684081,5486.975089925152
0.08122673500479707,5180.621869222275
0.08441534596012978,4849.846438430218
0.0877291280161335,4506.346730300111
0.09117299484984914,4165.067589793369
0.09475205302806537,3842.099308925522
0.09847160957933764,3552.6219260273333
0.1023371798632519,3308.580040094106
0.10635449574860109,3115.9080792597256
0.11052951411260206,2973.3522602101325
0.1148684256737553,2872.7278997420235
0.1193776641714435,2799.940113131946
0.1240639159058831,2736.5146357453764
0.12893412965257148,2662.1416140592264
0.13399552696593373,2559.041774446004
0.1392556128874462,2417.3963166152703
0.14472218707411338,2239.554061394094
0.15040335536380234,2041.1121905431905
0.15630754179458153,1847.0414876537075
0.16244350109588662,1682.0222234213759
0.16882033167003618,1560.1618766808645
0.17544748908334581,1481.696982109193
0.1823348000868439,1434.471846082584
0.189492477187382,1395.7127904220551
0.19693113379074215,1340.0002801926532
0.20466179993919872,1253.7287524194094
0.21269593866686892,1142.9608131054806
0.22104546299710207,1029.5987136436397
0.22972275360711503,937.6690099683251
0.23874067718606454,877.8600372579457
0.2481126055137766,842.3202184585842
0.25785243528842716,809.4057019440797
0.26797460873256895,760.0725604515919
0.27849413500806414,693.6793023161301
0.28942661247167484,627.2276909835639
0.3007882518043098,577.8944101129034
0.31259590004822796,546.7442611038159
0.324867065587837,519.2358920300153
0.3376199441111335,482.09175966909487
0.35087344559027084,438.70515347113826
0.36464722232127456,401.99953899487775
0.37896169806447155,376.5879243528538
0.3938380983288488,353.56663330582546
0.4092984818452433,325.77190712691606
0.4253657732750382,297.77732713846785
0.44206379720285277,276.0494556206466
0.45941731346364734,257.5219325482062
0.47745205385661277,237.2793919074045
0.4961947603002895,217.75005319887805
0.5156732244854959,201.74392345821695
0.5359163290848509,186.660259943296
0.556954090580013,171.46693023363372
0.5788177037701272,158.14173113665896
0.6015395880274836,146.02488268494267
0.6251534353689703,134.26608353472835
0.6496942604146115,123.58548062269008
0.6751984523072497,113.75869854306909
0.7017038286703824,104.68404895538919
0.7292496916841444,96.29274204544727
0.7578768863625915,88.53024029340465
0.7876278611187046,81.35553639547821
0.8185467307069019,74.73017057590026
0.850679341636415,68.61739641863122
0.8840733401525058,62.98221186859107
0.9187782428863317,57.791310041801076
0.9548455102782278,53.0120875198961
0.9923286228832539,48.61317206916492
1.0312831606721837,44.5654583297597
1.0717668854455022,40.841984267760985
1.1138398264826193,37.41777898376653
1.1575643695533022,34.269747042420654
1.2030053494233226,31.376714208420875
1.2502301459914542,28.719123923173598
1.299308784200415,26.278803150760158
1.3503140378698726,24.03887562080895
1.4033215376054824,21.983680306765603
1.4584098829439835,20.098681239120534
1.5156607589006013,18.370355893426904
1.575159057091621,16.786183577151395
1.6369930016117014,15.334594729764985
1.7012542798525885,14.004903437904257
1.7680381784572046,12.787244290786887
1.8374437246107238,11.672515283055112
1.9095738328780953,10.652324696716654
1.9845354578058014,9.718934086295533
2.0624397525140905,8.865209738255066
2.143402233514853,8.08457828818796
2.227542951999554,7.370985282505411
2.314986671851158,6.718855008280156
2.405863054644063,6.123054481640383
2.5003068519063225,5.578862681738186
2.598458104929248,5.081939349643487
2.7004623524206774,4.628295778822339
2.806470846309834,4.214267632573131
2.916640776023701,3.8364887233425415
3.031135501567576,3.491868301524647
3.150124795755327,3.1775705886533196
3.2737850959485697,2.8909946370583377
3.4022997656780634,2.6297556585715993
3.5358593665351745,2.3916677411754477
3.6746619407366854,2.1747277580293853
3.8189133047818515,1.9771007739178228
3.968827354637162,1.7971065305741625
4.1246263829013445,1.6332068708704146
4.286541408420921,1.4839941385638367
4.4548125188449825,1.3481804175332543
4.629689226627261,1.2245874793336888
4.811430839003257,1.1121380112274033
5.000306842491082,1.0098473332217968
5.196597302486189,0.9168156724737216
5.400593278542364,0.8322210576743865
5.612597255954967,0.7553126515549928
5.8329235942862,0.685404607287928
6.06189899349756,0.6218709390163946
6.29986297838068,0.5641404855031961
6.547168402004727,0.5116922250287224
6.804181968927091,0.46405098486351415
7.071284778942991,0.420783796600042
7.348872892180382,0.3814962900112947
7.637357916378006,0.34582886992358125
7.937167617217536,0.31345370053398197
8.248746552614573,0.2840719810556207
8.572556731909314,0.25741138769062033
8.909078300934132,0.23322283506322142
9.258810253973934,0.21127894272885214
9.622271173675122,0.19137314712532222
9.999999999999984,0.1733178254507848
