k [1/Mpc],P(k) [Mpc^3]
0.0001,155.44485052947928
0.00010392556829367125,161.54596209727504
0.00010800523745162529,167.88645639243012
0.00011224505680853065,174.47570535460164
0.00011665131316981963,181.32344938994632
0.00012123054013376525,188.4398294754161
0.00012598952777950273,195.83539216762583
0.00013093533273536104,203.52108297365874
0.00013607528864243335,211.50824717289575
0.00014141701702890234,219.80866981413095
0.00014696843861124463,228.4346133310641
0.00015273778503907136,237.39883058762592
0.00015873361110102093,246.7145690954554
0.00016496480740980205,256.395581001616
0.0001714406135851971,266.4561518026907
0.00017817063195457305,276.91112109349024
0.00018516484179121546,287.7759038269912
0.000192433614111598,299.0665137635002
0.00019998772705352857,310.799584572591
0.0002078383818579757,322.99239513093585
0.00021599721947827182,335.66289166227523
0.0002244763378413224,348.8297112141882
0.0002332883097864157,362.51221151978257
0.00024244620170823283,376.73049216095774
0.0002519635929317015,391.50542583170926
0.0002618545958474233,406.8586885364985
0.0002721338768375308,422.81278596050674
0.0002828166780230032,439.3910887246021
0.0002939188398646886,456.6178473886657
0.0003054568246515432,474.5182272247468
0.00031744774091091926,493.11835244338766
0.00032990936877709396,512.4453299166431
0.00034286018635565856,532.5272964592998
0.00035631939712285854,553.3934736452521
0.000370306958400514,575.0742133323685
0.00038484361094874304,597.6010104543797
0.0003999509097203664,621.0064514616412
0.00041565125582259895,645.3243040837292
0.00043196792973341727,670.589614910702
0.0004489251258218605,696.8387728923369
0.0004665479882234472,724.1095300677523
0.000484862648123908,752.4410007032951
0.000503896262506515,781.8737204166174
0.0005236770544204653,812.4497048327991
0.0005442343548300266,844.2124499484677
0.0005655986461065005,877.2070299991764
0.0005878016072274912,911.4801178885009
0.0006108761607505036,947.080030682113
0.0006348565216305217,984.0568201897258
0.0006597782479539537,1022.4622926088065
0.0006856782936641739,1062.3500916873056
0.0007125950633568407,1103.77570839514
0.0007405684692262436,1146.7964872417458
0.0007696399902471156,1191.471763419416
0.0007998527336796708,1237.86284288255
0.000831251498989063,1286.0330949623306
0.0008638828442740447,1336.04801543063
0.000897795155303332,1387.9751984653615
0.0009330387172620361,1441.8844855044806
0.0009696657893145519,1497.8478850013248
0.001007730682094461,1555.939629311421
0.0010472898382363582,1616.2363232883165
0.0010884019160690055,1678.8168533552835
0.0011311278765939214,1743.7625555339582
0.001175531073878369,1811.157088275298
0.0012216773489967915,1881.086356607619
0.0012696351276599736,1953.6387927528224
0.0013194755216767058,2028.9051485934901
0.0013712724343984,2106.97866521576
0.0014251026703029975,2187.955010851115
0.0014810460488806749,2271.9319911212806
0.0015391855229902056,2359.0099321342277
0.001599607301861487,2449.2912962148175
0.0016624009789266115,2542.880754947971
0.0017276596646690358,2639.885332324474
0.0017954801246878305,2740.4138754979176
0.0018659629231817451,2844.5774730877383
0.001939212572065829,2952.4891049424377
0.0020153376859417325,3064.2634554010006
0.002094451143151469,3180.017148001114
0.002176670253153458,3299.8676645777246
0.002262116930469025,3423.933846675072
0.002350917875457286,3552.3357104461925
0.002443204762186487,3685.1938201618614
0.0025391144336803463,3822.629806451193
0.002638789104828933,3964.7654253883015
0.002742376573264949,4111.7226216607605
0.0028500304385181063,4263.623189677714
0.0029619103297725525,4420.587086719629
0.0030781821425650787,4582.733549614656
0.003199018284775064,4750.180272581769
0.0033245979322709396,4923.042995100727
0.003455107294592217,5101.435449783506
0.0035907398910610534,5285.466889127836
0.0037316968377327513,5475.24309688988
0.0038781871456107214,5670.865224250549
0.0040304280305680515,5872.428290164863
0.00418864523543527,6080.022142629406
0.004353073364731888,6293.728074142287
0.00452395623253805,6513.619403044407
0.004701547224022131,6739.760830987862
0.004886109671160325,6972.205227557717
0.005077917243205399,7210.995521031895
0.005277254352483535,7456.160811589481
0.005484416576121017,7707.715742831571
0.005699711094326071,7965.660039220059
0.005923457145875801,8229.969806572444
0.006155986501483508,8500.602845888716
0.006397643955748424,8777.5037623991
0.0066487878384172625,9060.604700782536
0.0069097905457156435,9349.813592505981
0.007181039092537346,9644.970905861579
0.007462935686310132,9945.869953017746
0.007755898323389004,10252.289446989897
0.00806036140886134,10564.011186955357
0.008376776400682916,10880.790312818814
0.008705612479099857,11202.302884576833
0.009047357242349292,11528.15469151101
0.00940251742967013,11857.919632697627
0.009771619672696168,12191.160176081066
0.010155211276345676,12527.406111504777
0.010553861030365234,12866.107436537151
0.010968160052731372,13206.625471859646
0.011398722666160517,13548.2663291506
0.011846187309026826,13890.253783553364
0.012311217482038896,14231.748511697582
0.012794502732078732,14571.84796553095
0.013296759674662111,14909.577586118936
0.013818733056536317,15243.904771573732
0.014361196859990781,15573.6970148638
0.014924955450518284,15897.74204163391
0.015510844769528393,16214.760302399181
0.016119733573881575,16523.37638427048
0.01675252472408214,16822.16041564456
0.017410156523040152,17109.60497257369
0.018093604107387147,17384.133745096504
0.01880388089340914,17644.133215323443
0.019542040079740527,17887.92706066484
0.02030917620904734,18113.81789082244
0.021106426791015535,18320.097153484014
0.021934973989050584,18505.051597569596
0.02279604637318978,18667.00133763175
0.023690920741826323,18804.335356082393
0.02462092401494623,18915.518487601024
0.02558743520168586,18999.129953034044
0.02659188744512693,19053.920034196697
0.027635770147361564,19078.78222769801
0.028720631177978267,19072.963920030314
0.029848079169243254,19036.024524276218
0.03101978590138095,18967.71355986107
0.03223748878149028,18868.058539192054
0.0335029934197723,18737.305268304288
0.03481817630688963,18576.807364246877
0.03618498759642746,18389.149813982713
0.037605453996581675,18176.870912286908
0.03908168177536263,17941.52468065027
0.04061585988376978,17684.340966400858
0.04221026320156896,17407.670303464416
0.04386725591048496,17115.80113252154
0.0455892949998106,16813.075856630025
0.047378933909631396,16503.830182587364
0.049238826317067365,16192.27379249627
0.05117173007114603,15882.397231940755
0.05318051128214196,15578.036167369679
0.05526814857144601,15282.477843604665
0.057437737488265785,14997.458254997524
0.0596924950997073,14723.922895369993
0.0620357647610427,14461.114940639636
0.06447102107323864,14207.390601033321
0.06700187503509585,13959.639362740863
0.06963207939763882,13713.90144937027
0.0723655342286965,13464.94300977724
0.07520629269592405,13206.73748789568
0.07815856707684081,12932.583502191545
0.08122673500479707,12635.436563054083
0.08441534596012978,12308.928423236734
0.0877291280161335,11948.358967783139
0.09117299484984914,11552.190765365629
0.09475205302806537,11122.88155531912
0.09847160957933764,10667.446383031127
0.1023371798632519,10196.461801397292
0.10635449574860109,9723.36750448716
0.11052951411260206,9262.451318470054
0.1148684256737553,8827.826360394687
0.1193776641714435,8432.444086233696
0.1240639159058831,8085.0671298437455
0.12893412965257148,7785.76309273984
0.13399552696593373,7526.573345485101
0.1392556128874462,7293.000508071434
0.14472218707411338,7065.6486601628585
0.15040335536380234,6824.724844978729
0.15630754179458153,6554.630301965807
0.16244350109588662,6248.412785282193
0.16882033167003618,5910.725110628087
0.17544748908334581,5557.502429878561
0.1823348000868439,5212.033759290371
0.189492477187382,4898.620344271696
0.19693113379074215,4634.22091987574
0.20466179993919872,4420.31600109941
0.21269593866686892,4241.038028708075
0.22104546299710207,4070.235808925669
0.22972275360711503,3882.1879613500873
0.23874067718606454,3663.5024422640017
0.2481126055137766,3423.0982568725262
0.25785243528842716,3187.2728302131472
0.26797460873256895,2981.951933996429
0.27849413500806414,2817.342139246539
0.28942661247167484,2681.1323487798977
0.3007882518043098,2547.3999718532086
0.31259590004822796,2396.7976772962897
0.324867065587837,2232.135038546048
0.3376199441111335,2074.4482805980597
0.35087344559027084,1941.877212005214
0.36464722232127456,1832.9963281226953
0.37896169806447155,1728.7278700041704
0.3938380983288488,1615.0807019340436
0.4092984818452433,1499.0135810723964
0.4253657732750382,1396.7158348762293
0.44206379720285277,1310.2643591209653
0.45941731346364734,1227.4920363615538
0.47745205385661277,1141.578300157855
0.4961947603002895,1059.7593700796826
0.5156732244854959,988.6250342229025
0.5359163290848509,922.8010784474097
0.556954090580013,856.9098795704275
0.5788177037701272,795.2526276835017
0.6015395880274836,740.0142941018958
0.6251534353689703,687.4723287001755
0.6496942604146115,637.1108683864508
0.6751984523072497,591.2406119154425
0.7017038286703824,548.3038572154572
0.7292496916841444,507.692097039789
0.7578768863625915,470.27524017201125
0.7876278611187046,435.2943881735739
0.8185467307069019,402.6528478167356
0.850679341636415,372.29123099976624
0.8840733401525058,344.06260610183676
0.9187782428863317,317.83011925779977
0.9548455102782278,293.46469594521386
0.9923286228832539,270.84463490913146
1.0312831606721837,249.85526276304213
1.0717668854455022,230.38906832950565
1.1138398264826193,212.3461408491379
1.1575643695533022,195.63232170071066
1.2030053494233226,180.15867250779462
1.2502301459914542,165.84128726273397
1.299308784200415,152.60107968984036
1.3503140378698726,140.36328708662592
1.4033215376054824,129.05745297156986
1.4584098829439835,118.61754098354555
1.5156607589006013,108.98171599441687
1.575159057091621,100.09212210068196
1.6369930016117014,91.8946781669958
1.7012542798525885,84.33888912138589
1.7680381784572046,77.37761149537963
1.8374437246107238,70.96685645367022
1.9095738328780953,65.06560893803082
1.9845354578058014,59.63565242339437
2.0624397525140905,54.64137359355601
2.143402233514853,50.04961992301512
2.227542951999554,45.829580130369266
2.314986671851158,41.95263747463968
2.405863054644063,38.39222949806734
2.5003068519063225,35.12371052091802
2.598458104929248,32.12421663624763
2.7004623524206774,29.37256433150931
2.806470846309834,26.84914141412846
2.916640776023701,24.535799956921057
3.031135501567576,22.415755555883035
3.150124795755327,20.473491550626033
3.2737850959485697,18.694670839054215
3.4022997656780634,17.06605396526515
3.5358593665351745,15.575420976172033
3.6746619407366854,14.211498220186348
3.8189133047818515,12.963887806157539
3.968827354637162,11.822999008170985
4.1246263829013445,10.779996731701257
4.286541408420921,9.826747302199319
4.4548125188449825,8.955765768537745
4.629689226627261,8.160166887769742
4.811430839003257,7.433619810454153
5.000306842491082,6.770305590224122
5.196597302486189,6.164877507670837
5.400593278542364,5.612424577143447
5.612597255954967,5.10843770415834
5.8329235942862,4.648777236771354
6.06189899349756,4.229641257100228
6.29986297838068,3.847543142730068
6.547168402004727,3.499287562244447
6.804181968927091,3.181946999032725
7.071284778942991,2.8928402303966703
7.348872892180382,2.6295156429914117
7.637357916378006,2.389731449295808
7.937167617217536,2.1714344653914983
8.248746552614573,1.9727447647398137
8.572556731909314,1.7919416954626235
8.909078300934132,1.6274481515787664
9.258810253973934,1.4778110075042903
9.622271173675122,1.34170263365382
9.999999999999984,1.217913591744858
