k [1/Mpc],P(k) [Mpc^3]
0.0001,1083.1412362255967
0.00010392556829367125,1128.8016618271774
0.00010800523745162529,1176.377489366885
0.00011224505680853065,1225.9479077372353
0.00011665131316981963,1277.5952526858155
0.00012123054013376525,1331.4051193459613
0.00012598952777950273,1387.4664931517589
0.00013093533273536104,1445.8717141046811
0.00013607528864243335,1506.7167057526315
0.00014141701702890234,1570.101095668897
0.00014696843861124463,1636.1282884646791
0.00015273778503907136,1704.9056812564852
0.00015873361110102093,1776.5446091631438
0.00016496480740980205,1851.1605523271792
0.0001714406135851971,1928.8732888081342
0.00017817063195457305,2009.806833503557
0.00018516484179121546,2094.08977863998
0.000192433614111598,2181.855209250272
0.00019998772705352857,2273.2408303919524
0.0002078383818579757,2368.3892546871202
0.00021599721947827182,2467.4478171851233
0.0002244763378413224,2570.5689474679057
0.0002332883097864157,2677.9099907159657
0.00024244620170823283,2789.633070044057
0.0002519635929317015,2905.9056670828204
0.0002618545958474233,3026.9003342178153
0.0002721338768375308,3152.795002268708
0.0002828166780230032,3283.7729616407073
0.0002939188398646886,3420.022414089205
0.0003054568246515432,3561.7371255833937
0.00031744774091091926,3709.11572803108
0.00032990936877709396,3862.361836613933
0.00034286018635565856,4021.6845751930978
0.00035631939712285854,4187.298112906816
0.000370306958400514,4359.422061308538
0.00038484361094874304,4538.28043095212
0.0003999509097203664,4724.101088438863
0.00041565125582259895,4917.11684993962
0.00043196792973341727,5117.564835475712
0.0004489251258218605,5325.68669727712
0.0004665479882234472,5541.727838206938
0.000484862648123908,5765.936114905491
0.000503896262506515,5998.562950746845
0.0005236770544204653,6239.861753154137
0.0005442343548300266,6490.087912577794
0.0005655986461065005,6749.498678371318
0.0005878016072274912,7018.350793983493
0.0006108761607505036,7296.9017216548355
0.0006348565216305217,7585.4072817878005
0.0006597782479539537,7884.120501646527
0.0006856782936641739,8193.29245363893
0.0007125950633568407,8513.167895566563
0.0007405684692262436,8843.986696192811
0.0007696399902471156,9185.98176075345
0.0007998527336796708,9539.375694106733
0.000831251498989063,9904.382876349042
0.0008638828442740447,10281.203978134989
0.000897795155303332,10670.026164752131
0.0009330387172620361,11071.02306084703
0.0009696657893145519,11484.350509895088
0.001007730682094461,11910.147875214963
0.0010472898382363582,12348.534835996013
0.0010884019160690055,12799.60960178556
0.0011311278765939214,13263.446560066577
0.001175531073878369,13740.083823344878
0.0012216773489967915,14229.5287011036
0.0012696351276599736,14731.757683747337
0.0013194755216767058,15246.713426814751
0.0013712724343984,15774.304349102102
0.0014251026703029975,16314.40005350457
0.0014810460488806749,16866.83040663204
0.0015391855229902056,17431.38180056888
0.001599607301861487,18007.790238199606
0.0016624009789266115,18595.744917171327
0.0017276596646690358,19194.888236807627
0.0017954801246878305,19804.813872544684
0.0018659629231817451,20425.063601497972
0.001939212572065829,21055.123328022903
0.0020153376859417325,21694.423353507154
0.002094451143151469,22342.337330732036
0.002176670253153458,22998.180905184316
0.002262116930469025,23661.211212411214
0.002350917875457286,24330.627176676575
0.002443204762186487,25005.568317565067
0.0025391144336803463,25685.107063613577
0.002638789104828933,26368.240370841875
0.002742376573264949,27053.90191622986
0.0028500304385181063,27740.97357937793
0.0029619103297725525,28428.284375021092
0.0030781821425650787,29114.57001594731
0.003199018284775064,29798.382939045863
0.0033245979322709396,30478.18980217224
0.003455107294592217,31152.666851220165
0.0035907398910610534,31820.759957439805
0.0037316968377327513,32481.26197804871
0.0038781871456107214,33132.01050682731
0.0040304280305680515,33770.414480497646
0.00418864523543527,34394.158010941675
0.004353073364731888,35001.53841386349
0.00452395623253805,35590.909884337474
0.004701547224022131,36160.639108334886
0.004886109671160325,36709.106197015346
0.005077917243205399,37234.58026331999
0.005277254352483535,37734.984155717124
0.005484416576121017,38208.1745703607
0.005699711094326071,38651.964723179175
0.005923457145875801,39064.136375945185
0.006155986501483508,39442.4990604255
0.006397643955748424,39784.905203473914
0.0066487878384172625,40089.2645577057
0.0069097905457156435,40353.51001648425
0.007181039092537346,40575.58571323564
0.007462935686310132,40753.52230728741
0.007755898323389004,40885.38685613532
0.00806036140886134,40969.33973375298
0.008376776400682916,41003.60086401028
0.008705612479099857,40986.33140552338
0.009047357242349292,40915.85098860275
0.00940251742967013,40790.7013951215
0.009771619672696168,40609.66617586815
0.010155211276345676,40371.736201441156
0.010553861030365234,40075.978417168095
0.010968160052731372,39721.70926266357
0.011398722666160517,39308.59646756768
0.011846187309026826,38836.68324576627
0.012311217482038896,38306.368541411764
0.012794502732078732,37718.44922086515
0.013296759674662111,37074.10109741188
0.013818733056536317,36375.00360325255
0.014361196859990781,35623.47699288154
0.014924955450518284,34822.22907936791
0.015510844769528393,33974.74565240327
0.016119733573881575,33085.06791275849
0.01675252472408214,32157.648419232108
0.017410156523040152,31197.883641125576
0.018093604107387147,30211.330462710892
0.01880388089340914,29204.372969968488
0.019542040079740527,28184.13202187854
0.02030917620904734,27157.436187643292
0.021106426791015535,26131.396543276795
0.021934973989050584,25112.740282524715
0.02279604637318978,24109.05767026578
0.023690920741826323,23129.732197228102
0.02462092401494623,22182.779045747873
0.02558743520168586,21272.569143740646
0.02659188744512693,20401.28591043168
0.027635770147361564,19570.808731851437
0.028720631177978267,18783.215896878417
0.029848079169243254,18040.145269875033
0.03101978590138095,17342.41529490174
0.03223748878149028,16690.17950272786
0.0335029934197723,16081.487678996116
0.03481817630688963,15505.396748867082
0.03618498759642746,14949.589877781984
0.037605453996581675,14405.393710828399
0.03908168177536263,13868.378388552956
0.04061585988376978,13334.100947064435
0.04221026320156896,12793.306618627423
0.04386725591048496,12236.392135401933
0.0455892949998106,11655.548283978787
0.047378933909631396,11045.548808378959
0.049238826317067365,10413.437406576422
0.05117173007114603,9775.243561843652
0.05318051128214196,9146.889039666768
0.05526814857144601,8542.590672316892
0.057437737488265785,7972.925909977115
0.0596924950997073,7444.617466293427
0.0620357647610427,6960.829146382017
0.06447102107323864,6536.001290436912
0.06700187503509585,6182.545044569376
0.06963207939763882,5882.744429747717
0.0723655342286965,5616.00703039529
0.07520629269592405,5362.845867088368
0.07815856707684081,5104.685289554435
0.08122673500479707,4828.4048483410315
0.08441534596012978,4532.901791482617
0.0877291280161335,4225.94963064554
0.09117299484984914,3917.10453146102
0.09475205302806537,3616.765490791001
0.09847160957933764,3340.6592353986734
0.1023371798632519,3104.000514284879
0.10635449574860109,2907.7366969237946
0.11052951411260206,2736.5050428497393
0.1148684256737553,2579.376876720246
0.1193776641714435,2426.3743422224948
0.1240639159058831,2265.3521636749697
0.12893412965257148,2100.371894380746
0.13399552696593373,1941.7304604903534
0.1392556128874462,1796.3449576641717
0.14472218707411338,1668.305313303274
0.15040335536380234,1554.9466760733908
0.15630754179458153,1451.1504725955067
0.16244350109588662,1350.4632675201685
0.16882033167003618,1251.3582348858213
0.17544748908334581,1157.7386247738082
0.1823348000868439,1071.4704027778707
0.189492477187382,993.5707691648003
0.19693113379074215,921.4090398578854
0.20466179993919872,853.5206433891656
0.21269593866686892,789.1601772998519
0.22104546299710207,729.4851201609326
0.22972275360711503,674.4903553650275
0.23874067718606454,623.5316822785301
0.2481126055137766,575.9548816841708
0.25785243528842716,531.6585650939779
0.26797460873256895,490.65980388414164
0.27849413500806414,452.70788324873917
0.28942661247167484,417.483332606107
0.3007882518043098,384.8089861592065
0.31259590004822796,354.59193579741657
0.324867065587837,326.62812129395
0.3376199441111335,300.756537077917
0.35087344559027084,276.84474593524595
0.36464722232127456,254.74983367797682
0.37896169806447155,234.34159059126114
0.3938380983288488,215.4999494973514
0.4092984818452433,198.10459456389987
0.4253657732750382,182.06254143256555
0.44206379720285277,167.25290011254054
0.45941731346364734,153.60019306538754
0.47745205385661277,141.0166176854819
0.4961947603002895,129.42454289048678
0.5156732244854959,118.75168955980288
0.5359163290848509,108.93006597434187
0.556954090580013,99.89355635000878
0.5788177037701272,91.58163055902584
0.6015395880274836,83.93852688209383
0.6251534353689703,76.91256152560105
0.6496942604146115,70.4558494113332
0.6751984523072497,64.52404619528893
0.7017038286703824,59.07619323035945
0.7292496916841444,54.074456799435666
0.7578768863625915,49.48379582332284
0.7876278611187046,45.27176725874465
0.8185467307069019,41.40834897979803
0.850679341636415,37.865765231436725
0.8840733401525058,34.61830429718207
0.9187782428863317,31.642209700942153
0.9548455102782278,28.915553365140177
0.9923286228832539,26.418103165123963
1.0312831606721837,24.131198943880516
1.0717668854455022,22.037624875349003
1.1138398264826193,20.1215034354631
1.1575643695533022,18.368214240702486
1.2030053494233226,16.764300107276398
1.2502301459914542,15.297378490599991
1.299308784200415,13.956061303448037
1.3503140378698726,12.729887521575513
1.4033215376054824,11.609241086926732
1.4584098829439835,10.585280837067065
1.5156607589006013,9.649880930473934
1.575159057091621,8.795575463258011
1.6369930016117014,8.01550021912763
1.7012542798525885,7.303344162921415
1.7680381784572046,6.653318412296979
1.8374437246107238,6.0601154003064375
1.9095738328780953,5.518870007609479
1.9845354578058014,5.025124515313276
2.0624397525140905,4.57480025873277
2.143402233514853,4.164161943068343
2.227542951999554,3.78978670253663
2.314986671851158,3.4485388781818576
2.405863054644063,3.1375467402564325
2.5003068519063225,2.8541791432135266
2.598458104929248,2.5960248430828012
2.7004623524206774,2.3608784518843926
2.806470846309834,2.1467237284976473
2.916640776023701,1.9517177217954378
3.031135501567576,1.7741762962220124
3.150124795755327,1.6125614672973048
3.2737850959485697,1.4654684508139144
3.4022997656780634,1.3316138741686099
3.5358593665351745,1.2098255327820666
3.6746619407366854,1.0990329911495411
3.8189133047818515,0.9982588526405517
3.968827354637162,0.906610751114619
4.1246263829013445,0.8232743654731272
4.286541408420921,0.747506776032544
4.4548125188449825,0.6786303325856601
4.629689226627261,0.6160270303847554
4.811430839003257,0.5591333005404832
5.000306842491082,0.5074353476964494
5.196597302486189,0.46046489163058
5.400593278542364,0.4177952097885104
5.612597255954967,0.3790375153780345
5.8329235942862,0.3438376070481398
6.06189899349756,0.3118727859967033
6.29986297838068,0.2828492083158298
6.547168402004727,0.25649936645654653
6.804181968927091,0.23257976422677523
7.071284778942991,0.2108688029523086
7.348872892180382,0.19116498668814744
7.637357916378006,0.1732850624225902
7.937167617217536,0.15706225135479193
8.248746552614573,0.1423447918929243
8.572556731909314,0.12899461315767216
8.909078300934132,0.11688599362778894
9.258810253973934,0.1059041806875673
9.622271173675122,0.09594489044648183
9.999999999999984,0.0869134710625398
