k [1/Mpc],P(k) [Mpc^3]
0.0001,35.28505968658587
0.00010392556829367125,36.77602657165302
0.00010800523745162529,38.32997539586552
0.00011224505680853065,39.94956192479386
0.00011665131316981963,41.63755423887142
0.00012123054013376525,43.39684154355511
0.00012598952777950273,45.23043686149071
0.00013093533273536104,47.141477061751
0.00013607528864243335,49.13322460624329
0.00014141701702890234,51.20907843897967
0.00014696843861124463,53.372584493531036
0.00015273778503907136,55.627440609887984
0.00015873361110102093,57.977499445231956
0.00016496480740980205,60.426772777704244
0.0001714406135851971,62.97944029328839
0.00017817063195457305,65.6398566188324
0.00018516484179121546,68.41255857942147
0.000192433614111598,71.3022730836017
0.00019998772705352857,74.31392456333764
0.0002078383818579757,77.45264352746977
0.00021599721947827182,80.7237744815488
0.0002244763378413224,84.13288428392266
0.0002332883097864157,87.68577216673779
0.00024244620170823283,91.38847779529439
0.0002519635929317015,95.24729189784001
0.0002618545958474233,99.26876679248196
0.0002721338768375308,103.45972613132543
0.0002828166780230032,107.82727696408813
0.0002939188398646886,112.37881699585701
0.0003054568246515432,117.12204681801322
0.00031744774091091926,122.06498465819895
0.00032990936877709396,127.21597626162531
0.00034286018635565856,132.58371077283184
0.00035631939712285854,138.17723873708252
0.000370306958400514,144.005988048163
0.00038484361094874304,150.07977191109327
0.0003999509097203664,156.4087806921349
0.00041565125582259895,163.00360928010036
0.00043196792973341727,169.87528686027315
0.0004489251258218605,177.03529850019405
0.0004665479882234472,184.49559616313346
0.000484862648123908,192.26860434328174
0.000503896262506515,200.36724111780944
0.0005236770544204653,208.80493939016486
0.0005442343548300266,217.59565342101354
0.0005655986461065005,226.75389061797773
0.0005878016072274912,236.2947237424337
0.0006108761607505036,246.23380978184014
0.0006348565216305217,256.587420841688
0.0006597782479539537,267.3724569568662
0.0006856782936641739,278.6064757135155
0.0007125950633568407,290.30770298439785
0.0007405684692262436,302.49504289112616
0.0007696399902471156,315.1881224717064
0.0007998527336796708,328.407295377034
0.000831251498989063,342.17367549170706
0.0008638828442740447,356.50916317078713
0.000897795155303332,371.4364474668684
0.0009330387172620361,386.97905578092355
0.0009696657893145519,403.1613426215006
0.001007730682094461,420.008515091193
0.0010472898382363582,437.54668354978645
0.0010884019160690055,455.8028480293322
0.0011311278765939214,474.8049548224795
0.001175531073878369,494.58187334194486
0.0012216773489967915,515.1633865260274
0.0012696351276599736,536.5802788810436
0.0013194755216767058,558.8642914888396
0.0013712724343984,582.0481802878967
0.0014251026703029975,606.1657110954864
0.0014810460488806749,631.2515911655233
0.0015391855229902056,657.3415869380115
0.001599607301861487,684.4724292831269
0.0016624009789266115,712.6818451529739
0.0017276596646690358,742.0086093820637
0.0017954801246878305,772.4924077394279
0.0018659629231817451,804.1739653653631
0.001939212572065829,837.0949594424329
0.0020153376859417325,871.2979767281456
0.002094451143151469,906.8265904312908
0.002176670253153458,943.7250620775025
0.002262116930469025,982.0384919296995
0.002350917875457286,1021.8127744799499
0.002443204762186487,1063.0944257527372
0.0025391144336803463,1105.9307387163694
0.002638789104828933,1150.369517963026
0.002742376573264949,1196.459101883524
0.0028500304385181063,1244.2482678512145
0.0029619103297725525,1293.785741204395
0.0030781821425650787,1345.1205185642066
0.003199018284775064,1398.3016260605618
0.0033245979322709396,1453.3779943984598
0.003455107294592217,1510.3984383614506
0.0035907398910610534,1569.4109170920353
0.0037316968377327513,1630.4628192511252
0.0038781871456107214,1693.6006036305726
0.0040304280305680515,1758.8693330407496
0.00418864523543527,1826.312939456532
0.004353073364731888,1895.973184793748
0.00452395623253805,1967.8898019834526
0.004701547224022131,2042.1002679606047
0.004886109671160325,2118.6387911771703
0.005077917243205399,2197.536837932005
0.005277254352483535,2278.821902470045
0.005484416576121017,2362.5172548143405
0.005699711094326071,2448.6417357367536
0.005923457145875801,2537.2070093547577
0.006155986501483508,2628.2191012657895
0.006397643955748424,2721.6799007818695
0.0066487878384172625,2817.587329806824
0.0069097905457156435,2915.931620561393
0.007181039092537346,3016.681677724929
0.007462935686310132,3119.791141268273
0.007755898323389004,3225.208410789904
0.00806036140886134,3332.882153775662
0.008376776400682916,3442.7519026778364
0.008705612479099857,3554.731293443826
0.009047357242349292,3668.7105000459983
0.00940251742967013,3784.5681524411007
0.009771619672696168,3902.17772789274
0.010155211276345676,4021.400666606822
0.010553861030365234,4142.071040893579
0.010968160052731372,4263.99230284254
0.011398722666160517,4386.947692724986
0.011846187309026826,4510.691154139673
0.012311217482038896,4634.953194150062
0.012794502732078732,4759.440523967522
0.013296759674662111,4883.832859509838
0.013818733056536317,5007.787144273611
0.014361196859990781,5130.923454888627
0.014924955450518284,5252.831150455151
0.015510844769528393,5373.072599520021
0.016119733573881575,5491.173323222658
0.01675252472408214,5606.635298453029
0.017410156523040152,5718.928937533506
0.018093604107387147,5827.495578005923
0.01880388089340914,5931.757755634621
0.019542040079740527,6031.11034821808
0.02030917620904734,6124.934335789242
0.021106426791015535,6212.600008344106
0.021934973989050584,6293.469059928592
0.02279604637318978,6366.907498574617
0.023690920741826323,6432.297904602582
0.02462092401494623,6489.042117640358
0.02558743520168586,6536.574822365781
0.02659188744512693,6574.38362663969
0.027635770147361564,6602.000236093665
0.028720631177978267,6619.0742450037815
0.029848079169243254,6625.360307541404
0.03101978590138095,6620.677127544677
0.03223748878149028,6604.939168183151
0.0335029934197723,6578.137090450013
0.03481817630688963,6540.652046986836
0.03618498759642746,6493.304956057885
0.037605453996581675,6436.910230524634
0.03908168177536263,6371.942630086628
0.04061585988376978,6298.767391924345
0.04221026320156896,6218.154720567106
0.04386725591048496,6131.578372790933
0.0455892949998106,6040.548907115888
0.047378933909631396,5946.592234659354
0.049238826317067365,5851.206593106694
0.05117173007114603,5755.828273875059
0.05318051128214196,5661.853954790334
0.05526814857144601,5570.49655972953
0.057437737488265785,5482.41589429248
0.0596924950997073,5397.989447777681
0.0620357647610427,5316.973004972157
0.06447102107323864,5238.792276085587
0.06700187503509585,5162.323748485496
0.06963207939763882,5086.115793520063
0.0723655342286965,5008.2260095848405
0.07520629269592405,4926.393808502189
0.07815856707684081,4838.080075752751
0.08122673500479707,4740.587786012973
0.08441534596012978,4631.443479107076
0.0877291280161335,4508.775011621289
0.09117299484984914,4371.886064437299
0.09475205302806537,4221.5892620731065
0.09847160957933764,4060.4420176884287
0.1023371798632519,3892.391556067481
0.10635449574860109,3722.527428453829
0.11052951411260206,3556.32403405291
0.1148684256737553,3399.251901406524
0.1193776641714435,3256.3960383593826
0.1240639159058831,3131.2775071292335
0.12893412965257148,3024.0801223833255
0.13399552696593373,2931.8624245441856
0.1392556128874462,2849.0935779248857
0.14472218707411338,2768.2587982421614
0.15040335536380234,2681.5998806902107
0.15630754179458153,2582.9215347761838
0.16244350109588662,2469.3741909923897
0.16882033167003618,2342.675497066575
0.17544748908334581,2209.048316185017
0.1823348000868439,2077.7196840082893
0.189492477187382,1958.428391911976
0.19693113379074215,1858.0817972543127
0.20466179993919872,1777.4426358003375
0.21269593866686892,1710.2855377319756
0.22104546299710207,1646.153038569405
0.22972275360711503,1574.6403511280246
0.23874067718606454,1490.2374866528712
0.2481126055137766,1396.4730033988733
0.25785243528842716,1304.0270499484577
0.26797460873256895,1223.5512893133962
0.27849413500806414,1159.3519902588464
0.28942661247167484,1106.4916833301095
0.3007882518043098,1054.3413071009961
0.31259590004822796,994.8775658101757
0.324867065587837,929.2079311153627
0.3376199441111335,866.0625022623537
0.35087344559027084,813.059951443653
0.36464722232127456,769.691304160732
0.37896169806447155,728.0074090754429
0.3938380983288488,682.1149594678253
0.4092984818452433,634.9259747940956
0.4253657732750382,593.3073989187283
0.44206379720285277,558.1935525625497
0.45941731346364734,524.4435540483481
0.47745205385661277,489.14763049463966
0.4961947603002895,455.4027984223208
0.5156732244854959,426.06338557261796
0.5359163290848509,398.8456726354362
0.556954090580013,371.43781988163767
0.5788177037701272,345.70866499693363
0.6015395880274836,322.62605780129627
0.6251534353689703,300.58599062526
0.6496942604146115,279.37189121036863
0.6751984523072497,260.00765382957394
0.7017038286703824,241.82286174763527
0.7292496916841444,224.55908958377236
0.7578768863625915,208.61067597632135
0.7876278611187046,193.65185671787174
0.8185467307069019,179.64848236060666
0.850679341636415,166.58264946457433
0.8840733401525058,154.39691321786376
0.9187782428863317,143.03765129967798
0.9548455102782278,132.45408681119736
0.9923286228832539,122.59815031277112
1.0312831606721837,113.4243666278572
1.0717668854455022,104.88995773024597
1.1138398264826193,96.95508581024595
1.1575643695533022,89.5820531906561
1.2030053494233226,82.73509249945685
1.2502301459914542,76.38031135463918
1.299308784200415,70.48562439127383
1.3503140378698726,65.02055251995355
1.4033215376054824,59.95624089749439
1.4584098829439835,55.2655381438488
1.5156607589006013,50.92292121624128
1.575159057091621,46.904417289058635
1.6369930016117014,43.187532309152346
1.7012542798525885,39.75118552838313
1.7680381784572046,36.57562107469891
1.8374437246107238,33.642335572418354
1.9095738328780953,30.934011990997274
1.9845354578058014,28.434454854831937
2.0624397525140905,26.12851456867272
2.143402233514853,24.002035652496826
2.227542951999554,22.041814938966443
2.314986671851158,20.235545814238613
2.405863054644063,18.57176448310212
2.5003068519063225,17.039796517739035
2.598458104929248,15.629703583451445
2.7004623524206774,14.332245543326948
2.806470846309834,13.138838041559293
2.916640776023701,12.041510249489042
3.031135501567576,11.03286489847407
3.150124795755327,10.106039987639367
3.2737850959485697,9.254673510727102
3.4022997656780634,8.47287061454552
3.5358593665351745,7.755171997890276
3.6746619407366854,7.096524168167398
3.8189133047818515,6.492250456571582
3.968827354637162,5.938022453981875
4.1246263829013445,5.4298394951529225
4.286541408420921,4.964006388315576
4.4548125188449825,4.537111482515004
4.629689226627261,4.146006184453238
4.811430839003257,3.7877859681110384
5.000306842491082,3.459772463396568
5.196597302486189,3.1594966441432426
5.400593278542364,2.8846833305269204
5.612597255954967,2.6332367612762053
5.8329235942862,2.403226610604451
6.06189899349756,2.1928741225991075
6.29986297838068,2.000542803122662
6.547168402004727,1.8247281136871956
6.804181968927091,1.6640472440339864
7.071284778942991,1.517229715388103
7.348872892180382,1.383110348524627
7.637357916378006,1.2606204602809448
7.937167617217536,1.1487781323410269
8.248746552614573,1.0466814161120412
8.572556731909314,0.9535021338029069
8.909078300934132,0.8684786296509246
9.258810253973934,0.7909063322893802
9.622271173675122,0.7201394595706224
9.999999999999984,0.6555879975738408
