k [1/Mpc],P(k) [Mpc^3]
0.0001,7601.605634942307
0.00010392556829367125,7853.71872284588
0.00010800523745162529,8114.128229688698
0.00011224505680853065,8383.099796123273
0.00011665131316981963,8660.906836289025
0.00012123054013376525,8947.83070054869
0.00012598952777950273,9244.160939438652
0.00013093533273536104,9550.194440064186
0.00013607528864243335,9866.236326995133
0.00014141701702890234,10192.600099439576
0.00014696843861124463,10529.607441966193
0.00015273778503907136,10877.588939750434
0.00015873361110102093,11236.883035119405
0.00016496480740980205,11607.836662994378
0.0001714406135851971,11990.805502963445
0.00017817063195457305,12386.152884790581
0.00018516484179121546,12794.251188784801
0.000192433614111598,13215.48058520555
0.00019998772705352857,13650.229094487873
0.0002078383818579757,14098.893584118588
0.00021599721947827182,14561.877909547713
0.0002244763378413224,15039.5943955045
0.0002332883097864157,15532.46203035325
0.00024244620170823283,16040.904975288953
0.0002519635929317015,16565.355231058147
0.0002618545958474233,17106.250246785385
0.0002721338768375308,17664.033973010606
0.0002828166780230032,18239.15603351396
0.0002939188398646886,18832.06856126774
0.0003054568246515432,19443.22919540409
0.00031744774091091926,20073.096600800764
0.00032990936877709396,20722.130581870446
0.00034286018635565856,21390.79435226214
0.00035631939712285854,22079.551464269058
0.000370306958400514,22788.86738418948
0.00038484361094874304,23519.2035125195
0.0003999509097203664,24271.014074953124
0.00041565125582259895,25044.75150617992
0.00043196792973341727,25840.862773002264
0.0004489251258218605,26659.790257499262
0.0004665479882234472,27501.96758076893
0.000484862648123908,28367.8131050274
0.000503896262506515,29257.735527786357
0.0005236770544204653,30172.12616136488
0.0005442343548300266,31111.359197204692
0.0005655986461065005,32075.79138342302
0.0005878016072274912,33065.75117428619
0.0006108761607505036,34081.545219091524
0.0006348565216305217,35123.44793838351
0.0006597782479539537,36191.697208792226
0.0006856782936641739,37286.499355141306
0.0007125950633568407,38408.010467559914
0.0007405684692262436,39556.34459114502
0.0007696399902471156,40731.56602306535
0.0007998527336796708,41933.67650159377
0.000831251498989063,43162.626696867796
0.0008638828442740447,44418.294510314154
0.000897795155303332,45700.48891697251
0.0009330387172620361,47008.9526719164
0.0009696657893145519,48343.34725049142
0.001007730682094461,49703.26176767178
0.0010472898382363582,51088.2028892459
0.0010884019160690055,52497.59116552375
0.0011311278765939214,53930.75534443178
0.001175531073878369,55386.8863633505
0.0012216773489967915,56865.06546225186
0.0012696351276599736,58364.269259379056
0.0013194755216767058,59883.36291283249
0.0013712724343984,61421.103940220026
0.0014251026703029975,62976.12985092723
0.0014810460488806749,64546.96055263182
0.0015391855229902056,66131.99009054436
0.001599607301861487,67729.46701399419
0.0016624009789266115,69337.51506278144
0.0017276596646690358,70954.13974149263
0.0017954801246878305,72577.22763187866
0.0018659629231817451,74204.54135820284
0.001939212572065829,75833.71208878327
0.0020153376859417325,77462.24774439922
0.002094451143151469,79087.53629990475
0.002176670253153458,80706.84798351361
0.002262116930469025,82317.34050565009
0.002350917875457286,83916.06694536029
0.002443204762186487,85499.97828727015
0.0025391144336803463,87065.90397100283
0.002638789104828933,88610.53126343117
0.002742376573264949,90130.45441956996
0.0028500304385181063,91622.21914820823
0.0029619103297725525,93082.32383399658
0.0030781821425650787,94507.09300014592
0.003199018284775064,95892.39800739946
0.0033245979322709396,97233.99053422776
0.003455107294592217,98528.44516847629
0.0035907398910610534,99773.31553101003
0.0037316968377327513,100965.78109022415
0.0038781871456107214,102100.19315469195
0.0040304280305680515,103169.80803148079
0.00418864523543527,104168.97043885893
0.004353073364731888,105094.08686522367
0.00452395623253805,105941.8852448432
0.004701547224022131,106709.27319589468
0.004886109671160325,107393.33588130664
0.005077917243205399,107990.97025428205
0.005277254352483535,108498.21937881577
0.005484416576121017,108911.11052636076
0.005699711094326071,109225.72340062582
0.005923457145875801,109438.22508179506
0.006155986501483508,109545.03424679306
0.006397643955748424,109542.85542912054
0.0066487878384172625,109428.70938638691
0.0069097905457156435,109199.83007342859
0.007181039092537346,108853.6264287939
0.007462935686310132,108387.87782917537
0.007755898323389004,107800.58860507546
0.00806036140886134,107090.12952422794
0.008376776400682916,106255.13674216259
0.008705612479099857,105294.19840345909
0.009047357242349292,104206.41179828576
0.00940251742967013,102991.52405087081
0.009771619672696168,101649.95469393958
0.010155211276345676,100182.68220548566
0.010553861030365234,98590.89755381073
0.010968160052731372,96876.41809557236
0.011398722666160517,95041.90663788604
0.011846187309026826,93090.89244922916
0.012311217482038896,91027.68579221134
0.012794502732078732,88857.44182190385
0.013296759674662111,86586.07741513428
0.013818733056536317,84220.52390860755
0.014361196859990781,81768.99461368872
0.014924955450518284,79240.34875221684
0.015510844769528393,76644.9389086748
0.016119733573881575,73994.04287829249
0.01675252472408214,71299.49722498299
0.017410156523040152,68574.83586656433
0.018093604107387147,65833.50116828951
0.01880388089340914,63090.278631854344
0.019542040079740527,60361.035558525364
0.02030917620904734,57660.47866848846
0.021106426791015535,55003.40231209992
0.021934973989050584,52403.28316195158
0.02279604637318978,49874.905523434194
0.023690920741826323,47436.20233184
0.02462092401494623,45101.68007163042
0.02558743520168586,42877.965325617326
0.02659188744512693,40767.04429329213
0.027635770147361564,38770.18860467384
0.028720631177978267,36888.97174594649
0.029848079169243254,35124.0096644098
0.03101978590138095,33474.268684928225
0.03223748878149028,31937.431168466548
0.0335029934197723,30507.221442416863
0.03481817630688963,29160.62135452244
0.03618498759642746,27872.801830093562
0.037605453996581675,26626.491175418698
0.03908168177536263,25412.766583132972
0.04061585988376978,24222.973930929522
0.04221026320156896,23040.080392041098
0.04386725591048496,21847.010918264667
0.0455892949998106,20630.454960183095
0.047378933909631396,19382.101116674865
0.049238826317067365,18115.283081021244
0.05117173007114603,16858.38856032311
0.05318051128214196,15638.652921820247
0.05526814857144601,14479.480682050384
0.057437737488265785,13397.339879457888
0.0596924950997073,12401.684879766475
0.0620357647610427,11495.734828075116
0.06447102107323864,10701.024311147059
0.06700187503509585,10035.01367961139
0.06963207939763882,9466.035287880484
0.0723655342286965,8958.870085069237
0.07520629269592405,8481.220791829275
0.07815856707684081,8003.307156031792
0.08122673500479707,7504.843633076438
0.08441534596012978,6984.764029487759
0.0877291280161335,6455.608776626621
0.09117299484984914,5932.196201193091
0.09475205302806537,5430.1040767519125
0.09847160957933764,4972.301323375089
0.1023371798632519,4580.200652796278
0.10635449574860109,4253.586367736261
0.11052951411260206,3968.5685736052815
0.1148684256737553,3708.428384770197
0.1193776641714435,3458.3612580476088
0.1240639159058831,3201.000457602794
0.12893412965257148,2942.277747332041
0.13399552696593373,2696.5834869060186
0.1392556128874462,2473.159492096174
0.14472218707411338,2277.064730109767
0.15040335536380234,2104.0342351475283
0.15630754179458153,1946.6470121207306
0.16244350109588662,1795.9531116381352
0.16882033167003618,1649.8001252497338
0.17544748908334581,1513.204614724367
0.1823348000868439,1388.3685642204239
0.189492477187382,1276.323768330506
0.19693113379074215,1173.4159246908443
0.20466179993919872,1077.5836586120636
0.21269593866686892,987.7330533261176
0.22104546299710207,905.1661850864675
0.22972275360711503,829.707633764696
0.23874067718606454,760.4056329070157
0.2481126055137766,696.3261768990086
0.25785243528842716,637.2275314342552
0.26797460873256895,583.0149019506654
0.27849413500806414,533.279255467732
0.28942661247167484,487.543344948981
0.3007882518043098,445.50927957077033
0.31259590004822796,406.9844929894134
0.324867065587837,371.6550501669106
0.3376199441111335,339.26495404044636
0.35087344559027084,309.59765868698474
0.36464722232127456,282.43125074707314
0.37896169806447155,257.5643028260741
0.3938380983288488,234.81234691941052
0.4092984818452433,213.996052829552
0.4253657732750382,194.97066535269067
0.44206379720285277,177.56599045499564
0.45941731346364734,161.66475592291027
0.47745205385661277,147.14019977178484
0.4961947603002895,133.87982793196602
0.5156732244854959,121.77994154552763
0.5359163290848509,110.74425063463521
0.556954090580013,100.68119351327559
0.5788177037701272,91.5075041321535
0.6015395880274836,83.1471063684901
0.6251534353689703,75.53018186183282
0.6496942604146115,68.59267945858002
0.6751984523072497,62.27586445652621
0.7017038286703824,56.52598407331124
0.7292496916841444,51.293844765305245
0.7578768863625915,46.534339300314535
0.7876278611187046,42.206122225374905
0.8185467307069019,38.27131431551289
0.850679341636415,34.69522101494513
0.8840733401525058,31.446055002707844
0.9187782428863317,28.494736234255853
0.9548455102782278,25.814683392591927
0.9923286228832539,23.381608531255175
1.0312831606721837,21.17332732743975
1.0717668854455022,19.169573737285706
1.1138398264826193,17.351840819656896
1.1575643695533022,15.703249181912433
1.2030053494233226,14.208409682244017
1.2502301459914542,12.853296163412036
1.299308784200415,11.625130291118161
1.3503140378698726,10.512281575336832
1.4033215376054824,9.504159304772763
1.4584098829439835,8.591118706742979
1.5156607589006013,7.76437938758348
1.575159057091621,7.01595040861024
1.6369930016117014,6.338556123570224
1.7012542798525885,5.725572717092212
1.7680381784572046,5.170980909086697
1.8374437246107238,4.669312908692805
1.9095738328780953,4.215603022826254
1.9845354578058014,3.8053431708629253
2.0624397525140905,3.4344452374311287
2.143402233514853,3.099199461041136
2.227542951999554,2.7962380615612594
2.314986671851158,2.5225045599679428
2.405863054644063,2.275225758901909
2.5003068519063225,2.0518848178952047
2.598458104929248,1.8501973400965033
2.7004623524206774,1.6680931332381046
2.806470846309834,1.5036968196351428
2.916640776023701,1.3553098299023958
3.031135501567576,1.2213940877317484
3.150124795755327,1.1005575995122774
3.2737850959485697,0.9915404373212916
3.4022997656780634,0.893202082324054
3.5358593665351745,0.8045103199971795
3.6746619407366854,0.724531148765591
3.8189133047818515,0.6524195408124394
3.968827354637162,0.5874110515337244
4.1246263829013445,0.5288144322330803
4.286541408420921,0.47600476303500433
4.4548125188449825,0.4284171917289007
4.629689226627261,0.38554124882570606
4.811430839003257,0.34691565443818023
5.000306842491082,0.3121236766580727
5.196597302486189,0.2807889277126867
5.400593278542364,0.25257151544436923
5.612597255954967,0.22716455506430944
5.8329235942862,0.20429098659861883
6.06189899349756,0.18370068182022714
6.29986297838068,0.16516792547158987
6.547168402004727,0.14848907487077329
6.804181968927091,0.13348042747934236
7.071284778942991,0.11997629706001914
7.348872892180382,0.10782734956092635
7.637357916378006,0.09689897087855377
7.937167617217536,0.08706975332956346
8.248746552614573,0.07823021714093485
8.572556731909314,0.0702816560955227
8.909078300934132,0.06313502304524714
9.258810253973934,0.056709841462599685
9.622271173675122,0.05093363103784485
9.999999999999984,0.04574117741837158
