k [1/Mpc],P(k) [Mpc^3]
0.0001,1694.409409492322
0.00010392556829367125,1755.7917858221597
0.00010800523745162529,1819.3933748990114
0.00011224505680853065,1885.2939257202513
0.00011665131316981963,1953.5759422588708
0.00012123054013376525,2024.3248169416488
0.00012598952777950273,2097.628845316219
0.00013093533273536104,2173.5794068845175
0.00013607528864243335,2252.2711199901346
0.00014141701702890234,2333.8019584182684
0.00014696843861124463,2418.273308972307
0.00015273778503907136,2505.78993254887
0.00015873361110102093,2596.4601765914563
0.00016496480740980205,2690.3960953874644
0.0001714406135851971,2787.7135262900515
0.00017817063195457305,2888.532278108141
0.00018516484179121546,2992.976117180106
0.000192433614111598,3101.1729522476817
0.00019998772705352857,3213.254968523079
0.0002078383818579757,3329.358612478205
0.00021599721947827182,3449.6248823273095
0.0002244763378413224,3574.1993027346157
0.0002332883097864157,3703.2320681564297
0.00024244620170823283,3836.8782868357816
0.0002519635929317015,3975.297922614935
0.0002618545958474233,4118.656094037467
0.0002721338768375308,4267.122869927805
0.0002828166780230032,4420.873210343337
0.0002939188398646886,4580.0875389648345
0.0003054568246515432,4744.951641831759
0.00031744774091091926,4915.656952468512
0.00032990936877709396,5092.400444807023
0.00034286018635565856,5275.38429735011
0.00035631939712285854,5464.816610502942
0.000370306958400514,5660.911250537607
0.00038484361094874304,5863.888055263629
0.0003999509097203664,6073.972839205395
0.00041565125582259895,6291.396566971944
0.00043196792973341727,6516.396287571734
0.0004489251258218605,6749.2148260103595
0.0004665479882234472,6990.100735601544
0.000484862648123908,7239.308763499565
0.000503896262506515,7497.098867613432
0.0005236770544204653,7763.736944325784
0.0005442343548300266,8039.494526293849
0.0005655986461065005,8324.64820324318
0.0005878016072274912,8619.480426877866
0.0006108761607505036,8924.27784858132
0.0006348565216305217,9239.33189917982
0.0006597782479539537,9564.939022098057
0.0006856782936641739,9901.399433791516
0.0007125950633568407,10249.018117671243
0.0007405684692262436,10608.102524357975
0.0007696399902471156,10978.9624100205
0.0007998527336796708,11361.910513922014
0.000831251498989063,11757.25897300207
0.0008638828442740447,12165.321514886578
0.000897795155303332,12586.411807277833
0.0009330387172620361,13020.84195080225
0.0009696657893145519,13468.92366591275
0.001007730682094461,13930.962196979
0.0010472898382363582,14407.258544103433
0.0010884019160690055,14898.109038406354
0.0011311278765939214,15403.801817780963
0.001175531073878369,15924.619124963569
0.0012216773489967915,16460.83098071633
0.0012696351276599736,17012.695385050516
0.0013194755216767058,17580.459063327722
0.0013712724343984,18164.351368430078
0.0014251026703029975,18764.58734500475
0.0014810460488806749,19381.3610431874
0.0015391855229902056,20014.84278915509
0.001599607301861487,20665.182480728236
0.0016624009789266115,21332.5020504039
0.0017276596646690358,22016.89771922143
0.0017954801246878305,22718.43445554555
0.0018659629231817451,23437.139377951607
0.001939212572065829,24173.007053328518
0.0020153376859417325,24925.991075405964
0.002094451143151469,25696.004711638696
0.002176670253153458,26482.916770319636
0.002262116930469025,27286.539177965584
0.002350917875457286,28106.635614804123
0.002443204762186487,28942.913586929295
0.0025391144336803463,29795.022476706792
0.002638789104828933,30662.553230036312
0.002742376573264949,31545.021991789607
0.0028500304385181063,32441.87893628893
0.0029619103297725525,33352.4976899975
0.0030781821425650787,34276.167725652
0.003199018284775064,35212.10241388602
0.0033245979322709396,36159.411817096094
0.003455107294592217,37117.114982084044
0.0035907398910610534,38084.13993073353
0.0037316968377327513,39059.31056173324
0.0038781871456107214,40041.355052997926
0.0040304280305680515,41028.82573451392
0.00418864523543527,42020.11854966504
0.004353073364731888,43013.57907957688
0.00452395623253805,44007.629840443966
0.004701547224022131,45000.6311773878
0.004886109671160325,45990.4196220226
0.005077917243205399,46974.24990957
0.005277254352483535,47949.27019473639
0.005484416576121017,48912.831860038714
0.005699711094326071,49862.295049139
0.005923457145875801,50794.8979351033
0.006155986501483508,51707.74259607063
0.006397643955748424,52597.796985664245
0.0066487878384172625,53461.4962613674
0.0069097905457156435,54294.939832066004
0.007181039092537346,55094.15647270031
0.007462935686310132,55855.15630399209
0.007755898323389004,56573.883502369245
0.00806036140886134,57245.74212309542
0.008376776400682916,57865.686897476575
0.008705612479099857,58428.626059197784
0.009047357242349292,58929.37210265541
0.00940251742967013,59362.76813024581
0.009771619672696168,59723.38198757341
0.010155211276345676,60005.44009562145
0.010553861030365234,60203.25657729703
0.010968160052731372,60310.77837376611
0.011398722666160517,60322.032863040404
0.011846187309026826,60231.13018297112
0.012311217482038896,60032.012566406345
0.012794502732078732,59719.11675665264
0.013296759674662111,59286.81553976226
0.013818733056536317,58729.847391989475
0.014361196859990781,58043.6516865884
0.014924955450518284,57223.799069604655
0.015510844769528393,56267.013808018084
0.016119733573881575,55170.74609632563
0.01675252472408214,53933.377781391224
0.017410156523040152,52554.993449903726
0.018093604107387147,51036.65182288035
0.01880388089340914,49381.37768330745
0.019542040079740527,47594.12317516391
0.02030917620904734,45681.60558580583
0.021106426791015535,43653.09201655847
0.021934973989050584,41520.08566490194
0.02279604637318978,39296.42566566757
0.023690920741826323,36998.459974877325
0.02462092401494623,34644.937160880094
0.02558743520168586,32256.231093187005
0.02659188744512693,29855.42661116378
0.027635770147361564,27466.7919821358
0.028720631177978267,25114.508783737307
0.029848079169243254,22824.46670826273
0.03101978590138095,20619.783572916815
0.03223748878149028,18524.6188566723
0.0335029934197723,16562.594153187118
0.03481817630688963,14749.82753097419
0.03618498759642746,13099.289870493718
0.037605453996581675,11617.312212089817
0.03908168177536263,10311.964198542391
0.04061585988376978,9193.906090383663
0.04221026320156896,8261.886963355677
0.04386725591048496,7504.09139613185
0.0455892949998106,6907.835307616189
0.047378933909631396,6463.474718663937
0.049238826317067365,6161.270305462912
0.05117173007114603,5985.787617242524
0.05318051128214196,5921.521062038798
0.05526814857144601,5949.834822406587
0.057437737488265785,6047.288876480895
0.0596924950997073,6184.270116212192
0.0620357647610427,6324.577435736336
0.06447102107323864,6427.240448247415
0.06700187503509585,6449.827600861672
0.06963207939763882,6354.756408421618
0.0723655342286965,6114.746403568166
0.07520629269592405,5719.679089106281
0.07815856707684081,5181.350719435905
0.08122673500479707,4536.301408193556
0.08441534596012978,3841.5936851178835
0.0877291280161335,3162.6953303042706
0.09117299484984914,2558.8824099089866
0.09475205302806537,2071.7274943164684
0.09847160957933764,1721.0574092737495
0.1023371798632519,1508.4465094047116
0.10635449574860109,1423.743245427851
0.11052951411260206,1449.2022809856846
0.1148684256737553,1557.9540184273776
0.1193776641714435,1708.5977778566928
0.1240639159058831,1841.8650228619779
0.12893412965257148,1889.4478431605655
0.13399552696593373,1802.0860797370754
0.1392556128874462,1581.7430662038346
0.14472218707411338,1284.159449339758
0.15040335536380234,988.4654523073632
0.15630754179458153,761.5809387718244
0.16244350109588662,636.1077029676095
0.16882033167003618,610.2871823436296
0.17544748908334581,660.7733060097917
0.1823348000868439,743.1836258364931
0.189492477187382,791.2652914865149
0.19693113379074215,750.1166016614491
0.20466179993919872,624.0081595192391
0.21269593866686892,476.0895554012942
0.22104546299710207,371.98584586431497
0.22972275360711503,337.19443243074653
0.23874067718606454,359.14831330115055
0.2481126055137766,394.7194177142513
0.25785243528842716,389.616537301734
0.26797460873256895,328.971862028909
0.27849413500806414,255.4781180128639
0.28942661247167484,215.5293952971924
0.3007882518043098,216.44661969446358
0.31259590004822796,229.41733400598176
0.324867065587837,216.40389162005076
0.3376199441111335,177.8448175156786
0.35087344559027084,148.05260370889636
0.36464722232127456,143.04193707358576
0.37896169806447155,144.96413191131066
0.3938380983288488,130.99992597755448
0.4092984818452433,109.61004923588226
0.4253657732750382,100.20837077963083
0.44206379720285277,98.48141236877576
0.45941731346364734,89.42649915322139
0.47745205385661277,77.30006333273639
0.4961947603002895,72.12650818822226
0.5156732244854959,68.00231364524842
0.5359163290848509,60.340230344894074
0.556954090580013,53.949791574602415
0.5788177037701272,49.03744530376559
0.6015395880274836,45.06450567834299
0.6251534353689703,41.6232062219276
0.6496942604146115,38.41103673929852
0.6751984523072497,35.24155857484774
0.7017038286703824,32.149492344202415
0.7292496916841444,29.210537967770957
0.7578768863625915,26.47757140439024
0.7876278611187046,23.983724705803276
0.8185467307069019,21.745766097420983
0.850679341636415,19.75173350384752
0.8840733401525058,17.964769074785902
0.9187782428863317,16.35288356219918
0.9548455102782278,14.88996581598323
0.9923286228832539,13.5547051469891
1.0312831606721837,12.330410630900076
1.0717668854455022,11.208187389240358
1.1138398264826193,10.181927354377601
1.1575643695533022,9.245454543398589
1.2030053494233226,8.392611103312351
1.2502301459914542,7.617338426127953
1.299308784200415,6.913361092485937
1.3503140378698726,6.274011842722624
1.4033215376054824,5.693181121188538
1.4584098829439835,5.165373272442376
1.5156607589006013,4.685640190042081
1.575159057091621,4.249532574263127
1.6369930016117014,3.8531491228553922
1.7012542798525885,3.49300528642439
1.7680381784572046,3.1659055858707337
1.8374437246107238,2.8689203113909
1.9095738328780953,2.599365438193948
1.9845354578058014,2.3547753613303017
2.0624397525140905,2.1328721962630564
2.143402233514853,1.9315781887672867
2.227542951999554,1.749003850253335
2.314986671851158,1.58343104035661
2.405863054644063,1.4332977718632085
2.5003068519063225,1.2971882552631069
2.598458104929248,1.1738180562295932
2.7004623524206774,1.0620175833452905
2.806470846309834,0.9607219654555806
2.916640776023701,0.8689619758901684
3.031135501567576,0.7858552693988151
3.150124795755327,0.7105973998252909
3.2737850959485697,0.6424569637820281
3.4022997656780634,0.580769746410022
3.5358593665351745,0.5249326433677909
3.6746619407366854,0.4743981333323778
3.8189133047818515,0.4286696643980504
3.968827354637162,0.3872970250003131
4.1246263829013445,0.3498714414141036
4.286541408420921,0.31602180063394264
4.4548125188449825,0.28541125861678746
4.629689226627261,0.2577340949865683
4.811430839003257,0.23271261188322018
5.000306842491082,0.21009489395286662
5.196597302486189,0.18965262629295807
5.400593278542364,0.17117891404703858
5.612597255954967,0.15448629989604118
5.8329235942862,0.13940500431425282
6.06189899349756,0.1257813102807767
6.29986297838068,0.11347597622384498
6.547168402004727,0.1023628829081131
6.804181968927091,0.09232781607316673
7.071284778942991,0.08326736235156748
7.348872892180382,0.07508792723997763
7.637357916378006,0.06770480084188348
7.937167617217536,0.06104130836313231
8.248746552614573,0.055028059956171445
8.572556731909314,0.0496022695589317
8.909078300934132,0.044707073902456665
9.258810253973934,0.040290879833545075
9.622271173675122,0.03630706485142672
9.999999999999984,0.032713536233802146
