k [1/Mpc],P(k) [Mpc^3]
0.0001,245.86644938026217
0.00010392556829367125,256.9721003031218
0.00010800523745162529,268.57723425041803
0.00011224505680853065,280.70404319458197
0.00011665131316981963,293.3756741304406
0.00012123054013376525,306.6162749077337
0.00012598952777950273,320.45101329997476
0.00013093533273536104,334.9061088623596
0.00013607528864243335,350.00889684878507
0.00014141701702890234,365.78784093159203
0.00014696843861124463,382.2725972891355
0.00015273778503907136,399.4940552086195
0.00015873361110102093,417.48436488555296
0.00016496480740980205,436.27701140051556
0.0001714406135851971,455.9068139652586
0.00017817063195457305,476.40999369109863
0.00018516484179121546,497.8242234974503
0.000192433614111598,520.1886168440388
0.00019998772705352857,543.543842518964
0.0002078383818579757,567.9321188884893
0.00021599721947827182,593.3972678519805
0.0002244763378413224,619.984794832288
0.0002332883097864157,647.7418381159094
0.00024244620170823283,676.7173017614965
0.0002519635929317015,706.9618464436671
0.0002618545958474233,738.5279039649485
0.0002721338768375308,771.4697914679382
0.0002828166780230032,805.8435646013595
0.0002939188398646886,841.7071729013978
0.0003054568246515432,879.1205009317051
0.00031744774091091926,918.1453277334185
0.00032990936877709396,958.8454639731005
0.00034286018635565856,1001.2865634924508
0.00035631939712285854,1045.5362269962613
0.000370306958400514,1091.6640559392306
0.00038484361094874304,1139.7414762833366
0.0003999509097203664,1189.8419467982187
0.00041565125582259895,1242.0407828920554
0.00043196792973341727,1296.4151620037694
0.0004489251258218605,1353.0441912858546
0.0004665479882234472,1412.0085564330338
0.000484862648123908,1473.3907553942602
0.000503896262506515,1537.2748786799061
0.0005236770544204653,1603.7464541798543
0.0005442343548300266,1672.8925854674803
0.0005655986461065005,1744.80133943059
0.0005878016072274912,1819.5619626075102
0.0006108761607505036,1897.2645555341423
0.0006348565216305217,1977.999523970517
0.0006597782479539537,2061.857960459757
0.0006856782936641739,2148.9306643019845
0.0007125950633568407,2239.3082264088775
0.0007405684692262436,2333.0807929669536
0.0007696399902471156,2430.3369000584216
0.0007998527336796708,2531.1640920962395
0.000831251498989063,2635.647689631986
0.0008638828442740447,2743.870477758256
0.000897795155303332,2855.9127201908505
0.0009330387172620361,2971.850286694727
0.0009696657893145519,3091.755394966854
0.001007730682094461,3215.69688543419
0.0010472898382363582,3343.739872518784
0.0010884019160690055,3475.9442700535656
0.0011311278765939214,3612.3605701054526
0.001175531073878369,3753.031280773493
0.0012216773489967915,3897.991606269065
0.0012696351276599736,4047.268708864366
0.0013194755216767058,4200.881078910853
0.0013712724343984,4358.836705152807
0.0014251026703029975,4521.132755035885
0.0014810460488806749,4687.755075552434
0.0015391855229902056,4858.6767416904495
0.001599607301861487,5033.8580163838105
0.0016624009789266115,5213.244483666568
0.0017276596646690358,5396.766361230951
0.0017954801246878305,5584.338280059004
0.0018659629231817451,5775.857240082869
0.001939212572065829,5971.202945696248
0.0020153376859417325,6170.236484113807
0.002094451143151469,6372.799331911641
0.002176670253153458,6578.713568016544
0.002262116930469025,6787.780371693568
0.002350917875457286,6999.780068401772
0.002443204762186487,7214.470118632262
0.0025391144336803463,7431.583047720225
0.002638789104828933,7650.829048819512
0.002742376573264949,7871.8979432385295
0.0028500304385181063,8094.458358209527
0.0029619103297725525,8318.140924907551
0.0030781821425650787,8542.511847036594
0.003199018284775064,8767.109584859569
0.0033245979322709396,8991.548712588972
0.003455107294592217,9215.511430285866
0.0035907398910610534,9438.586683374806
0.0037316968377327513,9660.007155011457
0.0038781871456107214,9878.885434567774
0.0040304280305680515,10094.517044150816
0.00418864523543527,10306.442672615804
0.004353073364731888,10514.165104835727
0.00452395623253805,10716.884835804965
0.004701547224022131,10913.670427636083
0.004886109671160325,11103.689143643667
0.005077917243205399,11286.308546351986
0.005277254352483535,11460.895317800183
0.005484416576121017,11626.59594995046
0.005699711094326071,11782.430913818836
0.005923457145875801,11927.402975488607
0.006155986501483508,12060.485940122653
0.006397643955748424,12180.653720189131
0.0066487878384172625,12286.83939410836
0.0069097905457156435,12377.954637051535
0.007181039092537346,12452.933908429828
0.007462935686310132,12510.721903246416
0.007755898323389004,12550.305667021254
0.00806036140886134,12570.595175766875
0.008376776400682916,12570.416877218577
0.008705612479099857,12548.663909744388
0.009047357242349292,12504.22422005331
0.00940251742967013,12436.078030870602
0.009771619672696168,12343.272814624077
0.010155211276345676,12224.890295033721
0.010553861030365234,12080.184800457002
0.010968160052731372,11908.435962252765
0.011398722666160517,11709.08441916104
0.011846187309026826,11481.796503124264
0.012311217482038896,11226.39028267236
0.012794502732078732,10943.015631053047
0.013296759674662111,10632.05188269527
0.013818733056536317,10294.18139757908
0.014361196859990781,9930.500772679505
0.014924955450518284,9542.449272236441
0.015510844769528393,9131.908838917607
0.016119733573881575,8701.233678144223
0.01675252472408214,8253.217044288409
0.017410156523040152,7791.076027484267
0.018093604107387147,7318.605071771853
0.01880388089340914,6839.855002931271
0.019542040079740527,6359.26238238462
0.02030917620904734,5881.634490635257
0.021106426791015535,5411.601431929987
0.021934973989050584,4954.468384950818
0.02279604637318978,4515.151271382548
0.023690920741826323,4098.135902956111
0.02462092401494623,3708.0990151218048
0.02558743520168586,3348.2409469277827
0.02659188744512693,3021.3392450418605
0.027635770147361564,2729.2573477823266
0.028720631177978267,2472.8564432015364
0.029848079169243254,2253.563388736247
0.03101978590138095,2071.7785307438985
0.03223748878149028,1926.8137212904712
0.0335029934197723,1817.6330377101508
0.03481817630688963,1742.9001843326673
0.03618498759642746,1698.9418846153808
0.037605453996581675,1682.5971917446648
0.03908168177536263,1690.2106120683209
0.04061585988376978,1717.9502588168466
0.04221026320156896,1760.3528009608308
0.04386725591048496,1810.059909585819
0.0455892949998106,1856.4484421421769
0.047378933909631396,1886.8043344909308
0.049238826317067365,1889.8057098846036
0.05117173007114603,1856.7306498894375
0.05318051128214196,1783.3362888826266
0.05526814857144601,1668.9839818555004
0.057437737488265785,1517.7911495869255
0.0596924950997073,1339.2627557644194
0.0620357647610427,1146.4514172170916
0.06447102107323864,957.6767513106462
0.06700187503509585,791.1807100834143
0.06963207939763882,657.7953768046416
0.0723655342286965,562.7030649346151
0.07520629269592405,506.09226377626413
0.07815856707684081,484.8951862769624
0.08122673500479707,493.49192940833905
0.08441534596012978,523.8991037222943
0.0877291280161335,564.2349204112213
0.09117299484984914,598.3229115970394
0.09475205302806537,608.1770888720034
0.09847160957933764,580.3957922910855
0.1023371798632519,515.9823966960623
0.10635449574860109,431.3023372914831
0.11052951411260206,346.80110882089514
0.1148684256737553,279.61709504767595
0.1193776641714435,240.00163028513435
0.1240639159058831,228.41026253704908
0.12893412965257148,237.55004201423193
0.13399552696593373,255.338820576117
0.1392556128874462,265.4818347906887
0.14472218707411338,254.3033117582012
0.15040335536380234,221.8711943711444
0.15630754179458153,181.61099441454877
0.16244350109588662,150.259779543302
0.16882033167003618,135.44239840997705
0.17544748908334581,135.0322613930569
0.1823348000868439,139.62459423092307
0.189492477187382,137.05866315272021
0.19693113379074215,122.98835665695279
0.20466179993919872,104.19429059898273
0.21269593866686892,90.83948173090936
0.22104546299710207,85.97262383518901
0.22972275360711503,85.06979950691654
0.23874067718606454,80.99588750881802
0.2481126055137766,72.18876282818242
0.25785243528842716,63.550787478508305
0.26797460873256895,58.81864134054952
0.27849413500806414,56.30326978401838
0.28942661247167484,52.39356046536444
0.3007882518043098,47.05836732734842
0.31259590004822796,42.839562870501226
0.324867065587837,40.12766044080163
0.3376199441111335,37.19810697818208
0.35087344559027084,33.80593459137733
0.36464722232127456,31.03308416439642
0.37896169806447155,28.777953384276998
0.3938380983288488,26.39878610374363
0.4092984818452433,24.169983209478207
0.4253657732750382,22.293690397066126
0.44206379720285277,20.46871898517792
0.45941731346364734,18.7681703499326
0.47745205385661277,17.218790890432363
0.4961947603002895,15.803723446630505
0.5156732244854959,14.508054554242197
0.5359163290848509,13.31891548929782
0.556954090580013,12.225184053865446
0.5788177037701272,11.217243742719884
0.6015395880274836,10.287634912054383
0.6251534353689703,9.431135068489388
0.6496942604146115,8.642882664137646
0.6751984523072497,7.91820420471086
0.7017038286703824,7.25262802076466
0.7292496916841444,6.641885121915147
0.7578768863625915,6.081715783977474
0.7876278611187046,5.567946043213086
0.8185467307069019,5.096741210712279
0.850679341636415,4.664588576881101
0.8840733401525058,4.2682695028100195
0.9187782428863317,3.9048377099711917
0.9548455102782278,3.571631087043441
0.9923286228832539,3.2662212750841833
1.0312831606721837,2.9863659391672304
1.0717668854455022,2.72999507257216
1.1138398264826193,2.4951986680408798
1.1575643695533022,2.2802137923786585
1.2030053494233226,2.0834077042441117
1.2502301459914542,1.903275546478956
1.299308784200415,1.7384340429343879
1.3503140378698726,1.5876119539429143
1.4033215376054824,1.449641249962782
1.4584098829439835,1.323449358344794
1.5156607589006013,1.2080523867583517
1.575159057091621,1.1025467183826732
1.6369930016117014,1.0061023651001064
1.7012542798525885,0.917957167271412
1.7680381784572046,0.8374114298721892
1.8374437246107238,0.7638227985714099
1.9095738328780953,0.6966015931769685
1.9845354578058014,0.6352069587716505
2.0624397525140905,0.579142974501606
2.143402233514853,0.5279550188395836
2.227542951999554,0.4812264184977604
2.314986671851158,0.4385753332946995
2.405863054644063,0.3996519192818678
2.5003068519063225,0.3641357505614335
2.598458104929248,0.3317334062868259
2.7004623524206774,0.30217624768462004
2.806470846309834,0.2752183688562747
2.916640776023701,0.250634667726922
3.031135501567576,0.22821915231976633
3.150124795755327,0.20778339520593123
3.2737850959485697,0.18915506671689378
3.4022997656780634,0.1721765867884817
3.5358593665351745,0.1567038917566732
3.6746619407366854,0.14260532302733755
3.8189133047818515,0.12976055470986422
3.968827354637162,0.11805962211500666
4.1246263829013445,0.10740204710695
4.286541408420921,0.09769603561763975
4.4548125188449825,0.08885773235775275
4.629689226627261,0.08081052380148321
4.811430839003257,0.07348445693813445
5.000306842491082,0.06681567925232092
5.196597302486189,0.06074591506124735
5.400593278542364,0.05522198598037765
5.612597255954967,0.0501953682184644
5.8329235942862,0.04562178778785758
6.06189899349756,0.04146086222371776
6.29986297838068,0.03767576454133174
6.547168402004727,0.03423291447685172
6.804181968927091,0.031101696478477818
7.071284778942991,0.02825421600674544
7.348872892180382,0.02566506227007982
7.637357916378006,0.023311068860963617
7.937167617217536,0.021171117416227028
8.248746552614573,0.019225959698298118
8.572556731909314,0.017458051651395176
8.909078300934132,0.015851357979007285
9.258810253973934,0.014391245612338063
9.622271173675122,0.013064407762567455
9.999999999999984,0.011858744667782816
