k [1/Mpc],P(k) [Mpc^3]
0.0001,306.0252190991882
0.00010392556829367125,316.2054494076456
0.00010800523745162529,326.72422485601396
0.00011224505680853065,337.5927809667545
0.00011665131316981963,348.8227299642145
0.00012123054013376525,360.42607784945835
0.00012598952777950273,372.41522913560533
0.00013093533273536104,384.8029914689076
0.00013607528864243335,397.60259131881816
0.00014141701702890234,410.8276910409611
0.00014696843861124463,424.492400255387
0.00015273778503907136,438.6112940775074
0.00015873361110102093,453.19944122587185
0.00016496480740980205,468.27242195728525
0.0001714406135851971,483.84632570548354
0.00017817063195457305,499.93772967712965
0.00018516484179121546,516.5637401114706
0.000192433614111598,533.742047342393
0.00019998772705352857,551.4909649107838
0.0002078383818579757,569.8294102762467
0.00021599721947827182,588.7768636780527
0.0002244763378413224,608.3534054118484
0.0002332883097864157,628.5797897474383
0.00024244620170823283,649.4775113634146
0.0002519635929317015,671.0687812152526
0.0002618545958474233,693.3764820459925
0.0002721338768375308,716.424183966542
0.0002828166780230032,740.2362252642293
0.0002939188398646886,764.8377718625015
0.0003054568246515432,790.2548207338527
0.00031744774091091926,816.5141751400687
0.00032990936877709396,843.6434391058033
0.00034286018635565856,871.6711003862702
0.00035631939712285854,900.6265965566965
0.000370306958400514,930.5403330882795
0.00038484361094874304,961.4436653693128
0.0003999509097203664,993.3688688759389
0.00041565125582259895,1026.3492282546638
0.00043196792973341727,1060.419052618031
0.0004489251258218605,1095.6137042553942
0.0004665479882234472,1131.9696567686372
0.000484862648123908,1169.5245323750935
0.000503896262506515,1208.3171326279005
0.0005236770544204653,1248.387380485679
0.0005442343548300266,1289.7762851882412
0.0005655986461065005,1332.5261036670054
0.0005878016072274912,1376.6804521542729
0.0006108761607505036,1422.284320674804
0.0006348565216305217,1469.3839837673513
0.0006597782479539537,1518.0268592223917
0.0006856782936641739,1568.2617280121572
0.0007125950633568407,1620.1388087926487
0.0007405684692262436,1673.7097951917958
0.0007696399902471156,1729.0278714105596
0.0007998527336796708,1786.147651281418
0.000831251498989063,1845.125281725697
0.0008638828442740447,1906.0183370514185
0.000897795155303332,1968.8857300477591
0.0009330387172620361,2033.787966023038
0.0009696657893145519,2100.787153115959
0.001007730682094461,2169.947053769776
0.0010472898382363582,2241.3330384618143
0.0010884019160690055,2315.0119271466006
0.0011311278765939214,2391.0522089713327
0.001175531073878369,2469.5238563885227
0.0012216773489967915,2550.498342252093
0.0012696351276599736,2634.048773798977
0.0013194755216767058,2720.2495308456605
0.0013712724343984,2809.1765549054912
0.0014251026703029975,2900.9072008449057
0.0014810460488806749,2995.520055873654
0.0015391855229902056,3093.095248382007
0.001599607301861487,3193.7140395324845
0.0016624009789266115,3297.4589912381566
0.0017276596646690358,3404.4138097672426
0.0017954801246878305,3514.6626831247936
0.0018659629231817451,3628.290932125038
0.001939212572065829,3745.384686098625
0.0020153376859417325,3866.0308384035566
0.002094451143151469,3990.3171060318455
0.002176670253153458,4118.331114184506
0.002262116930469025,4250.160941433542
0.002350917875457286,4385.894378709818
0.002443204762186487,4525.618264767624
0.0025391144336803463,4669.419453106213
0.002638789104828933,4817.384379245155
0.002742376573264949,4969.599096645653
0.0028500304385181063,5126.148383561938
0.0029619103297725525,5287.11401334773
0.0030781821425650787,5452.57627281708
0.003199018284775064,5622.613145518264
0.0033245979322709396,5797.300118917105
0.003455107294592217,5976.71013738315
0.0035907398910610534,6160.911413732802
0.0037316968377327513,6349.968603809762
0.0038781871456107214,6543.94185040143
0.0040304280305680515,6742.885762558117
0.00418864523543527,6946.850189853457
0.004353073364731888,7155.877146828367
0.00452395623253805,7370.001684395941
0.004701547224022131,7589.251757480772
0.004886109671160325,7813.646084359447
0.005077917243205399,8043.195471427029
0.005277254352483535,8277.899008607868
0.005484416576121017,8517.743806063743
0.005699711094326071,8762.706577856225
0.005923457145875801,9012.750804197161
0.006155986501483508,9267.827942075573
0.006397643955748424,9527.872364694644
0.0066487878384172625,9792.798165078695
0.0069097905457156435,10062.505220574229
0.007181039092537346,10336.883160537838
0.007462935686310132,10615.808803680486
0.007755898323389004,10899.129267442268
0.00806036140886134,11186.640433161401
0.008376776400682916,11478.112520409311
0.008705612479099857,11773.302231428977
0.009047357242349292,12071.951307360541
0.00940251742967013,12373.779363503025
0.009771619672696168,12678.481982810104
0.010155211276345676,12985.731016069098
0.010553861030365234,13295.158162167194
0.010968160052731372,13606.347513437453
0.011398722666160517,13918.852992784656
0.011846187309026826,14232.190544909563
0.012311217482038896,14545.8429581607
0.012794502732078732,14859.258734764073
0.013296759674662111,15171.844811991097
0.013818733056536317,15482.976400073092
0.014361196859990781,15791.987036852788
0.014924955450518284,16098.171565545268
0.015510844769528393,16400.792011128142
0.016119733573881575,16699.065439219554
0.01675252472408214,16992.17792585405
0.017410156523040152,17279.283598744758
0.018093604107387147,17559.50447247151
0.01880388089340914,17831.940127413618
0.019542040079740527,18095.66196029558
0.02030917620904734,18349.722186348
0.021106426791015535,18593.16352452277
0.021934973989050584,18825.025029259246
0.02279604637318978,19044.345081497824
0.023690920741826323,19250.17666237326
0.02462092401494623,19441.58988184046
0.02558743520168586,19617.679477832666
0.02659188744512693,19777.599427465746
0.027635770147361564,19920.540357273934
0.028720631177978267,20045.758164453255
0.029848079169243254,20152.58766154102
0.03101978590138095,20240.42776258964
0.03223748878149028,20308.851113042758
0.0335029934197723,20357.536112358073
0.03481817630688963,20386.19268131012
0.03618498759642746,20394.537422945083
0.037605453996581675,20382.376203766653
0.03908168177536263,20350.051824385177
0.04061585988376978,20298.303075561624
0.04221026320156896,20227.66663989142
0.04386725591048496,20137.787301468798
0.0455892949998106,20028.18082348143
0.047378933909631396,19899.06194534678
0.049238826317067365,19751.443187453144
0.05117173007114603,19586.37764996986
0.05318051128214196,19404.71007829103
0.05526814857144601,19207.215587751616
0.057437737488265785,18994.16354199415
0.0596924950997073,18764.81809558097
0.0620357647610427,18518.420119719445
0.06447102107323864,18254.304082563463
0.06700187503509585,17971.91728700804
0.06963207939763882,17671.12174552575
0.0723655342286965,17352.573182422544
0.07520629269592405,17017.16295450614
0.07815856707684081,16666.14303938653
0.08122673500479707,16300.878700370735
0.08441534596012978,15922.647798908634
0.0877291280161335,15532.812211410777
0.09117299484984914,15133.295350911474
0.09475205302806537,14726.448855069348
0.09847160957933764,14315.357287582305
0.1023371798632519,13902.859876588793
0.10635449574860109,13491.146685150155
0.11052951411260206,13080.866622093776
0.1148684256737553,12671.685235551115
0.1193776641714435,12262.729357093196
0.1240639159058831,11853.278834230377
0.12893412965257148,11443.0545559476
0.13399552696593373,11031.3473135943
0.1392556128874462,10617.471912518311
0.14472218707411338,10205.442356798263
0.15040335536380234,9797.782492206125
0.15630754179458153,9394.942844157931
0.16244350109588662,9000.019808404984
0.16882033167003618,8614.652028259348
0.17544748908334581,8238.990412124798
0.1823348000868439,7872.241500554243
0.189492477187382,7513.4671213585025
0.19693113379074215,7162.504141464492
0.20466179993919872,6819.543048353133
0.21269593866686892,6484.60716727136
0.22104546299710207,6158.786345390099
0.22972275360711503,5844.104824550146
0.23874067718606454,5541.1682353661
0.2481126055137766,5249.555895784183
0.25785243528842716,4969.003103946306
0.26797460873256895,4698.503935938086
0.27849413500806414,4437.52898459004
0.28942661247167484,4186.553974950821
0.3007882518043098,3945.990808039607
0.31259590004822796,3716.2334228582044
0.324867065587837,3497.0608222913183
0.3376199441111335,3287.841286639723
0.35087344559027084,3087.95358092098
0.36464722232127456,2897.6150269049376
0.37896169806447155,2716.977099678986
0.3938380983288488,2545.641588309221
0.4092984818452433,2382.8061523112897
0.4253657732750382,2228.3882195032425
0.44206379720285277,2082.5644568422745
0.45941731346364734,1944.8849908945178
0.47745205385661277,1814.667671677311
0.4961947603002895,1691.899585346964
0.5156732244854959,1576.3916451471755
0.5359163290848509,1467.5228868185368
0.556954090580013,1365.1913490708112
0.5788177037701272,1269.1966525229634
0.6015395880274836,1178.9834595979612
0.6251534353689703,1094.5035377251602
0.6496942604146115,1015.3941035832238
0.6751984523072497,941.3447091424313
0.7017038286703824,872.2009039375155
0.7292496916841444,807.5455469465396
0.7578768863625915,747.2784539803946
0.7876278611187046,691.0190508748052
0.8185467307069019,638.6540136720018
0.850679341636415,589.8641162925103
0.8840733401525058,544.5282471401674
0.9187782428863317,502.3511230113003
0.9548455102782278,463.18781235643894
0.9923286228832539,426.8521662783951
1.0312831606721837,393.16091048275064
1.0717668854455022,361.9407701325649
1.1138398264826193,333.0280907073634
1.1575643695533022,306.26849629599536
1.2030053494233226,281.5172770715547
1.2502301459914542,258.63868667772476
1.299308784200415,237.50465126661473
1.3503140378698726,217.9944542925012
1.4033215376054824,199.99445678081528
1.4584098829439835,183.39778842590655
1.5156607589006013,168.10387725811006
1.575159057091621,154.0183381236579
1.6369930016117014,141.05281719434524
1.7012542798525885,129.12468876752374
1.7680381784572046,118.1567576752794
1.8374437246107238,108.07695627687987
1.9095738328780953,98.81802308806097
1.9845354578058014,90.31729238882727
2.0624397525140905,82.51644820483988
2.143402233514853,75.36126639838929
2.227542951999554,68.80136756835188
2.314986671851158,62.78996666377486
2.405863054644063,57.283634687254
2.5003068519063225,52.24212202559144
2.598458104929248,47.628157087037
2.7004623524206774,43.40724945842397
2.806470846309834,39.54750336281791
2.916640776023701,36.01942902761159
3.031135501567576,32.795778415025474
3.150124795755327,29.851408854971233
3.2737850959485697,27.163135211493955
3.4022997656780634,24.70958975029399
3.5358593665351745,22.471090323238297
3.6746619407366854,20.42951177121355
3.8189133047818515,18.56817509637197
3.968827354637162,16.871745205216953
4.1246263829013445,15.32612988289154
4.286541408420921,13.918385514482143
4.4548125188449825,12.636628769653514
4.629689226627261,11.46995241404259
4.811430839003257,10.408352559571263
5.000306842491082,9.442659487866297
5.196597302486189,8.564471832191325
5.400593278542364,7.766095563286207
5.612597255954967,7.0404856470171175
5.8329235942862,6.381190547749653
6.06189899349756,5.782310394282459
6.29986297838068,5.238453144733996
6.547168402004727,4.744692649292895
6.804181968927091,4.296530035191234
7.071284778942991,3.8898615545399067
7.348872892180382,3.520946761630409
7.637357916378006,3.1863711884387365
7.937167617217536,2.883018580718264
8.248746552614573,2.6080460517524156
8.572556731909314,2.358860581241876
8.909078300934132,2.1330860505258125
9.258810253973934,1.9285496536837432
9.622271173675122,1.7432784649292865
9.999999999999984,1.5754816191495389
