k [1/Mpc],P(k) [Mpc^3]
0.0001,212.9084986335542
0.00010392556829367125,219.99006277370958
0.00010800523745162529,227.30699803701782
0.00011224505680853065,234.86711080049426
0.00011665131316981963,242.67846442683302
0.00012123054013376525,250.74938402069156
0.00012598952777950273,259.0884678646819
0.00013093533273536104,267.70459544460766
0.00013607528864243335,276.60693582544104
0.00014141701702890234,285.80495910030845
0.00014696843861124463,295.3084449524032
0.00015273778503907136,305.12749350459274
0.00015873361110102093,315.2725349472012
0.00016496480740980205,325.75433887549474
0.0001714406135851971,336.58402645545783
0.00017817063195457305,347.7730731712166
0.00018516484179121546,359.33332308413173
0.000192433614111598,371.2770025589761
0.00019998772705352857,383.61672610411745
0.0002078383818579757,396.36551539852076
0.00021599721947827182,409.5368097715719
0.0002244763378413224,423.14447946721924
0.0002332883097864157,437.20284136406815
0.00024244620170823283,451.7266695086754
0.0002519635929317015,466.73121161218546
0.0002618545958474233,482.23217730578506
0.0002721338768375308,498.2457413949639
0.0002828166780230032,514.7885910892903
0.0002939188398646886,531.8779570477818
0.0003054568246515432,549.5316220073405
0.00031744774091091926,567.7679034630644
0.00032990936877709396,586.6056413890666
0.00034286018635565856,606.0642534898003
0.00035631939712285854,626.1637269942868
0.000370306958400514,646.9246447971609
0.00038484361094874304,668.3682248758959
0.0003999509097203664,690.5163470900222
0.00041565125582259895,713.3915577618292
0.00043196792973341727,737.0169975207285
0.0004489251258218605,761.4164185725107
0.0004665479882234472,786.6142660213561
0.000484862648123908,812.6356746335236
0.000503896262506515,839.5065042974283
0.0005236770544204653,867.25332474614
0.0005442343548300266,895.9034166176456
0.0005655986461065005,925.4848164795528
0.0005878016072274912,956.0262382274421
0.0006108761607505036,987.5571440665462
0.0006348565216305217,1020.1077745956419
0.0006597782479539537,1053.709136827608
0.0006856782936641739,1088.393045046629
0.0007125950633568407,1124.1919737109597
0.0007405684692262436,1161.1391214043792
0.0007696399902471156,1199.2685087703057
0.0007998527336796708,1238.61496875634
0.000831251498989063,1279.2141701996816
0.0008638828442740447,1321.1023985617426
0.000897795155303332,1364.3165624267674
0.0009330387172620361,1408.894353827536
0.0009696657893145519,1454.8741462287958
0.001007730682094461,1502.2950787197285
0.0010472898382363582,1551.1968500386856
0.0010884019160690055,1601.6196149957796
0.0011311278765939214,1653.6042018107612
0.001175531073878369,1707.1919000834737
0.0012216773489967915,1762.4245676066182
0.0012696351276599736,1819.344401046943
0.0013194755216767058,1877.9936032989085
0.0013712724343984,1938.4147789925073
0.0014251026703029975,2000.6506511229945
0.0014810460488806749,2064.744118504219
0.0015391855229902056,2130.7381678691713
0.001599607301861487,2198.675387852029
0.0016624009789266115,2268.598339614888
0.0017276596646690358,2340.54901716583
0.0017954801246878305,2414.568776581921
0.0018659629231817451,2490.6985684832575
0.001939212572065829,2568.9783459795385
0.0020153376859417325,2649.4473647160253
0.002094451143151469,2732.143630020726
0.002176670253153458,2817.103534197916
0.002262116930469025,2904.3622484096954
0.002350917875457286,2993.9527422050296
0.002443204762186487,3085.9061359760535
0.0025391144336803463,3180.2514059788737
0.002638789104828933,3277.0146979021065
0.002742376573264949,3376.219832396402
0.0028500304385181063,3477.8872096939103
0.0029619103297725525,3582.0339314081484
0.0030781821425650787,3688.6736233301185
0.003199018284775064,3797.8151332086795
0.0033245979322709396,3909.4633965863923
0.003455107294592217,4023.61830492917
0.0035907398910610534,4140.274471539363
0.0037316968377327513,4259.421435441989
0.0038781871456107214,4381.04182795264
0.0040304280305680515,4505.112340657454
0.00418864523543527,4631.602575631138
0.004353073364731888,4760.474218831405
0.00452395623253805,4891.682032508894
0.004701547224022131,5025.172361898586
0.004886109671160325,5160.883571390467
0.005077917243205399,5298.743060648715
0.005277254352483535,5438.663742704649
0.005484416576121017,5580.549639902488
0.005699711094326071,5724.305725300094
0.005923457145875801,5869.834620125612
0.006155986501483508,6017.0164749627675
0.006397643955748424,6165.681351753562
0.0066487878384172625,6315.639963914392
0.0069097905457156435,6466.71616778475
0.007181039092537346,6618.746155431484
0.007462935686310132,6771.547510073847
0.007755898323389004,6924.886608779974
0.00806036140886134,7078.505210503601
0.008376776400682916,7232.1487885520455
0.008705612479099857,7385.573566834917
0.009047357242349292,7538.521495593376
0.00940251742967013,7690.692539426473
0.009771619672696168,7841.760930647434
0.010155211276345676,7991.38331017987
0.010553861030365234,8139.19568150667
0.010968160052731372,8284.81964242667
0.011398722666160517,8427.858933220861
0.011846187309026826,8567.902329209977
0.012311217482038896,8704.525952593818
0.012794502732078732,8837.291006986776
0.013296759674662111,8965.74884859329
0.013818733056536317,9089.43162346746
0.014361196859990781,9207.855046884404
0.014924955450518284,9320.52963609085
0.015510844769528393,9426.960198932815
0.016119733573881575,9526.651087946397
0.01675252472408214,9619.107360833415
0.017410156523040152,9703.836817856245
0.018093604107387147,9780.356675446697
0.01880388089340914,9848.200771914117
0.019542040079740527,9906.92024649555
0.02030917620904734,9956.093345757825
0.021106426791015535,9995.335930395988
0.021934973989050584,10024.29383313756
0.02279604637318978,10042.6706819309
0.023690920741826323,10050.218996232072
0.02462092401494623,10046.742948180374
0.02558743520168586,10032.130422807186
0.02659188744512693,10006.31877555441
0.027635770147361564,9969.354092361838
0.028720631177978267,9921.380688499701
0.029848079169243254,9862.584587641884
0.03101978590138095,9793.201736998422
0.03223748878149028,9713.510727840716
0.0335029934197723,9624.025795322153
0.03481817630688963,9525.535887522761
0.03618498759642746,9418.751037199021
0.037605453996581675,9303.745096285355
0.03908168177536263,9180.377640638882
0.04061585988376978,9049.034366258822
0.04221026320156896,8910.988731254596
0.04386725591048496,8767.513930473973
0.0455892949998106,8619.29701848685
0.047378933909631396,8466.695096566507
0.049238826317067365,8309.823972914486
0.05117173007114603,8148.174628600728
0.05318051128214196,7981.204542074853
0.05526814857144601,7808.481700376298
0.057437737488265785,7629.682451931791
0.0596924950997073,7444.7130821775345
0.0620357647610427,7253.988465535897
0.06447102107323864,7058.0384285948785
0.06700187503509585,6857.418061362819
0.06963207939763882,6652.695911865935
0.0723655342286965,6444.40960208534
0.07520629269592405,6233.1751698990965
0.07815856707684081,6020.18577915416
0.08122673500479707,5806.998045370972
0.08441534596012978,5595.756609825183
0.0877291280161335,5388.1519975008305
0.09117299484984914,5185.180560821024
0.09475205302806537,4987.971576767067
0.09847160957933764,4796.603950113202
0.1023371798632519,4609.474742586505
0.10635449574860109,4425.360236869085
0.11052951411260206,4243.190580629967
0.1148684256737553,4061.9313013661094
0.1193776641714435,3880.8428684593882
0.1240639159058831,3700.402661229453
0.12893412965257148,3522.215780985361
0.13399552696593373,3348.558551299673
0.1392556128874462,3181.313347736766
0.14472218707411338,3021.4281981479717
0.15040335536380234,2868.755577397207
0.15630754179458153,2722.3587952152297
0.16244350109588662,2581.285398794135
0.16882033167003618,2444.9923130786406
0.17544748908334581,2312.795956261032
0.1823348000868439,2184.0563411618555
0.189492477187382,2059.4382641715442
0.19693113379074215,1940.2902971915569
0.20466179993919872,1827.1098682854995
0.21269593866686892,1719.9100207136464
0.22104546299710207,1618.1156505675167
0.22972275360711503,1520.4843044380116
0.23874067718606454,1426.7811613490692
0.2481126055137766,1337.5612614231861
0.25785243528842716,1253.1599355640253
0.26797460873256895,1173.3515830221368
0.27849413500806414,1097.6582346073415
0.28942661247167484,1025.9666693853692
0.3007882518043098,958.154651450101
0.31259590004822796,894.1012904067155
0.324867065587837,833.6671337010973
0.3376199441111335,776.8459081358662
0.35087344559027084,723.3120252751245
0.36464722232127456,672.9063918288499
0.37896169806447155,625.6452212533576
0.3938380983288488,581.2853330208997
0.4092984818452433,539.668512342207
0.4253657732750382,500.7437325612061
0.44206379720285277,464.27536966778473
0.45941731346364734,430.2194709950415
0.47745205385661277,398.38300839486106
0.4961947603002895,368.6777891468306
0.5156732244854959,340.9709247839334
0.5359163290848509,315.1536721876118
0.556954090580013,291.11415687210035
0.5788177037701272,268.7579716876071
0.6015395880274836,247.96893014691517
0.6251534353689703,228.67491423085158
0.6496942604146115,210.7568602720103
0.6751984523072497,194.14507762686114
0.7017038286703824,178.74527021364207
0.7292496916841444,164.47968995058582
0.7578768863625915,151.2760065053838
0.7876278611187046,139.06130558767967
0.8185467307069019,127.77050839217603
0.850679341636415,117.34034252041454
0.8840733401525058,107.7109928447931
0.9187782428863317,98.82622255811734
0.9548455102782278,90.63321617384919
0.9923286228832539,83.08242495335534
1.0312831606721837,76.12743217528663
1.0717668854455022,69.72478964353803
1.1138398264826193,63.83384902886905
1.1575643695533022,58.41661832841752
1.2030053494233226,53.437622434373154
1.2502301459914542,48.8637519343924
1.299308784200415,44.66408199682329
1.3503140378698726,40.809819027984915
1.4033215376054824,37.27419886638991
1.4584098829439835,34.03236233402002
1.5156607589006013,31.06123667476289
1.575159057091621,28.339429875927742
1.6369930016117014,25.84712498204348
1.7012542798525885,23.565964084568293
1.7680381784572046,21.478951733085193
1.8374437246107238,19.57036482990879
1.9095738328780953,17.82566571024642
1.9845354578058014,16.23140579223616
2.0624397525140905,14.775163039837059
2.143402233514853,13.44548333504779
2.227542951999554,12.231811157999186
2.314986671851158,11.124424422942012
2.405863054644063,10.114373445540625
2.5003068519063225,9.19342382336766
2.598458104929248,8.3540034214466
2.7004623524206774,7.5891527311905564
2.806470846309834,6.892478533576009
2.916640776023701,6.2581106954801315
3.031135501567576,5.680660473300468
3.150124795755327,5.155183386464115
3.2737850959485697,4.677146891493822
3.4022997656780634,4.242398045387036
3.5358593665351745,3.8471333652194004
3.6746619407366854,3.4878707252074856
3.8189133047818515,3.161422311681835
3.968827354637162,2.8648720314732743
4.1246263829013445,2.5955542051579514
4.286541408420921,2.3510329870767532
4.4548125188449825,2.129083375929295
4.629689226627261,1.9276736974697963
4.811430839003257,1.7449494612790957
5.000306842491082,1.579218542130159
5.196597302486189,1.4289375115391842
5.400593278542364,1.2926990575009236
5.612597255954967,1.1692203913929105
5.8329235942862,1.0573320559606925
6.06189899349756,0.9559684163048514
6.29986297838068,0.8641594033326326
6.547168402004727,0.7810222237147294
6.804181968927091,0.705753732602167
7.071284778942991,0.6376236086413213
7.348872892180382,0.5759686631232935
7.637357916378006,0.5201860555001321
7.937167617217536,0.46972758447107366
8.248746552614573,0.42409490487452167
8.572556731909314,0.38283513896212035
8.909078300934132,0.34553579275242635
9.258810253973934,0.3118204612782793
9.622271173675122,0.28134805851836464
9.999999999999984,0.25380980949193627
