k [1/Mpc],P(k) [Mpc^3]
0.0001,1755.3985618638633
0.00010392556829367125,1824.12279342402
0.00010800523745162529,1895.5224154772366
0.00011224505680853065,1969.6997989984347
0.00011665131316981963,2046.7609882809384
0.00012123054013376525,2126.815800418924
0.00012598952777950273,2209.978038197348
0.00013093533273536104,2296.3654511814007
0.00013607528864243335,2386.0999789237226
0.00014141701702890234,2479.3078223582943
0.00014696843861124463,2576.1194567156504
0.00015273778503907136,2676.6699335914022
0.00015873361110102093,2781.098714893628
0.00016496480740980205,2889.54991208036
0.0001714406135851971,3002.17247388733
0.00017817063195457305,3119.1200238476927
0.00018516484179121546,3240.551286546632
0.000192433614111598,3366.6299242861974
0.00019998772705352857,3497.524635922118
0.0002078383818579757,3633.4094336762696
0.00021599721947827182,3774.4630314216442
0.0002244763378413224,3920.8694704120935
0.0002332883097864157,4072.818166120065
0.00024244620170823283,4230.50379582351
0.0002519635929317015,4394.126661709677
0.0002618545958474233,4563.8915961637285
0.0002721338768375308,4740.008509860432
0.0002828166780230032,4922.6927722907785
0.0002939188398646886,5112.164755345401
0.0003054568246515432,5308.650359866114
0.00031744774091091926,5512.379725010879
0.00032990936877709396,5723.587262044867
0.00034286018635565856,5942.512431927943
0.00035631939712285854,6169.398779863031
0.000370306958400514,6404.49457339947
0.00038484361094874304,6648.051745220555
0.0003999509097203664,6900.325153063187
0.00041565125582259895,7161.573574037866
0.00043196792973341727,7432.057938217502
0.0004489251258218605,7712.041908128619
0.0004665479882234472,8001.791365002955
0.000484862648123908,8301.572763341119
0.000503896262506515,8611.654271071098
0.0005236770544204653,8932.303179645285
0.0005442343548300266,9263.78581985223
0.0005655986461065005,9606.367648205463
0.0005878016072274912,9960.309708707133
0.0006108761607505036,10325.870444398797
0.0006348565216305217,10703.30205433223
0.0006597782479539537,11092.848548700991
0.0006856782936641739,11494.74779560307
0.0007125950633568407,11909.226260414334
0.0007405684692262436,12336.50053230032
0.0007696399902471156,12776.773430811652
0.0007998527336796708,13230.228073223687
0.000831251498989063,13697.032844663276
0.0008638828442740447,14177.335891570641
0.000897795155303332,14671.26493969781
0.0009330387172620361,15178.926502515855
0.0009696657893145519,15700.399267070336
0.001007730682094461,16235.737082893618
0.0010472898382363582,16784.966186342786
0.0010884019160690055,17348.083074370574
0.0011311278765939214,17925.051373299535
0.001175531073878369,18515.78539313639
0.0012216773489967915,19120.15762166054
0.0012696351276599736,19737.99920578398
0.0013194755216767058,20369.09591413446
0.0013712724343984,21013.188726882752
0.0014251026703029975,21669.966020383985
0.0014810460488806749,22339.063768408156
0.0015391855229902056,23020.064066730978
0.001599607301861487,23712.488327116545
0.0016624009789266115,24415.80036712389
0.0017276596646690358,25129.399144806775
0.0017954801246878305,25852.617169960773
0.0018659629231817451,26584.72366875044
0.001939212572065829,27324.9211279867
0.0020153376859417325,28072.34575834426
0.002094451143151469,28826.05526553994
0.002176670253153458,29585.021885207
0.002262116930469025,30348.145661545204
0.002350917875457286,31114.25000488146
0.002443204762186487,31882.084712128697
0.0025391144336803463,32650.315743170733
0.002638789104828933,33417.50744632541
0.002742376573264949,34182.148117274424
0.0028500304385181063,34942.65300149695
0.0029619103297725525,35697.36743261747
0.0030781821425650787,36444.52282420078
0.003199018284775064,37182.096309626904
0.0033245979322709396,37907.95359346403
0.003455107294592217,38620.18427117567
0.0035907398910610534,39317.19447908075
0.0037316968377327513,39997.21271568157
0.0038781871456107214,40657.22027329445
0.0040304280305680515,41293.61600868646
0.00418864523543527,41903.09870428528
0.004353073364731888,42483.09731093236
0.00452395623253805,43031.122123201145
0.004701547224022131,43544.6072239607
0.004886109671160325,44020.95219879284
0.005077917243205399,44457.394652846466
0.005277254352483535,44850.572223813564
0.005484416576121017,45197.031305636825
0.005699711094326071,45493.16267789451
0.005923457145875801,45735.21618542637
0.006155986501483508,45919.496953121576
0.006397643955748424,46042.13425430939
0.0066487878384172625,46099.34189131061
0.0069097905457156435,46087.25168837932
0.007181039092537346,46001.74207542016
0.007462935686310132,45838.94355556452
0.007755898323389004,45594.803443285164
0.00806036140886134,45265.441260904154
0.008376776400682916,44847.13248342361
0.008705612479099857,44335.64176418191
0.009047357242349292,43727.344464431306
0.00940251742967013,43018.70767754847
0.009771619672696168,42206.55944799291
0.010155211276345676,41288.6423486112
0.010553861030365234,40262.39098939646
0.010968160052731372,39126.50401721719
0.011398722666160517,37880.18070034441
0.011846187309026826,36522.842677996305
0.012311217482038896,35056.293913752204
0.012794502732078732,33483.562209303884
0.013296759674662111,31810.165282500257
0.013818733056536317,30041.820965543244
0.014361196859990781,28181.18959714291
0.014924955450518284,26236.283565277594
0.015510844769528393,24226.65390609846
0.016119733573881575,22179.443997118018
0.01675252472408214,20111.76773508226
0.017410156523040152,18005.096037481842
0.018093604107387147,15856.032171595712
0.01880388089340914,13740.092099233527
0.019542040079740527,11779.00624152423
0.02030917620904734,10008.012915285484
0.021106426791015535,8222.257142306036
0.021934973989050584,6303.760833797273
0.02279604637318978,4540.727251877882
0.023690920741826323,3373.044732411634
0.02462092401494623,2794.087913089751
0.02558743520168586,2020.5539807366501
0.02659188744512693,800.0239859357268
0.027635770147361564,147.78422291148118
0.028720631177978267,31.276751415805148
0.029848079169243254,22.49266283866602
0.03101978590138095,60.33446322153763
0.03223748878149028,222.6268842018116
0.0335029934197723,491.4678727809966
0.03481817630688963,702.7915300535624
0.03618498759642746,872.2766008885192
0.037605453996581675,1021.5424988147493
0.03908168177536263,1094.8704649333156
0.04061585988376978,1038.0908648339866
0.04221026320156896,850.6575864388248
0.04386725591048496,660.0041923056901
0.0455892949998106,489.0073648864755
0.047378933909631396,173.13465510756436
0.049238826317067365,32.313543621082935
0.05117173007114603,20.070822704156758
0.05318051128214196,51.53350888121972
0.05526814857144601,202.4368829709913
0.057437737488265785,438.4625637746936
0.0596924950997073,610.5480089539759
0.0620357647610427,750.6487791008137
0.06447102107323864,768.2043943409052
0.06700187503509585,666.8019947742628
0.06963207939763882,466.7300965559763
0.0723655342286965,251.27932616166655
0.07520629269592405,85.84064042530123
0.07815856707684081,7.5804420909833645
0.08122673500479707,9.262092545360252
0.08441534596012978,120.40259776285176
0.0877291280161335,163.49077675920665
0.09117299484984914,173.4613403300272
0.09475205302806537,122.40081062214249
0.09847160957933764,29.474892740851747
0.1023371798632519,0.7705890459135807
0.10635449574860109,44.41790274668202
0.11052951411260206,107.65876729695731
0.1148684256737553,166.83969619045786
0.1193776641714435,147.12874414753256
0.1240639159058831,73.45428274722232
0.12893412965257148,3.541151440758271
0.13399552696593373,3.949894958216419
0.1392556128874462,31.084551855797784
0.14472218707411338,38.63695924601866
0.15040335536380234,13.495241552664828
0.15630754179458153,0.7564906492479693
0.16244350109588662,25.58651867250775
0.16882033167003618,44.447167697611675
0.17544748908334581,30.223644744227627
0.1823348000868439,4.791989837445638
0.189492477187382,1.7262418424230823
0.19693113379074215,8.655072597282256
0.20466179993919872,2.7224163322420067
0.21269593866686892,1.0109589360231623
0.22104546299710207,10.949235146951606
0.22972275360711503,9.883436342201376
0.23874067718606454,0.7211656778729215
0.2481126055137766,0.9301913470429864
0.25785243528842716,1.068963295081367
0.26797460873256895,0.5447098717072466
0.27849413500806414,3.820292191691877
0.28942661247167484,1.7924436295407469
0.3007882518043098,0.012818610786199123
0.31259590004822796,0.22483196855902418
0.324867065587837,0.41174075927788073
0.3376199441111335,1.3290477543179406
0.35087344559027084,0.27425666278423017
0.36464722232127456,0.0003674079512914576
0.37896169806447155,0.1330478957312534
0.3938380983288488,0.5215980012495308
0.4092984818452433,0.11970232708807453
0.4253657732750382,0.026895368964867064
0.44206379720285277,0.20447567681189416
0.45941731346364734,0.690262603967434
0.47745205385661277,0.8142417351785793
0.4961947603002895,0.47117564800865447
0.5156732244854959,0.18777030830305746
0.5359163290848509,0.07234520455836614
0.556954090580013,0.03717203761247425
0.5788177037701272,0.027546401481897846
0.6015395880274836,0.026658353530137065
0.6251534353689703,0.030383915702135472
0.6496942604146115,0.036780544589942434
0.6751984523072497,0.04264723411100369
0.7017038286703824,0.04403776718510394
0.7292496916841444,0.04113292344079209
0.7578768863625915,0.03586589655153648
0.7876278611187046,0.0301300322852433
0.8185467307069019,0.0251675683555778
0.850679341636415,0.02154190382739475
0.8840733401525058,0.019053019040284825
0.9187782428863317,0.01726501987645459
0.9548455102782278,0.015884985548461013
0.9923286228832539,0.01470672336575694
1.0312831606721837,0.013578373978854707
1.0717668854455022,0.012420363776862484
1.1138398264826193,0.011267506443376417
1.1575643695533022,0.010162998153391467
1.2030053494233226,0.009137133998737093
1.2502301459914542,0.008208916544692878
1.299308784200415,0.0073875352964233604
1.3503140378698726,0.006664575400176539
1.4033215376054824,0.0060231150750219425
1.4584098829439835,0.00544933945748074
1.5156607589006013,0.004932179338351758
1.575159057091621,0.0044627692755332465
1.6369930016117014,0.004034750480329641
1.7012542798525885,0.003645124670586078
1.7680381784572046,0.0032914166664426846
1.8374437246107238,0.0029711147754483613
1.9095738328780953,0.0026817197944885014
1.9845354578058014,0.0024207653238880558
2.0624397525140905,0.002185556517192432
2.143402233514853,0.001973378177515824
2.227542951999554,0.0017818226352588101
2.314986671851158,0.0016087606523589768
2.405863054644063,0.0014523060825130862
2.5003068519063225,0.0013108139281365475
2.598458104929248,0.0011829070930767006
2.7004623524206774,0.0010673457557995327
2.806470846309834,0.0009629921066517159
2.916640776023701,0.0008688036583544039
3.031135501567576,0.0007838253665891525
3.150124795755327,0.0007071596343014494
3.2737850959485697,0.0006379739996390394
3.4022997656780634,0.0005755223337576353
3.5358593665351745,0.0005191362846279567
3.6746619407366854,0.0004682167056555064
3.8189133047818515,0.00042223043655775436
3.968827354637162,0.00038071274805829593
4.1246263829013445,0.0003432439530949904
4.286541408420921,0.0003094413197621844
4.4548125188449825,0.0002789561813137089
4.629689226627261,0.0002514709622137049
4.811430839003257,0.00022669159684712942
5.000306842491082,0.00020434776701400972
5.196597302486189,0.00018419675950396961
5.400593278542364,0.00016602076371496514
5.612597255954967,0.00014962421320922507
5.8329235942862,0.00013483219206173586
6.06189899349756,0.00012149014743054881
6.29986297838068,0.00010945874458068084
6.547168402004727,9.861159824521505e-05
6.804181968927091,8.883413037382771e-05
7.071284778942991,8.002248845709038e-05
7.348872892180382,7.208187289084991e-05
7.637357916378006,6.492597744014013e-05
7.937167617217536,5.847708681313588e-05
8.248746552614573,5.266524800105704e-05
8.572556731909314,4.742748379332097e-05
8.909078300934132,4.270715382430369e-05
9.258810253973934,3.8453496919325837e-05
9.622271173675122,3.462076306650445e-05
9.999999999999984,3.116764114029846e-05
