k [1/Mpc],P(k) [Mpc^3]
0.0001,30.862350006750123
0.00010392556829367125,32.25936250792931
0.00010800523745162529,33.719586948148084
0.00011224505680853065,35.24588074097152
0.00011665131316981963,36.84123011226145
0.00012123054013376525,38.508755327073544
0.00012598952777950273,40.25171713190475
0.00013093533273536104,42.07352291596621
0.00013607528864243335,43.97773315413096
0.00014141701702890234,45.9680685808442
0.00014696843861124463,48.04841717270446
0.00015273778503907136,50.222841762104096
0.00015873361110102093,52.49558773594154
0.00016496480740980205,54.871090968793936
0.0001714406135851971,57.35398652667329
0.00017817063195457305,59.94911607826838
0.00018516484179121546,62.66153754184869
0.000192433614111598,65.4965350123805
0.00019998772705352857,68.45962766088299
0.0002078383818579757,71.55658130783091
0.00021599721947827182,74.79341890323614
0.0002244763378413224,78.17643189520156
0.0002332883097864157,81.71219247864532
0.00024244620170823283,85.40756532950374
0.0002519635929317015,89.2697208919288
0.0002618545958474233,93.30614370532427
0.0002721338768375308,97.5246438062338
0.0002828166780230032,101.93337718226167
0.0002939188398646886,106.54086394453883
0.0003054568246515432,111.35600272603038
0.00031744774091091926,116.3880802380756
0.00032990936877709396,121.6467819923364
0.00034286018635565856,127.14221738132791
0.00035631939712285854,132.88493247305684
0.000370306958400514,138.88593046345895
0.00038484361094874304,145.15669581500478
0.0003999509097203664,151.70921665267926
0.00041565125582259895,158.5560030927363
0.00043196792973341727,165.71008887264227
0.0004489251258218605,173.18505268709632
0.0004665479882234472,180.995055012317
0.000484862648123908,189.15485704789614
0.000503896262506515,197.6798492632492
0.0005236770544204653,206.58606899679955
0.0005442343548300266,215.8902223253738
0.0005655986461065005,225.6097172623842
0.0005878016072274912,235.7626678422363
0.0006108761607505036,246.3679348152166
0.0006348565216305217,257.4451578763795
0.0006597782479539537,269.0147783562478
0.0006856782936641739,281.0980760470827
0.0007125950633568407,293.71715837113777
0.0007405684692262436,306.8950034024226
0.0007696399902471156,320.65551384424083
0.0007998527336796708,335.0235444455896
0.000831251498989063,350.02493916845725
0.0008638828442740447,365.68650240863315
0.000897795155303332,382.03603006216866
0.0009330387172620361,399.10238504924433
0.0009696657893145519,416.9155016023324
0.001007730682094461,435.5064423833235
0.0010472898382363582,454.90737305421715
0.0010884019160690055,475.15156393146464
0.0011311278765939214,496.27348662512793
0.001175531073878369,518.3087856387692
0.0012216773489967915,541.2943443281508
0.0012696351276599736,565.2682495217036
0.0013194755216767058,590.2697195922401
0.0013712724343984,616.3392575348669
0.0014251026703029975,643.5185950222634
0.0014810460488806749,671.8507418480478
0.0015391855229902056,701.3799895016214
0.001599607301861487,732.1517808795165
0.0016624009789266115,764.2128579706571
0.0017276596646690358,797.611108398109
0.0017954801246878305,832.3955614151104
0.0018659629231817451,868.6164882216938
0.001939212572065829,906.3252172599177
0.0020153376859417325,945.5742537155942
0.002094451143151469,986.4170985165149
0.002176670253153458,1028.90812303821
0.002262116930469025,1073.1027131483447
0.002350917875457286,1119.0569098854355
0.002443204762186487,1166.8275283522694
0.0025391144336803463,1216.4720372578374
0.002638789104828933,1268.048278365154
0.002742376573264949,1321.6146330037925
0.0028500304385181063,1377.2295668425484
0.0029619103297725525,1434.9516307942092
0.0030781821425650787,1494.8393420044506
0.003199018284775064,1556.9505965133042
0.0033245979322709396,1621.3429415245985
0.003455107294592217,1688.0730311202483
0.0035907398910610534,1757.1964270656597
0.0037316968377327513,1828.7675768496795
0.0038781871456107214,1902.8389087559945
0.0040304280305680515,1979.461098177006
0.00418864523543527,2058.6824164000254
0.004353073364731888,2140.5481839218273
0.00452395623253805,2225.1010189377266
0.004701547224022131,2312.3799662076594
0.004886109671160325,2402.4204696540864
0.005077917243205399,2495.2527404445536
0.005277254352483535,2590.899762884975
0.005484416576121017,2689.3795664443937
0.005699711094326071,2790.709740836206
0.005923457145875801,2894.9057935700234
0.006155986501483508,3001.9710039408615
0.006397643955748424,3111.8817889310412
0.0066487878384172625,3224.601869686924
0.0069097905457156435,3340.0983839535697
0.007181039092537346,3458.341747244868
0.007462935686310132,3579.2895656819
0.007755898323389004,3702.868535339625
0.00806036140886134,3828.987119395005
0.008376776400682916,3957.5501242311757
0.008705612479099857,4088.462536633507
0.009047357242349292,4221.615678360872
0.00940251742967013,4356.870869032489
0.009771619672696168,4494.067170591927
0.010155211276345676,4633.025025272953
0.010553861030365234,4773.543626416744
0.010968160052731372,4915.40364279139
0.011398722666160517,5058.364357799599
0.011846187309026826,5202.164492269121
0.012311217482038896,5346.522764070045
0.012794502732078732,5491.135676476803
0.013296759674662111,5635.679796186715
0.013818733056536317,5779.805047971868
0.014361196859990781,5923.135383418183
0.014924955450518284,6065.275041165863
0.015510844769528393,6205.80755414773
0.016119733573881575,6344.298555551352
0.01675252472408214,6480.296052456404
0.017410156523040152,6613.331339856579
0.018093604107387147,6742.923197438078
0.01880388089340914,6868.582770410389
0.019542040079740527,6989.814197188738
0.02030917620904734,7106.121796774325
0.021106426791015535,7217.0182628309985
0.021934973989050584,7322.020157826574
0.02279604637318978,7420.669267709635
0.023690920741826323,7512.52797027452
0.02462092401494623,7597.183036824347
0.02558743520168586,7674.272057378682
0.02659188744512693,7743.460337922377
0.027635770147361564,7804.489271557454
0.028720631177978267,7857.172769238054
0.029848079169243254,7901.356410805383
0.03101978590138095,7936.9260612249245
0.03223748878149028,7963.804316258975
0.0335029934197723,7982.1127268098535
0.03481817630688963,7992.216103778904
0.03618498759642746,7994.43619541498
0.037605453996581675,7988.570067506323
0.03908168177536263,7974.225533860736
0.04061585988376978,7951.460905588614
0.04221026320156896,7921.133035319299
0.04386725591048496,7884.144944075885
0.0455892949998106,7840.914249364393
0.047378933909631396,7791.579392472901
0.049238826317067365,7736.065295425978
0.05117173007114603,7673.709476465688
0.05318051128214196,7603.791299897037
0.05526814857144601,7525.668196620867
0.057437737488265785,7438.778977876694
0.0596924950997073,7342.769229725954
0.0620357647610427,7237.781991295608
0.06447102107323864,7124.089681902084
0.06700187503509585,7002.009710521373
0.06963207939763882,6871.894396746165
0.0723655342286965,6734.086065818809
0.07520629269592405,6589.031457145291
0.07815856707684081,6437.820521226382
0.08122673500479707,6281.9919225677195
0.08441534596012978,6123.803301595386
0.0877291280161335,5965.117147540255
0.09117299484984914,5807.105889223384
0.09475205302806537,5651.146336119899
0.09847160957933764,5497.4737789179535
0.1023371798632519,5344.381695441076
0.10635449574860109,5190.526108813619
0.11052951411260206,5034.681611269571
0.1148684256737553,4875.607870743673
0.1193776641714435,4712.365597886809
0.1240639159058831,4545.468211537239
0.12893412965257148,4376.856633283606
0.13399552696593373,4209.407614228843
0.1392556128874462,4045.6308759421236
0.14472218707411338,3886.948692044924
0.15040335536380234,3733.419569176996
0.15630754179458153,3584.0605449657523
0.16244350109588662,3437.816739520594
0.16882033167003618,3294.1313909446867
0.17544748908334581,3152.226830723426
0.1823348000868439,3011.346302030331
0.189492477187382,2872.515391502797
0.19693113379074215,2737.77038344231
0.20466179993919872,2608.0246679312622
0.21269593866686892,2483.53040240359
0.22104546299710207,2363.6873712306788
0.22972275360711503,2246.876180320864
0.23874067718606454,2132.9038967028987
0.2481126055137766,2022.7598553174266
0.25785243528842716,1917.140172917267
0.26797460873256895,1815.9013522518956
0.27849413500806414,1718.493724980056
0.28942661247167484,1624.9155146248106
0.3007882518043098,1535.1466454283568
0.31259590004822796,1449.1645437543052
0.324867065587837,1366.9114480452458
0.3376199441111335,1288.5441554590443
0.35087344559027084,1213.687364872904
0.36464722232127456,1142.2272617032395
0.37896169806447155,1074.342414602522
0.3938380983288488,1009.7658467884921
0.4092984818452433,948.3641190281162
0.4253657732750382,890.1850156519542
0.44206379720285277,834.9435694328015
0.45941731346364734,782.6872587717427
0.47745205385661277,733.1886468038973
0.4961947603002895,686.4021283261161
0.5156732244854959,642.1932210394215
0.5359163290848509,600.4646757064565
0.556954090580013,561.106293492411
0.5788177037701272,524.0345139491233
0.6015395880274836,489.11674057020167
0.6251534353689703,456.3000394131162
0.6496942604146115,425.4322649892194
0.6751984523072497,396.4530927125543
0.7017038286703824,369.24677203172945
0.7292496916841444,343.72502300889454
0.7578768863625915,319.8052909960612
0.7876278611187046,297.3983935971039
0.8185467307069019,276.4264912046188
0.850679341636415,256.81069861759863
0.8840733401525058,238.4748104066968
0.9187782428863317,221.34585880788038
0.9548455102782278,205.3540721893006
0.9923286228832539,190.43282684178334
1.0312831606721837,176.51863228132356
1.0717668854455022,163.5510391460767
1.1138398264826193,151.47251964639162
1.1575643695533022,140.22839151351735
1.2030053494233226,129.76673851889475
1.2502301459914542,120.03828870003493
1.299308784200415,110.99620217841041
1.3503140378698726,102.59615817945459
1.4033215376054824,94.79631816823475
1.4584098829439835,87.55722137638932
1.5156607589006013,80.84168175191357
1.575159057091621,74.61470533091487
1.6369930016117014,68.84339581014359
1.7012542798525885,63.49681995102642
1.7680381784572046,58.54591104122196
1.8374437246107238,53.96337835485043
1.9095738328780953,49.72361430477704
1.9845354578058014,45.80256388069689
2.0624397525140905,42.17767712983208
2.143402233514853,38.82786556036496
2.227542951999554,35.733420368641255
2.314986671851158,32.87593348871385
2.405863054644063,30.238221948151242
2.5003068519063225,27.804255453748976
2.598458104929248,25.55908835647114
2.7004623524206774,23.488794372739473
2.806470846309834,21.58040433789636
2.916640776023701,19.821846952432782
3.031135501567576,18.201887797645742
3.150124795755327,16.710076637424
3.2737850959485697,15.336704667686325
3.4022997656780634,14.07275676656593
3.5358593665351745,12.90986591660974
3.6746619407366854,11.840269620048376
3.8189133047818515,10.856765279391817
3.968827354637162,9.952676420739481
4.1246263829013445,9.121819671571451
4.286541408420921,8.35847070216568
4.4548125188449825,7.657332280563354
4.629689226627261,7.013504310206344
4.811430839003257,6.422455770769186
5.000306842491082,5.879998645100087
5.196597302486189,5.382263441903687
5.400593278542364,4.925676305280943
5.612597255954967,4.506937542176127
5.8329235942862,4.122999482924668
6.06189899349756,3.7710487573016023
6.29986297838068,3.448491707384217
6.547168402004727,3.1529380673769447
6.804181968927091,2.882185669178403
7.071284778942991,2.6342068938649192
7.348872892180382,2.4071384542460876
7.637357916378006,2.199265411144115
7.937167617217536,2.0090082721129594
8.248746552614573,1.834912831048569
8.572556731909314,1.6756406916114157
8.909078300934132,1.5299557443134204
9.258810253973934,1.3967129493551065
9.622271173675122,1.2748620550235517
9.999999999999984,1.1634410898116423
