k [1/Mpc],P(k) [Mpc^3]
0.0001,130.72520544532696
0.00010392556829367125,136.6417597919682
0.00010800523745162529,142.82592687215177
0.00011224505680853065,149.28978526251882
0.00011665131316981963,156.04595638808826
0.00012123054013376525,163.10763004574687
0.00012598952777950273,170.48858939156418
0.00013093533273536104,178.20323546222386
0.00013607528864243335,186.2666126783578
0.00014141701702890234,194.69444000996856
0.00014696843861124463,203.50313903750427
0.00015273778503907136,212.7098655958028
0.00015873361110102093,222.3325422683134
0.00016496480740980205,232.38988745974595
0.0001714406135851971,242.9014546046583
0.00017817063195457305,253.8876616716731
0.00018516484179121546,265.3698262929397
0.000192433614111598,277.37021600239984
0.00019998772705352857,289.91210071024284
0.0002078383818579757,303.0197911722112
0.00021599721947827182,316.7186580242234
0.0002244763378413224,331.03515234696454
0.0002332883097864157,345.9968878833594
0.00024244620170823283,361.63270581255017
0.0002519635929317015,377.97272585081816
0.0002618545958474233,395.0483838399211
0.0002721338768375308,412.89245870502464
0.0002828166780230032,431.53915578989745
0.0002939188398646886,451.02417074886614
0.0003054568246515432,471.38475169053163
0.00031744774091091926,492.65975602462737
0.00032990936877709396,514.8896497579318
0.00034286018635565856,538.1166139222527
0.00035631939712285854,562.3846394485204
0.000370306958400514,587.7395991615587
0.00038484361094874304,614.2293224802381
0.0003999509097203664,641.9036114354861
0.00041565125582259895,670.814336084931
0.00043196792973341727,701.0155314539371
0.0004489251258218605,732.5634271962932
0.0004665479882234472,765.5165835502376
0.000484862648123908,799.9359398131028
0.000503896262506515,835.8848945857357
0.0005236770544204653,873.4294318910612
0.0005442343548300266,912.6381343557449
0.0005655986461065005,953.5823312189946
0.0005878016072274912,996.3361504352648
0.0006108761607505036,1040.976547569803
0.0006348565216305217,1087.5835034208599
0.0006597782479539537,1136.2400319841904
0.0006856782936641739,1187.0323152938377
0.0007125950633568407,1240.0497832174212
0.0007405684692262436,1295.385032919113
0.0007696399902471156,1353.1341033423894
0.0007998527336796708,1413.396515790184
0.000831251498989063,1476.2753634788978
0.0008638828442740447,1541.8774118905865
0.000897795155303332,1610.3127790513608
0.0009330387172620361,1681.6952926085432
0.0009696657893145519,1756.1425378175322
0.001007730682094461,1833.7757947669108
0.0010472898382363582,1914.7203009573063
0.0010884019160690055,1999.1048216593565
0.0011311278765939214,2087.0618829656664
0.001175531073878369,2178.727863655588
0.0012216773489967915,2274.2425691018366
0.0012696351276599736,2373.7496990745935
0.0013194755216767058,2477.3963281357032
0.0013712724343984,2585.3328531358225
0.0014251026703029975,2697.7133096699527
0.0014810460488806749,2814.694598706857
0.0015391855229902056,2936.436932072686
0.001599607301861487,3063.1033890641897
0.0016624009789266115,3194.8593884397396
0.0017276596646690358,3331.873158605281
0.0017954801246878305,3474.314394969006
0.0018659629231817451,3622.354530256005
0.001939212572065829,3776.1667052573634
0.0020153376859417325,3935.924751093883
0.002094451143151469,4101.803617022773
0.002176670253153458,4273.97752934346
0.002262116930469025,4452.619579158943
0.002350917875457286,4637.902231089091
0.002443204762186487,4829.995590785525
0.0025391144336803463,5029.067794491531
0.002638789104828933,5235.283183051065
0.002742376573264949,5448.800686374004
0.0028500304385181063,5669.774755666952
0.0029619103297725525,5898.352438495043
0.0030781821425650787,6134.673545977983
0.003199018284775064,6378.869311642752
0.0033245979322709396,6631.058960922197
0.003455107294592217,6891.351300172415
0.0035907398910610534,7159.840952975778
0.0037316968377327513,7436.607374376136
0.0038781871456107214,7721.7141480661485
0.0040304280305680515,8015.20155671719
0.00418864523543527,8317.089854714033
0.004353073364731888,8627.37637773181
0.00452395623253805,8946.032457984864
0.004701547224022131,9273.003034036425
0.004886109671160325,9608.188574103893
0.005077917243205399,9951.451140039479
0.005277254352483535,10302.627086909653
0.005484416576121017,10661.535070536214
0.005699711094326071,11027.957867669791
0.005923457145875801,11401.567285836933
0.006155986501483508,11781.930265001944
0.006397643955748424,12168.56496245667
0.0066487878384172625,12560.96557078603
0.0069097905457156435,12958.57982879388
0.007181039092537346,13360.792566321736
0.007462935686310132,13766.921526891785
0.007755898323389004,14176.213061015205
0.00806036140886134,14587.767777295576
0.008376776400682916,15000.579646940745
0.008705612479099857,15413.54167643127
0.009047357242349292,15825.414472111452
0.00940251742967013,16234.86710629709
0.009771619672696168,16640.429360738777
0.010155211276345676,17040.506824042648
0.010553861030365234,17433.39477140468
0.010968160052731372,17817.205874423922
0.011398722666160517,18189.948136841675
0.011846187309026826,18549.46231976535
0.012311217482038896,18893.4099502253
0.012794502732078732,19219.36112344886
0.013296759674662111,19524.675480335456
0.013818733056536317,19806.613333623205
0.014361196859990781,20062.32165918297
0.014924955450518284,20288.763463624462
0.015510844769528393,20482.89755328372
0.016119733573881575,20641.537929145452
0.01675252472408214,20761.464334780037
0.017410156523040152,20839.52254610429
0.018093604107387147,20872.482565153183
0.01880388089340914,20857.312816823363
0.019542040079740527,20791.111795429828
0.02030917620904734,20671.16366628482
0.021106426791015535,20495.172998692247
0.021934973989050584,20261.14249556352
0.02279604637318978,19967.616587354274
0.023690920741826323,19613.787417752075
0.02462092401494623,19199.51733542432
0.02558743520168586,18725.49725374028
0.02659188744512693,18193.357857831674
0.027635770147361564,17605.651329479613
0.028720631177978267,16966.020340209037
0.029848079169243254,16279.55923199374
0.03101978590138095,15552.140978086922
0.03223748878149028,14790.72924645736
0.0335029934197723,14003.122986691653
0.03481817630688963,13197.810452739295
0.03618498759642746,12386.241239333804
0.037605453996581675,11579.636478655477
0.03908168177536263,10787.57502237951
0.04061585988376978,10017.970977831063
0.04221026320156896,9278.239963711034
0.04386725591048496,8580.59505818904
0.0455892949998106,7936.130299697114
0.047378933909631396,7352.179804967421
0.049238826317067365,6833.120291858126
0.05117173007114603,6381.602051498271
0.05318051128214196,5999.121614566175
0.05526814857144601,5685.093531454029
0.057437737488265785,5437.68966903936
0.0596924950997073,5253.141139389336
0.0620357647610427,5126.459682869589
0.06447102107323864,5049.975392045209
0.06700187503509585,5013.084176948266
0.06963207939763882,5002.080005946187
0.0723655342286965,5000.870835152081
0.07520629269592405,4989.785997852792
0.07815856707684081,4947.4125091550595
0.08122673500479707,4854.325624003216
0.08441534596012978,4695.784482335941
0.0877291280161335,4464.220730455762
0.09117299484984914,4161.269599784981
0.09475205302806537,3798.982640236648
0.09847160957933764,3399.471508134256
0.1023371798632519,2991.9110350939804
0.10635449574860109,2607.5136482605008
0.11052951411260206,2273.8642530710445
0.1148684256737553,2010.6814927742018
0.1193776641714435,1828.2597168657303
0.1240639159058831,1727.8122992228396
0.12893412965257148,1701.8082772878188
0.13399552696593373,1733.1929641541594
0.1392556128874462,1794.2343084561842
0.14472218707411338,1847.5857852847928
0.15040335536380234,1852.679657867861
0.15630754179458153,1779.2038283406541
0.16244350109588662,1622.6307819262029
0.16882033167003618,1409.4432817166705
0.17544748908334581,1185.776395823186
0.1823348000868439,998.5300049571281
0.189492477187382,879.363713124672
0.19693113379074215,836.2550846970909
0.20466179993919872,854.0151453387547
0.21269593866686892,898.0429254985072
0.22104546299710207,919.687069048606
0.22972275360711503,878.0530359979745
0.23874067718606454,771.359135047967
0.2481126055137766,641.4343677598947
0.25785243528842716,541.0551431876314
0.26797460873256895,497.8737394474886
0.27849413500806414,505.2965532156553
0.28942661247167484,526.5316402005841
0.3007882518043098,514.3080486554154
0.31259590004822796,453.9624886014722
0.324867065587837,379.26956221903674
0.3376199441111335,333.75291479813325
0.35087344559027084,328.0913196042619
0.36464722232127456,334.93700945895677
0.37896169806447155,317.05787240239414
0.3938380983288488,273.2624276578738
0.4092984818452433,237.75682342288007
0.4253657732750382,228.66639351071896
0.44206379720285277,227.26623612062812
0.45941731346364734,208.33251723921106
0.47745205385661277,181.06348653259997
0.4961947603002895,167.88700123443897
0.5156732244854959,163.72586438707785
0.5359163290848509,150.34915185173654
0.556954090580013,133.37584732595528
0.5788177037701272,125.56047425589873
0.6015395880274836,118.75257793531439
0.6251534353689703,107.0523053525682
0.6496942604146115,97.84112822378009
0.6751984523072497,90.50478668328309
0.7017038286703824,84.06893913964812
0.7292496916841444,77.92976707599128
0.7578768863625915,72.02330455853829
0.7876278611187046,66.41225497001729
0.8185467307069019,61.14103231462231
0.850679341636415,56.23808266050234
0.8840733401525058,51.71841920591287
0.9187782428863317,47.577460163556815
0.9548455102782278,43.78015168845358
0.9923286228832539,40.29069268810308
1.0312831606721837,37.077900885134916
1.0717668854455022,34.11457353465395
1.1138398264826193,31.376957776256145
1.1575643695533022,28.846096637568515
1.2030053494233226,26.508353214113633
1.2502301459914542,24.351098195707483
1.299308784200415,22.36222940714176
1.3503140378698726,20.530192565037083
1.4033215376054824,18.8439838854807
1.4584098829439835,17.292794275518265
1.5156607589006013,15.866054864828174
1.575159057091621,14.553980461671946
1.6369930016117014,13.347545660537387
1.7012542798525885,12.238426037729619
1.7680381784572046,11.218947191712875
1.8374437246107238,10.282085456740935
1.9095738328780953,9.421392829613142
1.9845354578058014,8.630900538117375
2.0624397525140905,7.905084309931817
2.143402233514853,7.238833600804936
2.227542951999554,6.6274216893557085
2.314986671851158,6.066470345018733
2.405863054644063,5.5519321766186005
2.5003068519063225,5.080073020054883
2.598458104929248,4.647448842679032
2.7004623524206774,4.2508841788977465
2.806470846309834,3.8874519569993184
2.916640776023701,3.5544543436844287
3.031135501567576,3.2494060957232955
3.150124795755327,2.9700187395698583
3.2737850959485697,2.714185580337348
3.4022997656780634,2.479967797533091
3.5358593665351745,2.26558159821475
3.6746619407366854,2.0693863659750975
3.8189133047818515,1.8898734226066536
3.968827354637162,1.7256557474622027
4.1246263829013445,1.5754585042091536
4.286541408420921,1.4381102729732815
4.4548125188449825,1.3125348838729902
4.629689226627261,1.1977438661215367
4.811430839003257,1.0928296576335605
5.000306842491082,0.9969592053219095
5.196597302486189,0.9093680315031358
5.400593278542364,0.829354749809401
5.612597255954967,0.7562756933944336
5.8329235942862,0.689540213196312
6.06189899349756,0.628606946874085
6.29986297838068,0.5729798448283929
6.547168402004727,0.5222044609777626
6.804181968927091,0.47586456008540606
7.071284778942991,0.43357943785184044
7.348872892180382,0.39500084671808233
7.637357916378006,0.3598097558164426
7.937167617217536,0.32771394994692393
8.248746552614573,0.29844584390164525
8.572556731909314,0.2717603735560131
8.909078300934132,0.24743212021503305
9.258810253973934,0.22525440802301963
9.622271173675122,0.20503863012576806
9.999999999999984,0.18661268049598018
