k [1/Mpc],P(k) [Mpc^3]
0.0001,415.3502949190727
0.00010392556829367125,430.40772212461184
0.00010800523745162529,446.010839253963
0.00011224505680853065,462.1793723487855
0.00011665131316981963,478.93375091745656
0.00012123054013376525,496.29516116504817
0.00012598952777950273,514.2855707266722
0.00013093533273536104,532.9277387366338
0.00013607528864243335,552.2452359105653
0.00014141701702890234,572.262480072068
0.00014696843861124463,593.004760980403
0.00015273778503907136,614.4982680586347
0.00015873361110102093,636.7701319734676
0.00016496480740980205,659.8484621825193
0.0001714406135851971,683.7623802406371
0.00017817063195457305,708.542053791443
0.00018516484179121546,734.2187330374195
0.000192433614111598,760.8247871478993
0.00019998772705352857,788.3936974403997
0.0002078383818579757,816.9601024576656
0.00021599721947827182,846.5598839978338
0.0002244763378413224,877.2302476840125
0.0002332883097864157,909.0097392624745
0.00024244620170823283,941.9382615922093
0.0002519635929317015,976.0571140354464
0.0002618545958474233,1011.4090534722884
0.0002721338768375308,1048.038280439903
0.0002828166780230032,1085.9905230232941
0.0002939188398646886,1125.3131478680823
0.0003054568246515432,1166.055254563602
0.00031744774091091926,1208.2676784295888
0.00032990936877709396,1252.002913239977
0.00034286018635565856,1297.3151851098364
0.00035631939712285854,1344.260611270044
0.000370306958400514,1392.8972891804626
0.00038484361094874304,1443.2853427637401
0.0003999509097203664,1495.4869528199865
0.00041565125582259895,1549.5664131114047
0.00043196792973341727,1605.5902105842204
0.0004489251258218605,1663.6269463492445
0.0004665479882234472,1723.747483219395
0.000484862648123908,1786.0250660151871
0.000503896262506515,1850.5353691632727
0.0005236770544204653,1917.356603056314
0.0005442343548300266,1986.5695021628371
0.0005655986461065005,2058.257417278729
0.0005878016072274912,2132.5064165530007
0.0006108761607505036,2209.4052240285314
0.0006348565216305217,2289.045417811884
0.0006597782479539537,2371.5214303866032
0.0006856782936641739,2456.9305818695116
0.0007125950633568407,2545.3732729276703
0.0007405684692262436,2636.952922606117
0.0007696399902471156,2731.77613235714
0.0007998527336796708,2829.952705958146
0.000831251498989063,2931.595558183641
0.0008638828442740447,3036.820995302733
0.000897795155303332,3145.748491913477
0.0009330387172620361,3258.5008170625747
0.0009696657893145519,3375.204269826332
0.001007730682094461,3495.988532165294
0.0010472898382363582,3620.986919597651
0.0010884019160690055,3750.335984192112
0.0011311278765939214,3884.1753684296696
0.001175531073878369,4022.648372937651
0.0012216773489967915,4165.9017191674775
0.0012696351276599736,4314.085766390515
0.0013194755216767058,4467.3541765941545
0.0013712724343984,4625.86327882675
0.0014251026703029975,4789.772863039463
0.0014810460488806749,4959.245337197888
0.0015391855229902056,5134.445866002283
0.001599607301861487,5315.54279029264
0.0016624009789266115,5502.706937844338
0.0017276596646690358,5696.112113285589
0.0017954801246878305,5895.9340430076045
0.0018659629231817451,6102.349849256481
0.001939212572065829,6315.538922451196
0.0020153376859417325,6535.681267219156
0.002094451143151469,6762.95818832699
0.002176670253153458,6997.552198126858
0.002262116930469025,7239.646061605515
0.002350917875457286,7489.423362550254
0.002443204762186487,7747.065738957972
0.0025391144336803463,8012.75301426447
0.002638789104828933,8286.66416760035
0.002742376573264949,8568.975598886107
0.0028500304385181063,8859.861868969478
0.0029619103297725525,9159.493061109737
0.0030781821425650787,9468.033380195151
0.003199018284775064,9785.642989569815
0.0033245979322709396,10112.475577113786
0.003455107294592217,10448.678839126302
0.0035907398910610534,10794.391967948504
0.0037316968377327513,11149.741627016723
0.0038781871456107214,11514.845372580321
0.0040304280305680515,11889.80892949265
0.00418864523543527,12274.725801154045
0.004353073364731888,12669.676154040686
0.00452395623253805,13074.720464830008
0.004701547224022131,13489.903079868116
0.004886109671160325,13915.248287462151
0.005077917243205399,14350.757774614474
0.005277254352483535,14796.413105821675
0.005484416576121017,15252.169802353488
0.005699711094326071,15717.958836966785
0.005923457145875801,16193.680172340226
0.006155986501483508,16679.192874091794
0.006397643955748424,17174.326199477015
0.0066487878384172625,17678.889696013575
0.0069097905457156435,18192.670061908062
0.007181039092537346,18715.402879174846
0.007462935686310132,19246.71503002189
0.007755898323389004,19786.173474023308
0.00806036140886134,20333.31711872705
0.008376776400682916,20887.66106258113
0.008705612479099857,21448.67684681741
0.009047357242349292,22015.79128939946
0.00940251742967013,22588.384899419547
0.009771619672696168,23165.765440249997
0.010155211276345676,23747.138976426413
0.010553861030365234,24331.648299689914
0.010968160052731372,24918.36118061472
0.011398722666160517,25506.274320767465
0.011846187309026826,26094.317986697883
0.012311217482038896,26681.33812637946
0.012794502732078732,27266.11443111109
0.013296759674662111,27847.34896137296
0.013818733056536317,28423.663532135877
0.014361196859990781,28993.616147316352
0.014924955450518284,29555.678034054574
0.015510844769528393,30108.254056748356
0.016119733573881575,30649.686738032342
0.01675252472408214,31178.2487268116
0.017410156523040152,31692.167118985428
0.018093604107387147,32189.620521390367
0.01880388089340914,32668.749725153153
0.019542040079740527,33127.6765778715
0.02030917620904734,33564.51938115408
0.021106426791015535,33977.396499816416
0.021934973989050584,34364.45539315786
0.02279604637318978,34723.88706119471
0.023690920741826323,35053.92907091672
0.02462092401494623,35352.95265777131
0.02558743520168586,35619.42107789017
0.02659188744512693,35851.91864439289
0.027635770147361564,36049.21130676722
0.028720631177978267,36210.189005027816
0.029848079169243254,36334.10450832869
0.03101978590138095,36420.49531704424
0.03223748878149028,36468.962899196056
0.0335029934197723,36479.04261401761
0.03481817630688963,36450.386261032734
0.03618498759642746,36383.74956475806
0.037605453996581675,36281.09279299362
0.03908168177536263,36144.145179492196
0.04061585988376978,35972.405352967566
0.04221026320156896,35764.63009406904
0.04386725591048496,35520.96367002016
0.0455892949998106,35243.999963267626
0.047378933909631396,34936.55636691824
0.049238826317067365,34600.61937763045
0.05117173007114603,34237.656426519236
0.05318051128214196,33848.42849913345
0.05526814857144601,33431.351208875385
0.057437737488265785,32984.537932018844
0.0596924950997073,32506.326146126667
0.0620357647610427,31995.297930016633
0.06447102107323864,31450.681395909538
0.06700187503509585,30873.472489245847
0.06963207939763882,30265.257411020917
0.0723655342286965,29628.141172803193
0.07520629269592405,28964.504442497277
0.07815856707684081,28276.568074658157
0.08122673500479707,27566.62424170971
0.08441534596012978,26838.415658909227
0.0877291280161335,26096.767509804202
0.09117299484984914,25348.369282279353
0.09475205302806537,24599.65850095947
0.09847160957933764,23855.601278732895
0.1023371798632519,23117.869443580632
0.10635449574860109,22385.878241582028
0.11052951411260206,21657.850215763377
0.1148684256737553,20930.537727577856
0.1193776641714435,20205.627368706424
0.1240639159058831,19484.931242222945
0.12893412965257148,18759.4852927745
0.13399552696593373,18027.441909341014
0.1392556128874462,17293.548424765337
0.14472218707411338,16565.94130212389
0.15040335536380234,15853.886913335586
0.15630754179458153,15164.07288923417
0.16244350109588662,14498.602572148005
0.16882033167003618,13854.802729263618
0.17544748908334581,13227.531091731786
0.1823348000868439,12612.939158569337
0.189492477187382,12009.299887663263
0.19693113379074215,11416.643441919137
0.20466179993919872,10839.283012171489
0.21269593866686892,10284.076526396215
0.22104546299710207,9752.835712829441
0.22972275360711503,9242.634630647422
0.23874067718606454,8750.645001125864
0.2481126055137766,8274.291470071503
0.25785243528842716,7814.236868000638
0.26797460873256895,7373.590177921651
0.27849413500806414,6952.904671924408
0.28942661247167484,6550.935205026539
0.3007882518043098,6166.350888919201
0.31259590004822796,5799.290706880899
0.324867065587837,5449.485744354898
0.3376199441111335,5116.3483842730075
0.35087344559027084,4799.253566904596
0.36464722232127456,4498.527755498434
0.37896169806447155,4213.634238443702
0.3938380983288488,3943.321033957174
0.4092984818452433,3687.390530519053
0.4253657732750382,3445.920720998204
0.44206379720285277,3217.6732286776432
0.45941731346364734,3002.2136804417687
0.47745205385661277,2799.529665266843
0.4961947603002895,2608.46898998989
0.5156732244854959,2428.7519489688257
0.5359163290848509,2260.0134549182026
0.556954090580013,2101.387669219866
0.5788177037701272,1952.8048907344792
0.6015395880274836,1813.41075135276
0.6251534353689703,1683.0340260706714
0.6496942604146115,1561.0008086139308
0.6751984523072497,1447.0220717956768
0.7017038286703824,1340.5040556007086
0.7292496916841444,1241.1692203921127
0.7578768863625915,1148.4526267749766
0.7876278611187046,1062.1188906301034
0.8185467307069019,981.702079458368
0.850679341636415,906.8835856661093
0.8840733401525058,837.3311129698936
0.9187782428863317,772.7154782920873
0.9548455102782278,712.725516689345
0.9923286228832539,657.0659065158611
1.0312831606721837,605.4567236520857
1.0717668854455022,557.6329793976336
1.1138398264826193,513.3442993083751
1.1575643695533022,472.35434396235655
1.2030053494233226,434.440091615241
1.2502301459914542,399.3913253070134
1.299308784200415,367.0101226469299
1.3503140378698726,337.11025355543535
1.4033215376054824,309.51649484372166
1.4584098829439835,284.06444180740533
1.5156607589006013,260.6000589397933
1.575159057091621,238.97915890509876
1.6369930016117014,219.06689013803205
1.7012542798525885,200.73718321236666
1.7680381784572046,183.8723098894858
1.8374437246107238,168.3624797818097
1.9095738328780953,154.10538808275325
1.9845354578058014,141.00577931760085
2.0624397525140905,128.9750062665709
2.143402233514853,117.930600476443
2.227542951999554,107.7959596892765
2.314986671851158,98.49999114050972
2.405863054644063,89.97675941866926
2.5003068519063225,82.16514890016073
2.598458104929248,75.0085116986918
2.7004623524206774,68.45439776774293
2.806470846309834,62.45430240935806
2.916640776023701,56.96339559071791
3.031135501567576,51.94026675619555
3.150124795755327,47.34668176432075
3.2737850959485697,43.14735528696996
3.4022997656780634,39.309748217330394
3.5358593665351745,35.80387047786461
3.6746619407366854,32.602095304576956
3.8189133047818515,29.678983953663195
3.968827354637162,27.011110961096747
4.1246263829013445,24.576925500272523
4.286541408420921,22.35661932352638
4.4548125188449825,20.331993804676685
4.629689226627261,18.486336242944937
4.811430839003257,16.804304395761918
5.000306842491082,15.271819606109997
5.196597302486189,13.875969070376057
5.400593278542364,12.604914120171566
5.612597255954967,11.447805116499945
5.8329235942862,10.394701521878204
6.06189899349756,9.436492762374128
6.29986297838068,8.564838139343827
6.547168402004727,7.772108197363784
6.804181968927091,7.051326314838508
7.071284778942991,6.396114958171575
7.348872892180382,5.800651941549426
7.637357916378006,5.259625042837765
7.937167617217536,4.768179399696171
8.248746552614573,4.321879051905825
8.572556731909314,3.916672369620291
8.909078300934132,3.548855489624989
9.258810253973934,3.2150238694757807
9.622271173675122,2.9120712887631037
9.999999999999984,2.637174175302796
