k [1/Mpc],P(k) [Mpc^3]
0.0001,133.64670516699508
0.00010392556829367125,138.89182369129873
0.00010800523745162529,144.34269593704676
0.00011224505680853065,150.00737632998172
0.00011665131316981963,155.89423180833091
0.00012123054013376525,162.01195774963873
0.00012598952777950273,168.36959110062503
0.00013093533273536104,174.97652074000487
0.00013607528864243335,181.8424973313099
0.00014141701702890234,188.977649752116
0.00014696843861124463,196.3925032420448
0.00015273778503907136,204.09799655254204
0.00015873361110102093,212.10549412000103
0.00016496480740980205,220.42679410307457
0.0001714406135851971,229.07414781270876
0.00017817063195457305,238.06027724178713
0.00018516484179121546,247.39838422157345
0.000192433614111598,257.10217875974837
0.00019998772705352857,267.18591732738736
0.0002078383818579757,277.6644250045233
0.00021599721947827182,288.55309354777904
0.0002244763378413224,299.8678636826621
0.0002332883097864157,311.62527324639996
0.00024244620170823283,323.8425015088618
0.0002519635929317015,336.5373992518009
0.0002618545958474233,349.7285014535164
0.0002721338768375308,363.43504078481214
0.0002828166780230032,377.67697816274983
0.0002939188398646886,392.4750249541406
0.0003054568246515432,407.85065240576176
0.00031744774091091926,423.826139210991
0.00032990936877709396,440.4245895683674
0.00034286018635565856,457.6699635417478
0.00035631939712285854,475.58711762319155
0.000370306958400514,494.2018278118464
0.00038484361094874304,513.5408291472211
0.0003999509097203664,533.6318128834171
0.00041565125582259895,554.5034385836695
0.00043196792973341727,576.185416318331
0.0004489251258218605,598.7085554611754
0.0004665479882234472,622.1047986634761
0.000484862648123908,646.4072094475209
0.000503896262506515,671.6499407804546
0.0005236770544204653,697.8683540776988
0.0005442343548300266,725.0990686650442
0.0005655986461065005,753.3800032703479
0.0005878016072274912,782.7503912669972
0.0006108761607505036,813.2507282676612
0.0006348565216305217,844.9228868384276
0.0006597782479539537,877.8101390550055
0.0006856782936641739,911.9571792751847
0.0007125950633568407,947.4102023234701
0.0007405684692262436,984.2168613937856
0.0007696399902471156,1022.4263545569084
0.0007998527336796708,1062.0894359029044
0.000831251498989063,1103.2583695296091
0.0008638828442740447,1145.9870705569303
0.000897795155303332,1190.331019024056
0.0009330387172620361,1236.34732171528
0.0009696657893145519,1284.094785514294
0.001007730682094461,1333.6337937392539
0.0010472898382363582,1385.0264709416845
0.0010884019160690055,1438.336552234716
0.0011311278765939214,1493.6293476701842
0.001175531073878369,1550.97190583582
0.0012216773489967915,1610.4326972334115
0.0012696351276599736,1672.0818221437419
0.0013194755216767058,1735.9909503036922
0.0013712724343984,1802.2331037088134
0.0014251026703029975,1870.882924476987
0.0014810460488806749,1942.016257634026
0.0015391855229902056,2015.7102406351253
0.001599607301861487,2092.0433738640863
0.0016624009789266115,2171.0950644585687
0.0017276596646690358,2252.9459513115453
0.0017954801246878305,2337.67731214928
0.0018659629231817451,2425.370866413038
0.001939212572065829,2516.1091813355115
0.0020153376859417325,2609.9751087760023
0.002094451143151469,2707.051985024719
0.002176670253153458,2807.4230250530095
0.002262116930469025,2911.1705947164464
0.002350917875457286,3018.376898174062
0.002443204762186487,3129.123176562939
0.0025391144336803463,3243.4897458360265
0.002638789104828933,3361.555748046084
0.002742376573264949,3483.397993047787
0.0028500304385181063,3609.091578799665
0.0029619103297725525,3738.7085979843996
0.0030781821425650787,3872.3177203305195
0.003199018284775064,4009.984601803784
0.0033245979322709396,4151.770239905519
0.003455107294592217,4297.731493710051
0.0035907398910610534,4447.919603025885
0.0037316968377327513,4602.37866735356
0.0038781871456107214,4761.1469046329175
0.0040304280305680515,4924.254353752753
0.00418864523543527,5091.723128214057
0.004353073364731888,5263.566474621977
0.00452395623253805,5439.785672891278
0.004701547224022131,5620.3720514138495
0.004886109671160325,5805.304271040227
0.005077917243205399,5994.547699803806
0.005277254352483535,6188.05370790286
0.005484416576121017,6385.751209166776
0.005699711094326071,6587.551871025633
0.005923457145875801,6793.355828240111
0.006155986501483508,7003.053226751269
0.006397643955748424,7216.513890468222
0.0066487878384172625,7433.550318144448
0.0069097905457156435,7653.933191730141
0.007181039092537346,7877.413902078594
0.007462935686310132,8103.7329156855285
0.007755898323389004,8332.60811636531
0.00806036140886134,8563.727329309988
0.008376776400682916,8796.748476110373
0.008705612479099857,9031.293932107434
0.009047357242349292,9266.921593676481
0.00940251742967013,9503.148435936435
0.009771619672696168,9739.445546375127
0.010155211276345676,9975.23311879886
0.010553861030365234,10209.892360989908
0.010968160052731372,10442.743833232442
0.011398722666160517,10673.061588267235
0.011846187309026826,10900.070579598709
0.012311217482038896,11122.930719186154
0.012794502732078732,11340.761935693808
0.013296759674662111,11552.613321834833
0.013818733056536317,11757.47559309067
0.014361196859990781,11954.299874054681
0.014924955450518284,12141.970493102692
0.015510844769528393,12319.342393803185
0.016119733573881575,12485.224153569343
0.01675252472408214,12638.378874125607
0.017410156523040152,12777.563289377691
0.018093604107387147,12901.504270878339
0.01880388089340914,13008.934878423664
0.019542040079740527,13098.610014182537
0.02030917620904734,13169.30797692061
0.021106426791015535,13219.866924373333
0.021934973989050584,13249.209261675693
0.02279604637318978,13256.354144745286
0.023690920741826323,13240.453120704666
0.02462092401494623,13200.859488966831
0.02558743520168586,13137.080426376704
0.02659188744512693,13048.883111970008
0.027635770147361564,12936.30441824822
0.028720631177978267,12799.606387544085
0.029848079169243254,12639.578642448741
0.03101978590138095,12457.26840547764
0.03223748878149028,12253.977878040732
0.0335029934197723,12031.33937023255
0.03481817630688963,11791.189097028167
0.03618498759642746,11536.6505817526
0.037605453996581675,11271.451227273814
0.03908168177536263,10998.75154745838
0.04061585988376978,10720.497358118655
0.04221026320156896,10438.439953966425
0.04386725591048496,10156.132034926703
0.0455892949998106,9878.56431018185
0.047378933909631396,9609.98567662284
0.049238826317067365,9353.19323314704
0.05117173007114603,9110.352207637496
0.05318051128214196,8882.591239386998
0.05526814857144601,8670.4231785639
0.057437737488265785,8473.074940976723
0.0596924950997073,8288.976221195453
0.0620357647610427,8115.409177273989
0.06447102107323864,7948.957755962184
0.06700187503509585,7785.129563751871
0.06963207939763882,7618.726849087473
0.0723655342286965,7443.750151864113
0.07520629269592405,7253.91739213778
0.07815856707684081,7043.445798435836
0.08122673500479707,6807.988220416926
0.08441534596012978,6545.943864041243
0.0877291280161335,6258.853140517742
0.09117299484984914,5951.984779567277
0.09475205302806537,5633.977628131418
0.09847160957933764,5315.519800736711
0.1023371798632519,5007.504823141971
0.10635449574860109,4720.124656789036
0.11052951411260206,4463.09077632258
0.1148684256737553,4243.06245606935
0.1193776641714435,4061.796057374341
0.1240639159058831,3915.0539048057035
0.12893412965257148,3792.6826710763735
0.13399552696593373,3680.183757241297
0.1392556128874462,3561.364575037654
0.14472218707411338,3421.953655688571
0.15040335536380234,3253.8389098174434
0.15630754179458153,3058.304239781638
0.16244350109588662,2846.3948662188445
0.16882033167003618,2636.144699461657
0.17544748908334581,2447.274882929427
0.1823348000868439,2293.8693728089665
0.189492477187382,2178.202394443383
0.19693113379074215,2090.4357614924734
0.20466179993919872,2012.7534604607672
0.21269593866686892,1925.0509073196938
0.22104546299710207,1814.3349937052794
0.22972275360711503,1683.59325641547
0.23874067718606454,1549.7177168267292
0.2481126055137766,1432.97147476964
0.25785243528842716,1344.8019932970583
0.26797460873256895,1279.925653610932
0.27849413500806414,1220.517204485234
0.28942661247167484,1149.5984229226135
0.3007882518043098,1064.9559324656143
0.31259590004822796,979.6566014879356
0.324867065587837,909.1808461012653
0.3376199441111335,856.4979055310272
0.35087344559027084,809.5827717804586
0.36464722232127456,756.0386493826196
0.37896169806447155,697.3030294096798
0.3938380983288488,644.5543190179885
0.4092984818452433,602.8424550423271
0.4253657732750382,565.3161912684866
0.44206379720285277,524.578581286892
0.45941731346364734,484.02287373890886
0.47745205385661277,449.6197883036122
0.4961947603002895,419.437535454994
0.5156732244854959,388.6785528420773
0.5359163290848509,358.95723462911866
0.556954090580013,333.1123031409408
0.5788177037701272,309.0483327643538
0.6015395880274836,285.43402828268495
0.6251534353689703,264.04892398139634
0.6496942604146115,244.45066872834641
0.6751984523072497,225.69216990799532
0.7017038286703824,208.49321791414903
0.7292496916841444,192.626663630829
0.7578768863625915,177.74543994180908
0.7876278611187046,163.90034387486043
0.8185467307069019,151.09580516243824
0.850679341636415,139.2559520044514
0.8840733401525058,128.304920082329
0.9187782428863317,118.17358386176983
0.9548455102782278,108.79887951610637
0.9923286228832539,100.12354079047306
1.0312831606721837,92.09878047126618
1.0717668854455022,84.68117009363796
1.1138398264826193,77.82958083141224
1.1575643695533022,71.50509407240904
1.2030053494233226,65.6709505204584
1.2502301459914542,60.29227712379091
1.299308784200415,55.33556568025246
1.3503140378698726,50.76941433100643
1.4033215376054824,46.56460618362925
1.4584098829439835,42.693970495090475
1.5156607589006013,39.13225311944881
1.575159057091621,35.85605526212299
1.6369930016117014,32.84371241298439
1.7012542798525885,30.075084856616748
1.7680381784572046,27.531456114791293
1.8374437246107238,25.195443758697863
1.9095738328780953,23.050912233162116
1.9845354578058014,21.082875043649942
2.0624397525140905,19.277436049509358
2.143402233514853,17.62172949931025
2.227542951999554,16.103850004773314
2.314986671851158,14.712786553895539
2.405863054644063,13.438358609462313
2.5003068519063225,12.27115512832074
2.598458104929248,11.202486076861078
2.7004623524206774,10.224332010585506
2.806470846309834,9.32929566770675
2.916640776023701,8.510556680442843
3.031135501567576,7.761827957835548
3.150124795755327,7.077316694591252
3.2737850959485697,6.451689483225105
3.4022997656780634,5.8800379549887865
3.5358593665351745,5.357846701699477
3.6746619407366854,4.880963305763421
3.8189133047818515,4.445569878459144
3.968827354637162,4.048158166565018
4.1246263829013445,3.685506067976804
4.286541408420921,3.3546553531866103
4.4548125188449825,3.052891013955752
4.629689226627261,2.7777218815370883
4.811430839003257,2.5268626794848172
5.000306842491082,2.2982183223397747
5.196597302486189,2.0898688046438516
5.400593278542364,1.9000551280014488
5.612597255954967,1.7271662671653052
5.8329235942862,1.5697265022965303
6.06189899349756,1.426384694587013
6.29986297838068,1.2959048522785268
6.547168402004727,1.177156645616114
6.804181968927091,1.0691066448019995
7.071284778942991,0.9708105052003994
7.348872892180382,0.8814065482431138
7.637357916378006,0.8001075823476649
7.937167617217536,0.7261941542751933
8.248746552614573,0.6590089327752385
8.572556731909314,0.5979515243023331
8.909078300934132,0.5424720699679275
9.258810253973934,0.4920660104797423
9.622271173675122,0.44627384659237584
9.999999999999984,0.4046775348992711
