k [1/Mpc],P(k) [Mpc^3]
0.0001,83.89257951071318
0.00010392556829367125,87.69005793883798
0.00010800523745162529,91.65935962224968
0.00011224505680853065,95.80825594999398
0.00011665131316981963,100.14486965960653
0.00012123054013376525,104.67768190630215
0.00012598952777950273,109.41555079021393
0.00013093533273536104,114.3677350353086
0.00013607528864243335,119.54391647580618
0.00014141701702890234,124.95421432465112
0.00014696843861124463,130.60919871712764
0.00015273778503907136,136.5199106115326
0.00015873361110102093,142.69788716040406
0.00016496480740980205,149.15518449783423
0.0001714406135851971,155.9044005787601
0.00017817063195457305,162.9586975114591
0.00018516484179121546,170.33182572564667
0.000192433614111598,178.0381515327553
0.00019998772705352857,186.09267977016592
0.0002078383818579757,194.51108436562592
0.00021599721947827182,203.30973919947152
0.0002244763378413224,212.50574754128334
0.0002332883097864157,222.1169756004041
0.00024244620170823283,232.16207821036355
0.0002519635929317015,242.66053465847858
0.0002618545958474233,253.63268931733
0.0002721338768375308,265.09978610442585
0.0002828166780230032,277.08401066240356
0.0002939188398646886,289.6085246963392
0.0003054568246515432,302.69750619392005
0.00031744774091091926,316.37619634399096
0.00032990936877709396,330.67092035490714
0.00034286018635565856,345.609148953548
0.00035631939712285854,361.21955875055204
0.000370306958400514,377.53208516764084
0.00038484361094874304,394.57797125623046
0.0003999509097203664,412.38979449227054
0.00041565125582259895,431.0015316950308
0.00043196792973341727,450.44861565769344
0.0004489251258218605,470.7679588623515
0.0004665479882234472,491.99805213041327
0.000484862648123908,514.1790424997355
0.000503896262506515,537.3528016427035
0.0005236770544204653,561.5629700215743
0.0005442343548300266,586.854939917774
0.0005655986461065005,613.2759881047572
0.0005878016072274912,640.8753732941591
0.0006108761607505036,669.7044111414997
0.0006348565216305217,699.8165496847222
0.0006597782479539537,731.2673698803723
0.0006856782936641739,764.1147037550986
0.0007125950633568407,798.4187089965172
0.0007405684692262436,834.241885789535
0.0007696399902471156,871.6492435352651
0.0007998527336796708,910.7083668551961
0.000831251498989063,951.4895130913866
0.0008638828442740447,994.0656733398006
0.000897795155303332,1038.512496699624
0.0009330387172620361,1084.9085199948734
0.0009696657893145519,1133.3352068705053
0.001007730682094461,1183.877011184741
0.0010472898382363582,1236.6215168265444
0.0010884019160690055,1291.6592530735463
0.0011311278765939214,1349.0839421067462
0.001175531073878369,1408.9926017246423
0.0012216773489967915,1471.485541919235
0.0012696351276599736,1536.6665347280082
0.0013194755216767058,1604.64241880231
0.0013712724343984,1675.5233067870936
0.0014251026703029975,1749.4227933586308
0.0014810460488806749,1826.4577447700885
0.0015391855229902056,1906.748600112294
0.001599607301861487,1990.4190673078663
0.0016624009789266115,2077.596123802379
0.0017276596646690358,2168.4102074089114
0.0017954801246878305,2262.994573986094
0.0018659629231817451,2361.485743035391
0.001939212572065829,2464.0232818873938
0.0020153376859417325,2570.749523632003
0.002094451143151469,2681.809863563889
0.002176670253153458,2797.3517972383206
0.002262116930469025,2917.525216660264
0.002350917875457286,3042.4823118960344
0.002443204762186487,3172.3768377459446
0.0025391144336803463,3307.3645336192853
0.002638789104828933,3447.6017010369656
0.002742376573264949,3593.245110674561
0.0028500304385181063,3744.452271948842
0.0029619103297725525,3901.3801164903502
0.0030781821425650787,4064.1854518587456
0.003199018284775064,4233.023367465265
0.0033245979322709396,4408.046327226005
0.003455107294592217,4589.40473011693
0.0035907398910610534,4777.2443518413675
0.0037316968377327513,4971.706926874687
0.0038781871456107214,5172.928791336183
0.0040304280305680515,5381.038708079827
0.00418864523543527,5596.158829108076
0.004353073364731888,5818.400109706424
0.00452395623253805,6047.862534536521
0.004701547224022131,6284.63508017934
0.004886109671160325,6528.792003370908
0.005077917243205399,6780.393947065156
0.005277254352483535,7039.478444324913
0.005484416576121017,7306.057921297212
0.005699711094326071,7580.12768619562
0.005923457145875801,7861.673001136074
0.006155986501483508,8150.661426770451
0.006397643955748424,8447.003850100547
0.0066487878384172625,8750.531892916979
0.0069097905457156435,9061.041835439522
0.007181039092537346,9378.331078603262
0.007462935686310132,9702.181143434902
0.007755898323389004,10032.308793569626
0.00806036140886134,10368.320350113729
0.008376776400682916,10709.76414681531
0.008705612479099857,11056.16050205014
0.009047357242349292,11406.997279132645
0.00940251742967013,11761.690470824251
0.009771619672696168,12119.519666623748
0.010155211276345676,12479.68045453231
0.010553861030365234,12841.267199357106
0.010968160052731372,13203.263674937674
0.011398722666160517,13564.569503504135
0.011846187309026826,13923.962110219189
0.012311217482038896,14280.123725821415
0.012794502732078732,14631.612190768852
0.013296759674662111,14976.821284315085
0.013818733056536317,15314.048685883321
0.014361196859990781,15641.423572031594
0.014924955450518284,15956.947002714682
0.015510844769528393,16258.508966206997
0.016119733573881575,16543.812335652976
0.01675252472408214,16810.485249111724
0.017410156523040152,17056.00673766367
0.018093604107387147,17277.73303609788
0.01880388089340914,17472.98857542935
0.019542040079740527,17638.954271413066
0.02030917620904734,17772.825754396552
0.021106426791015535,17871.790858549877
0.021934973989050584,17933.023126141914
0.02279604637318978,17953.861876235773
0.023690920741826323,17931.73670113143
0.02462092401494623,17864.310532867614
0.02558743520168586,17749.548629350124
0.02659188744512693,17585.700764766338
0.027635770147361564,17371.497702956683
0.028720631177978267,17106.33697532076
0.029848079169243254,16790.288003180103
0.03101978590138095,16423.985209131646
0.03223748878149028,16008.527092614637
0.0335029934197723,15545.697311680695
0.03481817630688963,15039.446455101284
0.03618498759642746,14495.796334256034
0.037605453996581675,13920.713987861292
0.03908168177536263,13318.780615264672
0.04061585988376978,12694.306019061562
0.04221026320156896,12053.672749652625
0.04386725591048496,11406.10091997636
0.0455892949998106,10760.410897772495
0.047378933909631396,10126.38324595345
0.049238826317067365,9513.02321621992
0.05117173007114603,8928.958615217767
0.05318051128214196,8381.98600113336
0.05526814857144601,7878.403046314532
0.057437737488265785,7423.204359014816
0.0596924950997073,7019.727018286445
0.0620357647610427,6669.975069798931
0.06447102107323864,6374.121074004471
0.06700187503509585,6130.999305758434
0.06963207939763882,5937.53560382194
0.0723655342286965,5788.708762709301
0.07520629269592405,5677.281441878128
0.07815856707684081,5593.157235897344
0.08122673500479707,5523.687704404532
0.08441534596012978,5454.120965452039
0.0877291280161335,5368.561523713826
0.09117299484984914,5251.3408365864925
0.09475205302806537,5090.105629733392
0.09847160957933764,4876.901971779628
0.1023371798632519,4608.2947771593435
0.10635449574860109,4288.703307505629
0.11052951411260206,3931.05502844789
0.1148684256737553,3555.751451766922
0.1193776641714435,3187.9026884478103
0.1240639159058831,2852.7919930377657
0.12893412965257148,2571.2801364905326
0.13399552696593373,2356.791856973166
0.1392556128874462,2214.235563987571
0.14472218707411338,2139.874262826946
0.15040335536380234,2121.1243516451955
0.15630754179458153,2136.330406944726
0.16244350109588662,2155.7526648243456
0.16882033167003618,2145.5761687756603
0.17544748908334581,2076.6867932231926
0.1823348000868439,1937.0620178239458
0.189492477187382,1740.1070238083232
0.19693113379074215,1520.526075343346
0.20466179993919872,1320.3575166428677
0.21269593866686892,1173.7871589069052
0.22104546299710207,1096.534421451823
0.22972275360711503,1081.7502169793604
0.23874067718606454,1101.8270827211204
0.2481126055137766,1114.4026983841966
0.25785243528842716,1078.5027458467757
0.26797460873256895,980.9952997360982
0.27849413500806414,849.1205581698958
0.28942661247167484,731.5379717272491
0.3007882518043098,664.127279938086
0.31259590004822796,650.283515028103
0.324867065587837,661.2227507706652
0.3376199441111335,651.3053583770853
0.35087344559027084,594.9358197023452
0.36464722232127456,513.3933852339471
0.37896169806447155,451.4088716098265
0.3938380983288488,430.452975486723
0.4092984818452433,431.6831304554399
0.4253657732750382,415.89949427278015
0.44206379720285277,369.9485372638423
0.45941731346364734,323.56704211745273
0.47745205385661277,303.826715162909
0.4961947603002895,299.4814685819549
0.5156732244854959,280.79948987510136
0.5359163290848509,247.87874572806987
0.556954090580013,226.45320756393994
0.5788177037701272,219.16077527730945
0.6015395880274836,204.91055238914925
0.6251534353689703,182.96111359962913
0.6496942604146115,170.1290632021078
0.6751984523072497,161.9064974469331
0.7017038286703824,147.3067850176139
0.7292496916841444,134.72839713772655
0.7578768863625915,127.3331318875031
0.7876278611187046,119.56362471202257
0.8185467307069019,110.97466563541398
0.850679341636415,102.15099802001836
0.8840733401525058,93.5582855814231
0.9187782428863317,85.54007827699655
0.9548455102782278,78.32803440500446
0.9923286228832539,71.95099239981492
1.0312831606721837,66.25818982722325
1.0717668854455022,61.116716096260454
1.1138398264826193,56.41993323583745
1.1575643695533022,52.08248355520858
1.2030053494233226,48.03895031129106
1.2502301459914542,44.264014168493055
1.299308784200415,40.75153355153739
1.3503140378698726,37.49352650241387
1.4033215376054824,34.4803049183614
1.4584098829439835,31.700906302094136
1.5156607589006013,29.142476487923325
1.575159057091621,26.787777875404593
1.6369930016117014,24.619810342565742
1.7012542798525885,22.62313655578105
1.7680381784572046,20.78372327083814
1.8374437246107238,19.088802953145954
1.9095738328780953,17.52705491928955
1.9845354578058014,16.088623086236268
2.0624397525140905,14.764369197741594
2.143402233514853,13.545761256424669
2.227542951999554,12.424841296260011
2.314986671851158,11.39418925290068
2.405863054644063,10.44682110785478
2.5003068519063225,9.576200945147301
2.598458104929248,8.776287212591502
2.7004623524206774,8.041498940272895
2.806470846309834,7.366681879633941
2.916640776023701,6.747079704686323
3.031135501567576,6.178316494594934
3.150124795755327,5.656354673536275
3.2737850959485697,5.177463778606475
3.4022997656780634,4.738198421823259
3.5358593665351745,4.335377712959119
3.6746619407366854,3.9660640087967196
3.8189133047818515,3.6275429350762263
3.968827354637162,3.3173123006951295
4.1246263829013445,3.033066997790086
4.286541408420921,2.7726840640812997
4.4548125188449825,2.53420885403403
4.629689226627261,2.3158429689659332
4.811430839003257,2.115932094200811
5.000306842491082,1.932953900116519
5.196597302486189,1.7655078674193685
5.400593278542364,1.6123059103679234
5.612597255954967,1.4721635510897846
5.8329235942862,1.3439909640279342
6.06189899349756,1.226786460161256
6.29986297838068,1.1196301875576196
6.547168402004727,1.0216776374906322
6.804181968927091,0.9321536436172669
7.071284778942991,0.8503472309298196
7.348872892180382,0.7756072199133214
7.637357916378006,0.7073361136093755
7.937167617217536,0.6449855343437356
8.248746552614573,0.5880523328134826
8.572556731909314,0.5360749567730718
8.909078300934132,0.48862844433175945
9.258810253973934,0.445321305396054
9.622271173675122,0.40579559774225854
9.999999999999984,0.36972425649094404
