k [1/Mpc],P(k) [Mpc^3]
0.0001,251.92268583837603
0.00010392556829367125,261.0555011220068
0.00010800523745162529,270.51928198168616
0.00011224505680853065,280.32599439829227
0.00011665131316981963,290.48803746324
0.00012123054013376525,301.0182658549152
0.00012598952777950273,311.9300002568088
0.00013093533273536104,323.237047501584
0.00013607528864243335,334.95371919507573
0.00014141701702890234,347.0948383670312
0.00014696843861124463,359.6757263668412
0.00015273778503907136,372.7122411753443
0.00015873361110102093,386.2208265176223
0.00016496480740980205,400.21854709287055
0.0001714406135851971,414.72308379925164
0.00017817063195457305,429.7527362755106
0.00018516484179121546,445.3264515748055
0.000192433614111598,461.4638490696089
0.00019998772705352857,478.1852321708298
0.0002078383818579757,495.51162701884004
0.00021599721947827182,513.4648209337658
0.0002244763378413224,532.0673885930752
0.0002332883097864157,551.3427055638383
0.00024244620170823283,571.3149558370322
0.0002519635929317015,592.0091767589771
0.0002618545958474233,613.4512844073355
0.0002721338768375308,635.6681003677188
0.0002828166780230032,658.6873934880279
0.0002939188398646886,682.5379079248648
0.0003054568246515432,707.2493998414054
0.00031744774091091926,732.8526540990928
0.00032990936877709396,759.3794986180892
0.00034286018635565856,786.8628705598554
0.00035631939712285854,815.336853650846
0.000370306958400514,844.8367182558499
0.00038484361094874304,875.3989395888356
0.0003999509097203664,907.0611874860645
0.00041565125582259895,939.8624170884868
0.00043196792973341727,973.8429111318379
0.0004489251258218605,1009.0443228397203
0.0004665479882234472,1045.5097085559808
0.000484862648123908,1083.283487722796
0.000503896262506515,1122.4115497303699
0.0005236770544204653,1162.941325324826
0.0005442343548300266,1204.9218333978038
0.0005655986461065005,1248.4037126555684
0.0005878016072274912,1293.439124937233
0.0006108761607505036,1340.0818724083902
0.0006348565216305217,1388.38749508448
0.0006597782479539537,1438.413296055171
0.0006856782936641739,1490.2184175213956
0.0007125950633568407,1543.8637868766964
0.0007405684692262436,1599.4121884042568
0.0007696399902471156,1656.928326272974
0.0007998527336796708,1716.4787176461596
0.000831251498989063,1778.131884712732
0.0008638828442740447,1841.9583994472493
0.000897795155303332,1908.0309257468946
0.0009330387172620361,1976.424233551893
0.0009696657893145519,2047.2148718515093
0.001007730682094461,2120.48145367107
0.0010472898382363582,2196.3047716697142
0.0010884019160690055,2274.767793252482
0.0011311278765939214,2355.95573030138
0.001175531073878369,2439.9556196094927
0.0012216773489967915,2526.856533045006
0.0012696351276599736,2616.7496797634767
0.0013194755216767058,2709.728158332955
0.0013712724343984,2805.8872462919276
0.0014251026703029975,2905.3238879342466
0.0014810460488806749,3008.136740020417
0.0015391855229902056,3114.4264336347364
0.001599607301861487,3224.295063754299
0.0016624009789266115,3337.8465692726954
0.0017276596646690358,3455.186208803669
0.0017954801246878305,3576.420292301012
0.0018659629231817451,3701.6566493624796
0.001939212572065829,3831.003801033858
0.0020153376859417325,3964.571333254423
0.002094451143151469,4102.4694879444505
0.002176670253153458,4244.808416732228
0.002262116930469025,4391.69888647702
0.002350917875457286,4543.251156743321
0.002443204762186487,4699.575144181743
0.0025391144336803463,4860.780250607423
0.002638789104828933,5026.97389983174
0.002742376573264949,5198.262532691475
0.0028500304385181063,5374.750405298375
0.0029619103297725525,5556.5392631335035
0.0030781821425650787,5743.728515486364
0.003199018284775064,5936.412880554754
0.0033245979322709396,6134.683517228405
0.003455107294592217,6338.626562989671
0.0035907398910610534,6548.321814914714
0.0037316968377327513,6763.843878666688
0.0038781871456107214,6985.259170039624
0.0040304280305680515,7212.626702221822
0.00418864523543527,7445.996844927543
0.004353073364731888,7685.408355868314
0.00452395623253805,7930.890514286323
0.004701547224022131,8182.458660548046
0.004886109671160325,8440.114381211326
0.005077917243205399,8703.845757864165
0.005277254352483535,8973.62225712827
0.005484416576121017,9249.397656915755
0.005699711094326071,9531.101419792036
0.005923457145875801,9818.636333785005
0.006155986501483508,10111.887466667928
0.006397643955748424,10410.729112625284
0.0066487878384172625,10715.018443850267
0.0069097905457156435,11024.557615844464
0.007181039092537346,11339.068647640883
0.007462935686310132,11658.241137831203
0.007755898323389004,11981.769123793276
0.00806036140886134,12309.336106077577
0.008376776400682916,12640.568202676543
0.008705612479099857,12974.988819340077
0.009047357242349292,13312.07231703184
0.00940251742967013,13651.272496407224
0.009771619672696168,13992.019936408193
0.010155211276345676,14333.687651520122
0.010553861030365234,14675.532573607221
0.010968160052731372,15016.745924643858
0.011398722666160517,15356.440712569236
0.011846187309026826,15693.644534765199
0.012311217482038896,16027.325605849905
0.012794502732078732,16356.361075892313
0.013296759674662111,16679.56218615695
0.013818733056536317,16995.651012780287
0.014361196859990781,17303.22864379045
0.014924955450518284,17600.835514864797
0.015510844769528393,17886.89772805739
0.016119733573881575,18159.76095258637
0.01675252472408214,18417.704735747986
0.017410156523040152,18658.88926780487
0.018093604107387147,18881.439651457535
0.01880388089340914,19083.394869810352
0.019542040079740527,19262.73055549225
0.02030917620904734,19417.4229610996
0.021106426791015535,19545.38658054916
0.021934973989050584,19644.572575362286
0.02279604637318978,19712.969432159036
0.023690920741826323,19748.611145037412
0.02462092401494623,19749.662037742688
0.02558743520168586,19714.386557176316
0.02659188744512693,19641.22388220835
0.027635770147361564,19528.923170830985
0.028720631177978267,19376.643540959612
0.029848079169243254,19183.831964737616
0.03101978590138095,18950.054900750092
0.03223748878149028,18675.09349202194
0.0335029934197723,18359.695528913868
0.03481817630688963,18006.811613942253
0.03618498759642746,17619.846312214446
0.037605453996581675,17200.642873469627
0.03908168177536263,16749.662123020767
0.04061585988376978,16268.586827144003
0.04221026320156896,15763.76084065447
0.04386725591048496,15242.53798070673
0.0455892949998106,14710.978489406138
0.047378933909631396,14173.56871073726
0.049238826317067365,13634.845326818528
0.05117173007114603,13101.780681231176
0.05318051128214196,12581.458807187699
0.05526814857144601,12080.101206980391
0.057437737488265785,11603.049236646983
0.0596924950997073,11154.542057430957
0.0620357647610427,10737.825862513397
0.06447102107323864,10354.66712792369
0.06700187503509585,10005.60681893838
0.06963207939763882,9689.424087082925
0.0723655342286965,9403.598516079388
0.07520629269592405,9143.852316606626
0.07815856707684081,8904.23216102127
0.08122673500479707,8677.149743841668
0.08441534596012978,8453.336973399504
0.0877291280161335,8222.589834841205
0.09117299484984914,7974.663643227864
0.09475205302806537,7700.574772907885
0.09847160957933764,7394.066046840756
0.1023371798632519,7052.8082573694755
0.10635449574860109,6678.995457787399
0.11052951411260206,6279.72469015085
0.1148684256737553,5866.23798645392
0.1193776641714435,5454.459382401679
0.1240639159058831,5061.9943193001955
0.12893412965257148,4704.488089438155
0.13399552696593373,4395.162683237262
0.1392556128874462,4141.640508953847
0.14472218707411338,3944.405978773298
0.15040335536380234,3796.2870315026066
0.15630754179458153,3682.763430279606
0.16244350109588662,3583.2690164551104
0.16882033167003618,3474.3391726669915
0.17544748908334581,3334.919510675215
0.1823348000868439,3152.721829165686
0.189492477187382,2929.545832771014
0.19693113379074215,2682.9553845188907
0.20466179993919872,2441.2416223414443
0.21269593866686892,2232.547488899671
0.22104546299710207,2074.591539263347
0.22972275360711503,1969.551747697562
0.23874067718606454,1902.5752025183015
0.2481126055137766,1845.294377763177
0.25785243528842716,1767.6381572012303
0.26797460873256895,1653.1767502813072
0.27849413500806414,1508.8341340987652
0.28942661247167484,1362.0923290165024
0.3007882518043098,1243.461655076684
0.31259590004822796,1166.9385097696695
0.324867065587837,1121.1706707140038
0.3376199441111335,1076.8302391565203
0.35087344559027084,1008.889875218543
0.36464722232127456,917.9735571905353
0.37896169806447155,829.2496626016018
0.3938380983288488,766.1948342631109
0.4092984818452433,728.2410144297447
0.4253657732750382,692.6498450093607
0.44206379720285277,640.591376247545
0.45941731346364734,579.8091388392634
0.47745205385661277,531.8796853304402
0.4961947603002895,501.2299758419676
0.5156732244854959,471.3739989666671
0.5359163290848509,431.72392652294144
0.556954090580013,393.21187908926
0.5788177037701272,366.3475006440039
0.6015395880274836,342.7163283690942
0.6251534353689703,314.01817216647447
0.6496942604146115,287.5188528656524
0.6751984523072497,267.6585933628486
0.7017038286703824,247.30614249001286
0.7292496916841444,226.19415386086135
0.7578768863625915,209.15298102239097
0.7876278611187046,193.10015813213388
0.8185467307069019,176.806932704611
0.850679341636415,162.15081114034373
0.8840733401525058,149.03134014828694
0.9187782428863317,137.15613553808882
0.9548455102782278,126.29103765526663
0.9923286228832539,116.24920393899728
1.0312831606721837,106.89044441847422
1.0717668854455022,98.16731416143752
1.1138398264826193,90.06744040308676
1.1575643695533022,82.57274007102092
1.2030053494233226,75.66039657576519
1.2502301459914542,69.30403975756924
1.299308784200415,63.4704039672725
1.3503140378698726,58.116421709599194
1.4033215376054824,53.20136695589646
1.4584098829439835,48.68828366312805
1.5156607589006013,44.54360037279738
1.575159057091621,40.73687945405011
1.6369930016117014,37.24161503528137
1.7012542798525885,34.03416531281999
1.7680381784572046,31.09247964595543
1.8374437246107238,28.395994205973523
1.9095738328780953,25.92555562716086
1.9845354578058014,23.6632729154363
2.0624397525140905,21.592306034371333
2.143402233514853,19.697059302297266
2.227542951999554,17.96315368353668
2.314986671851158,16.377336886152285
2.405863054644063,14.927400610959722
2.5003068519063225,13.602124203647257
2.598458104929248,12.391193620799148
2.7004623524206774,11.285106570472507
2.806470846309834,10.27511180058089
2.916640776023701,9.35315372971776
3.031135501567576,8.51181928195103
3.150124795755327,7.74428455267997
3.2737850959485697,7.044277309514359
3.4022997656780634,6.406037394187664
3.5358593665351745,5.824277056998629
3.6746619407366854,5.294144135084718
3.8189133047818515,4.811187210232691
3.968827354637162,4.371323957873013
4.1246263829013445,3.9708130870891343
4.286541408420921,3.6062271891309208
4.4548125188449825,3.2744275270340033
4.629689226627261,2.9725407275825053
4.811430839003257,2.697937204124236
5.000306842491082,2.4482113524732885
5.196597302486189,2.221163252848765
5.400593278542364,2.014781753462447
5.612597255954967,1.8272288735313933
5.8329235942862,1.6568248576619866
6.06189899349756,1.5020345834434057
6.29986297838068,1.361456787643712
6.547168402004727,1.2338129114629284
6.804181968927091,1.117936667051236
7.071284778942991,1.012764572435994
7.348872892180382,0.9173283222764731
7.637357916378006,0.8307457530232243
7.937167617217536,0.7522124474210464
8.248746552614573,0.6809951101014886
8.572556731909314,0.6164254993145767
8.909078300934132,0.5578936203102173
9.258810253973934,0.5048407035873557
9.622271173675122,0.4567587188535398
9.999999999999984,0.4131865629089086
