k [1/Mpc],P(k) [Mpc^3]
0.0001,44.36018218811554
0.00010392556829367125,46.36840594773647
0.00010800523745162529,48.467525340160975
0.00011224505680853065,50.661655559839346
0.00011665131316981963,52.9550944879413
0.00012123054013376525,55.352332401257826
0.00012598952777950273,57.85806283418105
0.00013093533273536104,60.47719258554798
0.00013607528864243335,63.2148502363549
0.00014141701702890234,66.07639489582552
0.00014696843861124463,69.06742676110198
0.00015273778503907136,72.19379941218996
0.00015873361110102093,75.461633082441
0.00016496480740980205,78.8773248713494
0.0001714406135851971,82.44755608342264
0.00017817063195457305,86.17930404280546
0.00018516484179121546,90.07986104693727
0.000192433614111598,94.15685495342332
0.00019998772705352857,98.41826014882881
0.0002078383818579757,102.87240520516278
0.00021599721947827182,107.52798463547961
0.0002244763378413224,112.39408315654849
0.0002332883097864157,117.480198614983
0.00024244620170823283,122.79625850735067
0.0002519635929317015,128.35263463388878
0.0002618545958474233,134.16015964117884
0.0002721338768375308,140.23015144373545
0.0002828166780230032,146.574436135808
0.0002939188398646886,153.20537055038014
0.0003054568246515432,160.13586127665187
0.00031744774091091926,167.3793774992964
0.00032990936877709396,174.94998605942692
0.00034286018635565856,182.86239117619172
0.00035631939712285854,191.1319652892597
0.000370306958400514,199.77476178830867
0.00038484361094874304,208.80751092897205
0.0003999509097203664,218.24767033775638
0.00041565125582259895,228.11348926582662
0.00043196792973341727,238.42405940926196
0.0004489251258218605,249.1993184176639
0.0004665479882234472,260.46002941024784
0.000484862648123908,272.22783699684237
0.000503896262506515,284.52534831562855
0.0005236770544204653,297.3761991306909
0.0005442343548300266,310.805067439413
0.0005655986461065005,324.837663664414
0.0005878016072274912,339.50077838665425
0.0006108761607505036,354.8223717276997
0.0006348565216305217,370.8316481428877
0.0006597782479539537,387.5590866266657
0.0006856782936641739,405.0364259119622
0.0007125950633568407,423.29669732113524
0.0007405684692262436,442.37434403303195
0.0007696399902471156,462.3053086691417
0.0007998527336796708,483.1270786425274
0.000831251498989063,504.87870369235725
0.0008638828442740447,527.6008277784255
0.000897795155303332,551.3357943838927
0.0009330387172620361,576.1276606730063
0.0009696657893145519,602.0222841538359
0.001007730682094461,629.0674106124413
0.0010472898382363582,657.3127239173631
0.0010884019160690055,686.8099388973002
0.0011311278765939214,717.6127978940247
0.001175531073878369,749.7771487140419
0.0012216773489967915,783.3610590437002
0.0012696351276599736,818.4248165541126
0.0013194755216767058,855.03106752466
0.0013712724343984,893.2447984785939
0.0014251026703029975,933.1333688992656
0.0014810460488806749,974.7666908915825
0.0015391855229902056,1018.2171839722338
0.001599607301861487,1063.5599263562547
0.0016624009789266115,1110.8726684655023
0.0017276596646690358,1160.2357938380846
0.0017954801246878305,1211.732532086633
0.0018659629231817451,1265.4487716653553
0.001939212572065829,1321.4732101475156
0.0020153376859417325,1379.8974812025438
0.002094451143151469,1440.8160384974594
0.002176670253153458,1504.3263767321146
0.002262116930469025,1570.528771976538
0.002350917875457286,1639.5263193026194
0.002443204762186487,1711.4251134067129
0.0025391144336803463,1786.333845911145
0.002638789104828933,1864.3641444371858
0.002742376573264949,1945.630436164025
0.0028500304385181063,2030.2498255639466
0.0029619103297725525,2118.342241411158
0.0030781821425650787,2210.0296371749655
0.003199018284775064,2305.4363462444803
0.0033245979322709396,2404.689001336654
0.003455107294592217,2507.916088895746
0.0035907398910610534,2615.248244687942
0.0037316968377327513,2726.8171398665777
0.0038781871456107214,2842.7556004120624
0.0040304280305680515,2963.197613752215
0.00418864523543527,3088.2772621352333
0.004353073364731888,3218.1292617411546
0.00452395623253805,3352.8876354560925
0.004701547224022131,3492.685326912299
0.004886109671160325,3637.6542980414206
0.005077917243205399,3787.923134476665
0.005277254352483535,3943.6180388985963
0.005484416576121017,4104.861753976602
0.005699711094326071,4271.772426210485
0.005923457145875801,4444.463527459448
0.006155986501483508,4623.038058837754
0.006397643955748424,4807.5903818057695
0.0066487878384172625,4998.209307473381
0.0069097905457156435,5194.979228543944
0.007181039092537346,5397.974916710354
0.007462935686310132,5607.239000864594
0.007755898323389004,5822.78562275437
0.00806036140886134,6044.617106491107
0.008376776400682916,6272.734569637279
0.008705612479099857,6507.124758509544
0.009047357242349292,6747.733316433028
0.00940251742967013,6994.461107340768
0.009771619672696168,7247.183670877241
0.010155211276345676,7505.758329139891
0.010553861030365234,7770.016845615795
0.010968160052731372,8039.741461847471
0.011398722666160517,8314.652340123966
0.011846187309026826,8594.426440175963
0.012311217482038896,8878.680070854774
0.012794502732078732,9166.975964599302
0.013296759674662111,9458.81788916504
0.013818733056536317,9753.634717626708
0.014361196859990781,10050.796595098353
0.014924955450518284,10349.589893735287
0.015510844769528393,10649.223188414659
0.016119733573881575,10948.829561796214
0.01675252472408214,11247.432466050488
0.017410156523040152,11543.979714514333
0.018093604107387147,11837.320288538784
0.01880388089340914,12126.204177205193
0.019542040079740527,12409.304967820493
0.02030917620904734,12685.17722453489
0.021106426791015535,12952.299279815137
0.021934973989050584,13209.068356935699
0.02279604637318978,13453.79390847614
0.023690920741826323,13684.739660459687
0.02462092401494623,13900.086690038188
0.02558743520168586,14097.977520339846
0.02659188744512693,14276.576606929662
0.027635770147361564,14434.1093300569
0.028720631177978267,14568.841449057081
0.029848079169243254,14678.956986724148
0.03101978590138095,14762.622421876498
0.03223748878149028,14818.396457349469
0.0335029934197723,14845.909896615009
0.03481817630688963,14845.106739506688
0.03618498759642746,14815.183719457864
0.037605453996581675,14754.58982463883
0.03908168177536263,14662.257900853412
0.04061585988376978,14538.941456381726
0.04221026320156896,14386.097534664916
0.04386725591048496,14206.019243859986
0.0455892949998106,14002.10083841742
0.047378933909631396,13777.721135827423
0.049238826317067365,13535.49312071305
0.05117173007114603,13277.666971385932
0.05318051128214196,13007.627229300675
0.05526814857144601,12730.570489340773
0.057437737488265785,12451.55264392965
0.0596924950997073,12175.329632039082
0.0620357647610427,11906.230926113505
0.06447102107323864,11647.999589666817
0.06700187503509585,11403.742280705217
0.06963207939763882,11175.414619304058
0.0723655342286965,10963.977601651528
0.07520629269592405,10768.998878276681
0.07815856707684081,10588.704948983983
0.08122673500479707,10419.97462480587
0.08441534596012978,10257.977630407644
0.0877291280161335,10096.394854806167
0.09117299484984914,9927.561619325945
0.09475205302806537,9742.90602525605
0.09847160957933764,9533.89407286102
0.1023371798632519,9293.3840413775
0.10635449574860109,9016.629368021071
0.11052951411260206,8702.651376716485
0.1148684256737553,8354.729793703818
0.1193776641714435,7980.489322541924
0.1240639159058831,7591.5999357825585
0.12893412965257148,7202.948435873208
0.13399552696593373,6831.203658777667
0.1392556128874462,6492.101373287689
0.14472218707411338,6199.335220813395
0.15040335536380234,5959.666562754944
0.15630754179458153,5769.873751774041
0.16244350109588662,5619.599940632551
0.16882033167003618,5490.820133328984
0.17544748908334581,5360.675430547989
0.1823348000868439,5205.87642911274
0.189492477187382,5008.829684700475
0.19693113379074215,4763.671992178968
0.20466179993919872,4479.921582110874
0.21269593866686892,4181.681051772217
0.22104546299710207,3900.8385638538025
0.22972275360711503,3665.3426907987464
0.23874067718606454,3488.7678176031723
0.2481126055137766,3365.4627453107823
0.25785243528842716,3270.5890732808653
0.26797460873256895,3167.5209293014127
0.27849413500806414,3025.640461642387
0.28942661247167484,2838.4570484301817
0.3007882518043098,2628.6666502682156
0.31259590004822796,2435.730857539253
0.324867065587837,2290.36609785987
0.3376199441111335,2194.1507227361603
0.35087344559027084,2118.082800012048
0.36464722232127456,2023.3309718341334
0.37896169806447155,1893.0758301615301
0.3938380983288488,1747.1666945136394
0.4092984818452433,1623.026770509385
0.4253657732750382,1538.182542154132
0.44206379720285277,1473.4450447731533
0.45941731346364734,1394.5004883679762
0.47745205385661277,1293.1926760219328
0.4961947603002895,1196.1464562591823
0.5156732244854959,1125.9196332271335
0.5359163290848509,1069.9901887752565
0.556954090580013,1003.2103606509883
0.5788177037701272,927.9292448672076
0.6015395880274836,865.7260715975134
0.6251534353689703,817.3160598519728
0.6496942604146115,764.5037432627175
0.6751984523072497,708.0756051588571
0.7017038286703824,661.896695137739
0.7292496916841444,620.8092198158998
0.7578768863625915,576.4519756860294
0.7876278611187046,536.2576282145341
0.8185467307069019,501.4488844817683
0.850679341636415,465.75385387375957
0.8840733401525058,432.3631907358217
0.9187782428863317,401.7678070624914
0.9548455102782278,373.5539369986025
0.9923286228832539,347.3769573793639
1.0312831606721837,322.950488068065
1.0717668854455022,300.0397728151385
1.1138398264826193,278.51588757832195
1.1575643695533022,258.33960672846644
1.2030053494233226,239.46984712865185
1.2502301459914542,221.85971518759598
1.299308784200415,205.45787180168318
1.3503140378698726,190.20609872183067
1.4033215376054824,176.0301980680699
1.4584098829439835,162.85632163665156
1.5156607589006013,150.61574896640738
1.575159057091621,139.24451201818016
1.6369930016117014,128.6831241108178
1.7012542798525885,118.8776802179147
1.7680381784572046,109.77894968799274
1.8374437246107238,101.34046092828194
1.9095738328780953,93.51833449363257
1.9845354578058014,86.2711856686534
2.0624397525140905,79.55990658650785
2.143402233514853,73.34734814012774
2.227542951999554,67.59863234680698
2.314986671851158,62.281122194319444
2.405863054644063,57.36429523050109
2.5003068519063225,52.819625454565475
2.598458104929248,48.62050236980106
2.7004623524206774,44.742098300732465
2.806470846309834,41.16123086653336
2.916640776023701,37.85626623171326
3.031135501567576,34.80702763481746
3.150124795755327,31.994701111810276
3.2737850959485697,29.40174455038113
3.4022997656780634,27.011828781028914
3.5358593665351745,24.80976464783593
3.6746619407366854,22.781430510223366
3.8189133047818515,20.913703270068613
3.968827354637162,19.194389835620505
4.1246263829013445,17.61216932000389
4.286541408420921,16.156538401473963
4.4548125188449825,14.817756674384377
4.629689226627261,13.586795196475729
4.811430839003257,12.455286543521897
5.000306842491082,11.415478475660219
5.196597302486189,10.460195002764936
5.400593278542364,9.58279660988417
5.612597255954967,8.77714254763824
5.8329235942862,8.037554887628719
6.06189899349756,7.358781426843981
6.29986297838068,6.735969242729221
6.547168402004727,6.164638504936769
6.804181968927091,5.640655135743283
7.071284778942991,5.1602054068533585
7.348872892180382,4.719776872315349
7.637357916378006,4.3161371191877365
7.937167617217536,3.9463045983649687
8.248746552614573,3.607529541226353
8.572556731909314,3.297276965435342
8.909078300934132,3.013207049434178
9.258810253973934,2.7531438218770368
9.622271173675122,2.5150825753539134
9.999999999999984,2.2971855004570854
