k [1/Mpc],P(k) [Mpc^3]
0.0001,204.70939659231337
0.00010392556829367125,212.12867241710174
0.00010800523745162529,219.81658194370723
0.00011224505680853065,227.78280956413235
0.00011665131316981963,236.037392371412
0.00012123054013376525,244.59073949813174
0.00012598952777950273,253.4536334163143
0.00013093533273536104,262.6372181624491
0.00013607528864243335,272.15301857897776
0.00014141701702890234,282.0129793530587
0.00014696843861124463,292.2295038613933
0.00015273778503907136,302.8154446559457
0.00015873361110102093,313.7840753128012
0.00016496480740980205,325.14910225318437
0.0001714406135851971,336.92471929417815
0.00017817063195457305,349.1256508449164
0.00018516484179121546,361.76715158817774
0.000192433614111598,374.86499309475846
0.00019998772705352857,388.43546832090595
0.0002078383818579757,402.4954383432834
0.00021599721947827182,417.06235698340305
0.0002244763378413224,432.1542894240048
0.0002332883097864157,447.7899131142686
0.00024244620170823283,463.9885140480407
0.0002519635929317015,480.7700385498026
0.0002618545958474233,498.1551251541812
0.0002721338768375308,516.1651264195805
0.0002828166780230032,534.8221051693876
0.0002939188398646886,554.1487970870892
0.0003054568246515432,574.168687633308
0.00031744774091091926,594.9060513894914
0.00032990936877709396,616.3859767595479
0.00034286018635565856,638.6343771042395
0.00035631939712285854,661.6779513663208
0.000370306958400514,685.5442500166263
0.00038484361094874304,710.2616884563517
0.0003999509097203664,735.8595461873158
0.00041565125582259895,762.3680313629588
0.00043196792973341727,789.8182563458088
0.0004489251258218605,818.242284808661
0.0004665479882234472,847.6731433654611
0.000484862648123908,878.1447793265277
0.000503896262506515,909.6921574563411
0.0005236770544204653,942.35122477475
0.0005442343548300266,976.1589411761065
0.0005655986461065005,1011.1533194138028
0.0005878016072274912,1047.373335943855
0.0006108761607505036,1084.8590427838737
0.0006348565216305217,1123.6515067625699
0.0006597782479539537,1163.7927917906331
0.0006856782936641739,1205.3260700395567
0.0007125950633568407,1248.2955290896957
0.0007405684692262436,1292.746453527433
0.0007696399902471156,1338.7251368133625
0.0007998527336796708,1386.2787534872282
0.000831251498989063,1435.4555522442238
0.0008638828442740447,1486.3046632618446
0.000897795155303332,1538.876169916176
0.0009330387172620361,1593.221074177161
0.0009696657893145519,1649.3909916396688
0.001007730682094461,1707.4384323412146
0.0010472898382363582,1767.416538727615
0.0010884019160690055,1829.3790604235953
0.0011311278765939214,1893.380428049833
0.001175531073878369,1959.475216642571
0.0012216773489967915,2027.7184788371044
0.0012696351276599736,2098.1654303850296
0.0013194755216767058,2170.871197911097
0.0013712724343984,2245.891123209934
0.0014251026703029975,2323.2801593874096
0.0014810460488806749,2403.0930709169925
0.0015391855229902056,2485.384135927059
0.001599607301861487,2570.206531967545
0.0016624009789266115,2657.6128305783313
0.0017276596646690358,2747.6541634139635
0.0017954801246878305,2840.38027050312
0.0018659629231817451,2935.8394900909525
0.001939212572065829,3034.077827621626
0.0020153376859417325,3135.1394712200627
0.002094451143151469,3239.0659690460957
0.002176670253153458,3345.8959301325444
0.002262116930469025,3455.6651860301954
0.002350917875457286,3568.4053087195043
0.002443204762186487,3684.144228533118
0.0025391144336803463,3802.9056157958553
0.002638789104828933,3924.7081319012495
0.002742376573264949,4049.5658492540906
0.0028500304385181063,4177.486501126145
0.0029619103297725525,4308.471844647943
0.0030781821425650787,4442.517295948038
0.003199018284775064,4579.610562785479
0.0033245979322709396,4719.732429325265
0.003455107294592217,4862.854949699762
0.0035907398910610534,5008.941353804371
0.0037316968377327513,5157.945968202625
0.0038781871456107214,5309.811740938409
0.0040304280305680515,5464.47174785165
0.00418864523543527,5621.848988433918
0.004353073364731888,5781.855937486861
0.00452395623253805,5944.392681937359
0.004701547224022131,6109.337915719818
0.004886109671160325,6276.554413924272
0.005077917243205399,6445.902637138555
0.005277254352483535,6617.248501533976
0.005484416576121017,6790.442333570887
0.005699711094326071,6965.264533746056
0.005923457145875801,7141.446863280406
0.006155986501483508,7318.723832627843
0.006397643955748424,7496.870713395883
0.0066487878384172625,7675.655681076428
0.0069097905457156435,7854.784595517467
0.007181039092537346,8033.90633770966
0.007462935686310132,8212.662333679991
0.007755898323389004,8390.729335711492
0.00806036140886134,8567.782573560016
0.008376776400682916,8743.449852083242
0.008705612479099857,8917.302236347816
0.009047357242349292,9088.889634404095
0.00940251742967013,9257.73396724639
0.009771619672696168,9423.336937725995
0.010155211276345676,9585.189224394442
0.010553861030365234,9742.775206517696
0.010968160052731372,9895.567592659681
0.011398722666160517,10043.010489629556
0.011846187309026826,10184.52874965522
0.012311217482038896,10319.536833778464
0.012794502732078732,10447.433081335801
0.013296759674662111,10567.612858509247
0.013818733056536317,10679.470209775973
0.014361196859990781,10782.401730468944
0.014924955450518284,10875.812204508167
0.015510844769528393,10959.113689279124
0.016119733573881575,11031.734323268834
0.01675252472408214,11093.131215303114
0.017410156523040152,11142.797195888106
0.018093604107387147,11180.260105349831
0.01880388089340914,11205.107008049801
0.019542040079740527,11216.974837290109
0.02030917620904734,11215.56833224292
0.021106426791015535,11200.68738696925
0.021934973989050584,11172.192623661558
0.02279604637318978,11130.06426138229
0.023690920741826323,11074.378125106818
0.02462092401494623,11005.303233397366
0.02558743520168586,10923.184838207057
0.02659188744512693,10828.438550282897
0.027635770147361564,10721.57270844955
0.028720631177978267,10603.180652988814
0.029848079169243254,10473.953284747307
0.03101978590138095,10334.927600615616
0.03223748878149028,10187.225952455577
0.0335029934197723,10031.536621982252
0.03481817630688963,9867.952727022634
0.03618498759642746,9696.725990076236
0.037605453996581675,9519.424277036047
0.03908168177536263,9338.142602488198
0.04061585988376978,9154.339833387488
0.04221026320156896,8968.264832775954
0.04386725591048496,8779.968538759449
0.0455892949998106,8588.827296710862
0.047378933909631396,8393.809837782002
0.049238826317067365,8194.062406555418
0.05117173007114603,7989.059960486104
0.05318051128214196,7778.456039315032
0.05526814857144601,7562.392011851744
0.057437737488265785,7341.379673773276
0.0596924950997073,7115.873325807761
0.0620357647610427,6886.211714861495
0.06447102107323864,6652.649238983905
0.06700187503509585,6415.2858324098015
0.06963207939763882,6175.702171614055
0.0723655342286965,5937.554587389985
0.07520629269592405,5703.333785063896
0.07815856707684081,5474.395680065183
0.08122673500479707,5252.069618501272
0.08441534596012978,5037.097871274276
0.0877291280161335,4829.297445165357
0.09117299484984914,4628.512585879584
0.09475205302806537,4434.4006730121455
0.09847160957933764,4245.946038782677
0.1023371798632519,4060.8854715584143
0.10635449574860109,3876.565314094258
0.11052951411260206,3691.4987058356724
0.1148684256737553,3506.38761710714
0.1193776641714435,3323.958730858668
0.1240639159058831,3147.5889599796255
0.12893412965257148,2980.0309718534777
0.13399552696593373,2822.306675454662
0.1392556128874462,2673.365308001049
0.14472218707411338,2531.532706658909
0.15040335536380234,2395.630812626594
0.15630754179458153,2264.2138868663446
0.16244350109588662,2135.7572506576794
0.16882033167003618,2010.6394600112599
0.17544748908334581,1890.6027259639375
0.1823348000868439,1776.686446084833
0.189492477187382,1669.6456597197298
0.19693113379074215,1569.216539733355
0.20466179993919872,1473.47471507565
0.21269593866686892,1381.5889986388668
0.22104546299710207,1293.9042074185793
0.22972275360711503,1210.7332646687746
0.23874067718606454,1132.1952859623175
0.2481126055137766,1058.3158734944732
0.25785243528842716,988.7541130385973
0.26797460873256895,922.724519553364
0.27849413500806414,860.3943368876595
0.28942661247167484,801.7953196674464
0.3007882518043098,746.6908011946426
0.31259590004822796,694.9397824947357
0.324867065587837,646.308457052148
0.3376199441111335,600.6302632840485
0.35087344559027084,557.8976492447078
0.36464722232127456,517.8321139896839
0.37896169806447155,480.38695940124757
0.3938380983288488,445.3420724730171
0.4092984818452433,412.6514249496019
0.4253657732750382,382.10982921025004
0.44206379720285277,353.6490283061161
0.45941731346364734,327.1065667577105
0.47745205385661277,302.3939956420559
0.4961947603002895,279.3973642863209
0.5156732244854959,257.9990167534922
0.5359163290848509,238.12277045875936
0.556954090580013,219.66592062114907
0.5788177037701272,202.53459089181382
0.6015395880274836,186.65192302418865
0.6251534353689703,171.9395832305524
0.6496942604146115,158.30634534306606
0.6751984523072497,145.68754745570513
0.7017038286703824,134.01209870122048
0.7292496916841444,123.21605078421261
0.7578768863625915,113.2404260836056
0.7876278611187046,104.0279259618241
0.8185467307069019,95.52471603042531
0.850679341636415,87.68030986911664
0.8840733401525058,80.447404485528
0.9187782428863317,73.78172273931571
0.9548455102782278,67.64187596172852
0.9923286228832539,61.98919122196172
1.0312831606721837,56.78755200663803
1.0717668854455022,52.00325799137465
1.1138398264826193,47.60488968986776
1.1575643695533022,43.56316456131191
1.2030053494233226,39.85077305615451
1.2502301459914542,36.44231859053901
1.299308784200415,33.31421761328581
1.3503140378698726,30.44458451760281
1.4033215376054824,27.81312246794911
1.4584098829439835,25.40102261755695
1.5156607589006013,23.190869188974318
1.575159057091621,21.166539378327723
1.6369930016117014,19.31311537502597
1.7012542798525885,17.616802686028656
1.7680381784572046,16.064853016130634
1.8374437246107238,14.645483161697939
1.9095738328780953,13.34780569713045
1.9845354578058014,12.161780957698364
2.0624397525140905,11.078156894076617
2.143402233514853,10.088411378536117
2.227542951999554,9.18469835884014
2.314986671851158,8.35979810319757
2.405863054644063,7.607070104389988
2.5003068519063225,6.9204088085662265
2.598458104929248,6.294203024592451
2.7004623524206774,5.723298183854397
2.806470846309834,5.202961041221915
2.916640776023701,4.7288452176747
3.031135501567576,4.296962606396438
3.150124795755327,3.903656753045008
3.2737850959485697,3.5455765790162244
3.4022997656780634,3.219652035573226
3.5358593665351745,2.9230714037550674
3.6746619407366854,2.6532597130589544
3.8189133047818515,2.4078605084778575
3.968827354637162,2.184718459031247
4.1246263829013445,1.981862845773044
4.286541408420921,1.7974923384283952
4.4548125188449825,1.629960955268988
4.629689226627261,1.4777651197506954
4.811430839003257,1.3395318111171475
5.000306842491082,1.2140076253940693
5.196597302486189,1.1000487031102242
5.400593278542364,0.9966114675005993
5.612597255954967,0.9027438477041407
5.8329235942862,0.8175773125858758
6.06189899349756,0.7403203257835214
6.29986297838068,0.670251776177462
6.547168402004727,0.606714875435351
6.804181968927091,0.5491115796109327
7.071284778942991,0.49689787954919334
7.348872892180382,0.44957903204719396
7.637357916378006,0.40670464231167736
7.937167617217536,0.36786477403072954
8.248746552614573,0.33268642563253115
8.572556731909314,0.3008302120993942
8.909078300934132,0.27198620629826775
9.258810253973934,0.2458720771406198
9.622271173675122,0.22223181422348642
9.999999999999984,0.2008333042890179
