k [1/Mpc],P(k) [Mpc^3]
0.0001,233.28435339599858
0.00010392556829367125,242.4345506078353
0.00010800523745162529,251.9430304617924
0.00011224505680853065,261.82374428921736
0.00011665131316981963,272.09117095824126
0.00012123054013376525,282.76034553573874
0.00012598952777950273,293.84688521262507
0.00013093533273536104,305.3670102211644
0.00013607528864243335,317.3375558578209
0.00014141701702890234,329.7759765565853
0.00014696843861124463,342.7003872285047
0.00015273778503907136,356.12958659453966
0.00015873361110102093,370.0830815783588
0.00016496480740980205,384.58111604032155
0.0001714406135851971,399.6446848882263
0.00017817063195457305,415.29556984295624
0.00018516484179121546,431.55635230273606
0.000192433614111598,448.45042424927846
0.00019998772705352857,466.0020443683245
0.0002078383818579757,484.23635472209827
0.00021599721947827182,503.1794173623756
0.0002244763378413224,522.8582374852194
0.0002332883097864157,543.3007555430801
0.00024244620170823283,564.5359190762092
0.0002519635929317015,586.5937101915903
0.0002618545958474233,609.5051783691098
0.0002721338768375308,633.3024647646513
0.0002828166780230032,658.0187224671753
0.0002939188398646886,683.6882254440295
0.0003054568246515432,710.3464510720877
0.00031744774091091926,738.0301225272293
0.00032990936877709396,766.7772186819933
0.00034286018635565856,796.6268254893077
0.00035631939712285854,827.6192296343793
0.000370306958400514,859.7960525333586
0.00038484361094874304,893.2002828989421
0.0003999509097203664,927.876310290816
0.00041565125582259895,963.8697887655441
0.00043196792973341727,1001.2276517089641
0.0004489251258218605,1039.9982623179235
0.0004665479882234472,1080.2313322921586
0.000484862648123908,1121.9780291444865
0.000503896262506515,1165.2909606346764
0.0005236770544204653,1210.2241375257372
0.0005442343548300266,1256.8330729962781
0.0005655986461065005,1305.1745125709856
0.0005878016072274912,1355.3065551934246
0.0006108761607505036,1407.2887685400892
0.0006348565216305217,1461.182088407243
0.0006597782479539537,1517.0489266878062
0.0006856782936641739,1574.9528568988833
0.0007125950633568407,1634.9585875755695
0.0007405684692262436,1697.1321489830204
0.0007696399902471156,1761.540540493498
0.0007998527336796708,1828.2519404896054
0.000831251498989063,1897.3353727275253
0.0008638828442740447,1968.8603735520867
0.000897795155303332,2042.8974013575523
0.0009330387172620361,2119.517318800265
0.0009696657893145519,2198.7915099108377
0.001007730682094461,2280.7916225270683
0.0010472898382363582,2365.5886884647425
0.0010884019160690055,2453.2538008122565
0.0011311278765939214,2543.857533148116
0.001175531073878369,2637.469778515472
0.0012216773489967915,2734.1598435469423
0.0012696351276599736,2833.995358776784
0.0013194755216767058,2937.042728899421
0.0013712724343984,3043.366256961621
0.0014251026703029975,3153.027298438893
0.0014810460488806749,3266.0850510607547
0.0015391855229902056,3382.595486330158
0.001599607301861487,3502.611413225148
0.0016624009789266115,3626.1818836068355
0.0017276596646690358,3753.3506331702297
0.0017954801246878305,3884.1570175428305
0.0018659629231817451,4018.6351123742584
0.001939212572065829,4156.813327103218
0.0020153376859417325,4298.714131469617
0.002094451143151469,4444.351956861635
0.002176670253153458,4593.733968609869
0.002262116930469025,4746.859039520957
0.002350917875457286,4903.716651242868
0.002443204762186487,5064.287425530147
0.0025391144336803463,5228.540926433833
0.002638789104828933,5396.435918444243
0.002742376573264949,5567.91940943437
0.0028500304385181063,5742.924086227515
0.0029619103297725525,5921.369966422624
0.0030781821425650787,6103.161735359228
0.003199018284775064,6288.188366125622
0.0033245979322709396,6476.323588822482
0.003455107294592217,6667.422233911034
0.0035907398910610534,6861.32221863506
0.0037316968377327513,7057.843016692395
0.0038781871456107214,7256.784225462003
0.0040304280305680515,7457.925458012347
0.00418864523543527,7661.011496496871
0.004353073364731888,7865.759093915267
0.00452395623253805,8071.876093164427
0.004701547224022131,8279.07909539606
0.004886109671160325,8487.066208801642
0.005077917243205399,8695.434449710434
0.005277254352483535,8903.68902854887
0.005484416576121017,9111.317028103915
0.005699711094326071,9317.83616335312
0.005923457145875801,9522.756502950004
0.006155986501483508,9725.569684197024
0.006397643955748424,9925.750990834082
0.0066487878384172625,10122.74850456474
0.0069097905457156435,10315.921896944848
0.007181039092537346,10504.578211964259
0.007462935686310132,10687.992730074986
0.007755898323389004,10865.397356842717
0.00806036140886134,11036.002106569635
0.008376776400682916,11198.974912653423
0.008705612479099857,11353.451249181877
0.009047357242349292,11498.549398669758
0.00940251742967013,11633.347141781649
0.009771619672696168,11756.914193948787
0.010155211276345676,11868.28248601747
0.010553861030365234,11966.439998158408
0.010968160052731372,12050.384701444736
0.011398722666160517,12119.090409728089
0.011846187309026826,12171.547101607302
0.012311217482038896,12206.765055747013
0.012794502732078732,12223.753177162054
0.013296759674662111,12221.583301130822
0.013818733056536317,12199.366562467518
0.014361196859990781,12156.281307851585
0.014924955450518284,12091.61394667081
0.015510844769528393,12004.752291663288
0.016119733573881575,11895.22395384099
0.01675252472408214,11762.728414034751
0.017410156523040152,11607.150551196239
0.018093604107387147,11428.572495301021
0.01880388089340914,11227.369081658693
0.019542040079740527,11004.14185935187
0.02030917620904734,10759.789652704147
0.021106426791015535,10495.60752396303
0.021934973989050584,10213.07993735553
0.02279604637318978,9914.16408807763
0.023690920741826323,9601.111223784003
0.02462092401494623,9276.367868053041
0.02558743520168586,8942.98197500023
0.02659188744512693,8603.980651122192
0.027635770147361564,8262.660463415184
0.028720631177978267,7922.5426087704
0.029848079169243254,7586.9242570083015
0.03101978590138095,7259.693617789811
0.03223748878149028,6944.5090693644825
0.0335029934197723,6644.198945988006
0.03481817630688963,6360.698156513126
0.03618498759642746,6095.622410500644
0.037605453996581675,5851.790342049753
0.03908168177536263,5632.491511044074
0.04061585988376978,5438.724341478596
0.04221026320156896,5267.271835300409
0.04386725591048496,5114.816432175705
0.0455892949998106,4978.725714012433
0.047378933909631396,4856.459868761706
0.049238826317067365,4743.85770619544
0.05117173007114603,4635.974224125605
0.05318051128214196,4526.129940560565
0.05526814857144601,4407.344158892093
0.057437737488265785,4272.787816631904
0.0596924950997073,4117.20538263161
0.0620357647610427,3937.627853792251
0.06447102107323864,3734.4416367134004
0.06700187503509585,3511.2336187153032
0.06963207939763882,3274.3901666370725
0.0723655342286965,3032.0375608357854
0.07520629269592405,2793.4006220210467
0.07815856707684081,2568.6880426535636
0.08122673500479707,2367.864670307627
0.08441534596012978,2199.1647076283466
0.0877291280161335,2066.4481710507553
0.09117299484984914,1968.3234232952054
0.09475205302806537,1897.9373791468283
0.09847160957933764,1844.8176643347308
0.1023371798632519,1796.5444361147368
0.10635449574860109,1740.3729683480433
0.11052951411260206,1665.7631910048515
0.1148684256737553,1567.6245618406667
0.1193776641714435,1448.438673073306
0.1240639159058831,1318.1086486089123
0.12893412965257148,1191.697937339957
0.13399552696593373,1084.1317738518203
0.1392556128874462,1003.6492687372412
0.14472218707411338,949.5052524680103
0.15040335536380234,913.9553103590032
0.15630754179458153,883.6721533531569
0.16244350109588662,843.9825135975791
0.16882033167003618,787.9920558183292
0.17544748908334581,719.6568062840414
0.1823348000868439,650.2330637389698
0.189492477187382,592.5559415341759
0.19693113379074215,552.1731895419819
0.20466179993919872,524.9996935983426
0.21269593866686892,500.2260424847647
0.22104546299710207,468.3428987245059
0.22972275360711503,429.2065819305573
0.23874067718606454,390.0331354840883
0.2481126055137766,358.89087573647527
0.25785243528842716,336.3729007428576
0.26797460873256895,316.54690618184264
0.27849413500806414,293.695834669276
0.28942661247167484,268.7969635103444
0.3007882518043098,246.63438359807472
0.31259590004822796,229.20944864759997
0.324867065587837,213.56597825606633
0.3376199441111335,197.03386834133252
0.35087344559027084,180.78571798590048
0.36464722232127456,166.86148103168938
0.37896169806447155,154.61409949245902
0.3938380983288488,142.5153433163018
0.4092984818452433,130.98651064018333
0.4253657732750382,120.7983361639208
0.44206379720285277,111.40324455010722
0.45941731346364734,102.43175510507929
0.47745205385661277,94.24486812468801
0.4961947603002895,86.75697483028488
0.5156732244854959,79.73592119449407
0.5359163290848509,73.2857821143633
0.556954090580013,67.35910336357611
0.5788177037701272,61.87637068622998
0.6015395880274836,56.8099484910146
0.6251534353689703,52.13504290125685
0.6496942604146115,47.82727096514904
0.6751984523072497,43.86262871987047
0.7017038286703824,40.21579191023797
0.7292496916841444,36.861841444775465
0.7578768863625915,33.777785030505676
0.7876278611187046,30.94242548083421
0.8185467307069019,28.336218669842626
0.850679341636415,25.941267226521518
0.8840733401525058,23.74134529704013
0.9187782428863317,21.721427608067227
0.9548455102782278,19.867552460431458
0.9923286228832539,18.16675641467971
1.0312831606721837,16.607008767482288
1.0717668854455022,15.177108529297575
1.1138398264826193,13.866656214295837
1.1575643695533022,12.666043911476327
1.2030053494233226,11.566400068676677
1.2502301459914542,10.55953656517098
1.299308784200415,9.63790123097996
1.3503140378698726,8.794535738417643
1.4033215376054824,8.02302500100057
1.4584098829439835,7.317455678288068
1.5156607589006013,6.672379359033994
1.575159057091621,6.082778085194126
1.6369930016117014,5.544029534168958
1.7012542798525885,5.051878244881493
1.7680381784572046,4.602411402792379
1.8374437246107238,4.192032737632531
1.9095738328780953,3.817438116438026
1.9845354578058014,3.475592873634372
2.0624397525140905,3.1637107255652834
2.143402233514853,2.879234449182806
2.227542951999554,2.619817900113646
2.314986671851158,2.3833093166768777
2.405863054644063,2.1677358654770633
2.5003068519063225,1.9712890574220145
2.598458104929248,1.792311561690172
2.7004623524206774,1.6292855004067779
2.806470846309834,1.4808211682547052
2.916640776023701,1.345646588076912
3.031135501567576,1.2225978307481025
3.150124795755327,1.1106098858983535
3.2737850959485697,1.0087087878369452
3.4022997656780634,0.9160042246813225
3.5358593665351745,0.831682568719165
3.6746619407366854,0.7550004654028067
3.8189133047818515,0.6852789386642183
3.968827354637162,0.6218979732196921
4.1246263829013445,0.5642915374598931
4.286541408420921,0.511943011680609
4.4548125188449825,0.4643809904334773
4.629689226627261,0.42117541975384004
4.811430839003257,0.3819339835134381
5.000306842491082,0.34629893777917475
5.196597302486189,0.31394419551217784
5.400593278542364,0.28457259061712586
5.612597255954967,0.2579133711176207
5.8329235942862,0.23371986948067291
6.06189899349756,0.21176736860846251
6.29986297838068,0.19185127451927295
6.547168402004727,0.1737853632904133
6.804181968927091,0.15740016305264348
7.071284778942991,0.1425414846892927
7.348872892180382,0.1290691859993072
7.637357916378006,0.1168558519026795
7.937167617217536,0.10578555764272883
8.248746552614573,0.09575285463925956
8.572556731909314,0.08666184580511009
8.909078300934132,0.07842521955258827
9.258810253973934,0.07096326096109379
9.622271173675122,0.06420358729113133
9.999999999999984,0.058080564597087214
