k [1/Mpc],P(k) [Mpc^3]
0.0001,1755.3983127485603
0.00010392556829367125,1824.1224939897547
0.00010800523745162529,1895.5220505471314
0.00011224505680853065,1969.699361887188
0.00011665131316981963,2046.7605115024471
0.00012123054013376525,2126.815363671016
0.00012598952777950273,2209.97776492528
0.00013093533273536104,2296.3653783090294
0.00013607528864243335,2386.0999515080994
0.00014141701702890234,2479.3075988550913
0.00014696843861124463,2576.118939807221
0.00015273778503907136,2676.669219067392
0.00015873361110102093,2781.0979375603724
0.00016496480740980205,2889.549029460469
0.0001714406135851971,3002.171323423606
0.00017817063195457305,3119.118526290193
0.00018516484179121546,3240.549491215094
0.000192433614111598,3366.627946729405
0.00019998772705352857,3497.5224265044053
0.0002078383818579757,3633.4068168269255
0.00021599721947827182,3774.459955684681
0.0002244763378413224,3920.8660348572753
0.0002332883097864157,4072.814524266192
0.00024244620170823283,4230.499707346446
0.0002519635929317015,4394.1214583428655
0.0002618545958474233,4563.884874581155
0.0002721338768375308,4740.000449643718
0.0002828166780230032,4922.68400610036
0.0002939188398646886,5112.155273696057
0.0003054568246515432,5308.639155705054
0.00031744774091091926,5512.3657473709445
0.00032990936877709396,5723.5702170911745
0.00034286018635565856,5942.4928265489725
0.00035631939712285854,6169.3768398049615
0.000370306958400514,6404.469583730953
0.00038484361094874304,6648.022606650108
0.0003999509097203664,6900.290928496224
0.00041565125582259895,7161.533602361998
0.00043196792973341727,7432.011789821051
0.0004489251258218605,7711.988958675101
0.0004665479882234472,8001.731048643651
0.000484862648123908,8301.50442210366
0.000503896262506515,8611.577052516068
0.0005236770544204653,8932.216548015103
0.0005442343548300266,9263.689272131473
0.0005655986461065005,9606.260950288615
0.0005878016072274912,9960.192364481363
0.0006108761607505036,10325.741035406854
0.0006348565216305217,10703.159680115637
0.0006597782479539537,11092.693394296679
0.0006856782936641739,11494.581338602131
0.0007125950633568407,11909.050012252248
0.0007405684692262436,12336.314062596413
0.0007696399902471156,12776.576248124205
0.0007998527336796708,13230.021163134214
0.000831251498989063,13696.818703511843
0.0008638828442740447,14177.117982470689
0.000897795155303332,14671.045197880561
0.0009330387172620361,15178.706118392378
0.0009696657893145519,15700.180308857138
0.001007730682094461,16235.522324553594
0.0010472898382363582,16784.758516443228
0.0010884019160690055,17347.883071074415
0.0011311278765939214,17924.85841838001
0.001175531073878369,18515.600970216645
0.0012216773489967915,19119.983794478158
0.0012696351276599736,19737.839875670415
0.0013194755216767058,20368.957697187576
0.0013712724343984,21013.08144893229
0.0014251026703029975,21669.903667425864
0.0014810460488806749,22339.06316487919
0.0015391855229902056,23020.14586688432
0.001599607301861487,23712.676169749637
0.0016624009789266115,24416.12012414893
0.0017276596646690358,25129.8817502593
0.0017954801246878305,25853.299077994587
0.0018659629231817451,26585.64699465724
0.001939212572065829,27326.131586632375
0.0020153376859417325,28073.891220119734
0.002094451143151469,28827.99406258428
0.002176670253153458,29587.431510827446
0.002262116930469025,30351.124307422277
0.002350917875457286,31117.91202791181
0.002443204762186487,31886.554601402415
0.0025391144336803463,32655.73543455574
0.002638789104828933,33424.04220168783
0.002742376573264949,34189.985609238145
0.0028500304385181063,34952.00831452255
0.0029619103297725525,35708.487766380385
0.0030781821425650787,36457.713801273676
0.003199018284775064,37197.73611922277
0.0033245979322709396,37926.455672660086
0.003455107294592217,38641.90242624689
0.0035907398910610534,39342.48744409732
0.0037316968377327513,40026.58840690624
0.0038781871456107214,40691.542948115806
0.0040304280305680515,41333.86915593224
0.00418864523543527,41950.19970909538
0.004353073364731888,42537.9513031337
0.00452395623253805,43094.726159308455
0.004701547224022131,43618.09945310326
0.004886109671160325,44105.6233098061
0.005077917243205399,44554.78753006504
0.005277254352483535,44962.50638877049
0.005484416576121017,45325.49308827746
0.005699711094326071,45640.39972573645
0.005923457145875801,45903.728622860435
0.006155986501483508,46112.04179096598
0.006397643955748424,46261.735045545414
0.0066487878384172625,46349.17992126995
0.0069097905457156435,46370.868196998184
0.007181039092537346,46323.24425568297
0.007462935686310132,46202.98078358027
0.007755898323389004,46006.520820244936
0.00806036140886134,45730.1115835064
0.008376776400682916,45370.33950789833
0.008705612479099857,44923.568107013954
0.009047357242349292,44386.573504589156
0.00940251742967013,43756.451207536884
0.009771619672696168,43030.39215157657
0.010155211276345676,42206.445269067684
0.010553861030365234,41282.555221687064
0.010968160052731372,40257.31264507804
0.011398722666160517,39130.3488066851
0.011846187309026826,37901.563994784265
0.012311217482038896,36572.52331134801
0.012794502732078732,35145.4469984459
0.013296759674662111,33623.600192541075
0.013818733056536317,32012.404869792812
0.014361196859990781,30317.882356314847
0.014924955450518284,28548.50882492653
0.015510844769528393,26714.49630845423
0.016119733573881575,24827.27688342741
0.01675252472408214,22901.325373515898
0.017410156523040152,20951.823263454302
0.018093604107387147,18996.155448741036
0.01880388089340914,17053.77606186493
0.019542040079740527,15144.334313011504
0.02030917620904734,13289.347979461121
0.021106426791015535,11509.340854823968
0.021934973989050584,9824.036018609695
0.02279604637318978,8253.177813482742
0.023690920741826323,6814.789340414017
0.02462092401494623,5523.232483461764
0.02558743520168586,4387.301773348276
0.02659188744512693,3409.875237186744
0.027635770147361564,2589.325527315194
0.028720631177978267,1921.9836397925997
0.029848079169243254,1396.5216675741326
0.03101978590138095,998.2002830676234
0.03223748878149028,711.1997626182887
0.0335029934197723,513.1809163610093
0.03481817630688963,386.8802182088816
0.03618498759642746,317.04727279463884
0.037605453996581675,290.06778944855165
0.03908168177536263,299.60566464783545
0.04061585988376978,347.09780552694014
0.04221026320156896,437.4295325435353
0.04386725591048496,578.569312228818
0.0455892949998106,772.5587742841066
0.047378933909631396,1013.6484173160634
0.049238826317067365,1284.5981099072144
0.05117173007114603,1557.7497787774646
0.05318051128214196,1796.659002428909
0.05526814857144601,1961.9547061216215
0.057437737488265785,2016.8646454630914
0.0596924950997073,1938.7097344025958
0.0620357647610427,1728.480605499532
0.06447102107323864,1414.7648708526242
0.06700187503509585,1051.7959835542406
0.06963207939763882,702.1959133795089
0.0723655342286965,416.7104667461197
0.07520629269592405,219.97836563410812
0.07815856707684081,107.46187551445888
0.08122673500479707,57.51812548593038
0.08441534596012978,45.46772280561219
0.0877291280161335,62.41848989162832
0.09117299484984914,114.95402305976351
0.09475205302806537,212.05287671988665
0.09847160957933764,340.04236533313065
0.1023371798632519,453.73842889031994
0.10635449574860109,499.6072184879197
0.11052951411260206,450.8120366330151
0.1148684256737553,327.53824543950066
0.1193776641714435,188.39361269428142
0.1240639159058831,87.98054622107506
0.12893412965257148,39.94250422422894
0.13399552696593373,28.879515904594314
0.1392556128874462,44.090710249381836
0.14472218707411338,86.66389775347702
0.15040335536380234,142.6576834264578
0.15630754179458153,171.9279413039509
0.16244350109588662,147.17413040218997
0.16882033167003618,90.33695793782495
0.17544748908334581,43.713268325464696
0.1823348000868439,25.132430003755598
0.189492477187382,28.896687601832063
0.19693113379074215,49.085175317175604
0.20466179993919872,69.43932080462753
0.21269593866686892,66.0141438081132
0.22104546299710207,42.64846800712407
0.22972275360711503,23.95137187178617
0.23874067718606454,20.249539463129693
0.2481126055137766,27.757358728820154
0.25785243528842716,35.10441416747537
0.26797460873256895,30.198764686174485
0.27849413500806414,19.682390980430394
0.28942661247167484,15.457188289618836
0.3007882518043098,17.995761504951904
0.31259590004822796,19.921192429049654
0.324867065587837,16.099692162173607
0.3376199441111335,12.137089448868279
0.35087344559027084,12.044235424277456
0.36464722232127456,12.643410644387242
0.37896169806447155,10.701456633302536
0.3938380983288488,8.899752866797291
0.4092984818452433,8.789922604547893
0.4253657732750382,8.243336043246995
0.44206379720285277,7.061435324060897
0.45941731346364734,6.19310990919258
0.47745205385661277,5.563317514221175
0.4961947603002895,5.08641200903602
0.5156732244854959,4.702852598624734
0.5359163290848509,4.369209332199335
0.556954090580013,4.0528031108594815
0.5788177037701272,3.7327990442122236
0.6015395880274836,3.4133435152035805
0.6251534353689703,3.1043984725148537
0.6496942604146115,2.8132868055190614
0.6751984523072497,2.5449347408418985
0.7017038286703824,2.3022495175649533
0.7292496916841444,2.0857225447989487
0.7578768863625915,1.8921637266803717
0.7876278611187046,1.7182122221617295
0.8185467307069019,1.5610926940271932
0.850679341636415,1.4185095245693378
0.8840733401525058,1.288562721738653
0.9187782428863317,1.1698417914136094
0.9548455102782278,1.0615075714410243
0.9923286228832539,0.9628124454616462
1.0312831606721837,0.8730340240144823
1.0717668854455022,0.7914796592998308
1.1138398264826193,0.7174892265322269
1.1575643695533022,0.6504055749988461
1.2030053494233226,0.5895725777989252
1.2502301459914542,0.5343946629927928
1.299308784200415,0.4843356453236611
1.3503140378698726,0.4389124541854831
1.4033215376054824,0.3976898113181937
1.4584098829439835,0.36028112828614994
1.5156607589006013,0.32634177488159805
1.575159057091621,0.2955574949715903
1.6369930016117014,0.267641510737441
1.7012542798525885,0.2423322414437559
1.7680381784572046,0.21939112403132258
1.8374437246107238,0.19859981934343926
1.9095738328780953,0.179759082588005
1.9845354578058014,0.1626878999609654
2.0624397525140905,0.14722185921348052
2.143402233514853,0.13321164637197772
2.227542951999554,0.12052168017814904
2.314986671851158,0.10902888734530236
2.405863054644063,0.09862154323383661
2.5003068519063225,0.08919822465474532
2.598458104929248,0.0806668726666268
2.7004623524206774,0.07294393946076559
2.806470846309834,0.06595361239707213
2.916640776023701,0.05962710926696464
3.031135501567576,0.05390203219949651
3.150124795755327,0.04872178169818539
3.2737850959485697,0.044035024716403144
3.4022997656780634,0.03979521082810969
3.5358593665351745,0.035960132137116844
3.6746619407366854,0.032491523043945626
3.8189133047818515,0.029354696776182212
3.968827354637162,0.026518214773251614
4.1246263829013445,0.023953586141753067
4.286541408420921,0.021634994553733335
4.4548125188449825,0.0195390515676386
4.629689226627261,0.01764457212875843
4.811430839003257,0.015932366204243088
5.000306842491082,0.014385052722044487
5.196597302486189,0.01298689107218903
5.400593278542364,0.011723627999997755
5.612597255954967,0.010582354395032125
5.8329235942862,0.00955137934484992
6.06189899349756,0.008620123024871038
6.29986297838068,0.007779012503086424
6.547168402004727,0.007019386692415052
6.804181968927091,0.006333410410232738
7.071284778942991,0.005714000482931709
7.348872892180382,0.0051547528650621
7.637357916378006,0.004649873433785211
7.937167617217536,0.004194120412009398
8.248746552614573,0.003782752351440493
8.572556731909314,0.003411480012238935
8.909078300934132,0.003076414190990154
9.258810253973934,0.00277403506602841
9.622271173675122,0.002501165009711168
9.999999999999984,0.0022549353300347456
