k [1/Mpc],P(k) [Mpc^3]
0.0001,901.8272708924819
0.00010392556829367125,931.8173652242552
0.00010800523745162529,962.8035786624037
0.00011224505680853065,994.8188476403363
0.00011665131316981963,1027.8971992214686
0.00012123054013376525,1062.0738043117615
0.00012598952777950273,1097.3849909376513
0.00013093533273536104,1133.8682124568377
0.00013607528864243335,1171.5620867384055
0.00014141701702890234,1210.5064933124825
0.00014696843861124463,1250.7426421074724
0.00015273778503907136,1292.3130938033585
0.00015873361110102093,1335.2617696089906
0.00016496480740980205,1379.6339838734366
0.0001714406135851971,1425.476503032506
0.00017817063195457305,1472.837507523262
0.00018516484179121546,1521.7666826351524
0.000192433614111598,1572.3153279175783
0.00019998772705352857,1624.5364353897803
0.0002078383818579757,1678.484690741254
0.00021599721947827182,1734.2163805606888
0.0002244763378413224,1791.789475398296
0.0002332883097864157,1851.2637726557132
0.00024244620170823283,1912.7009568164951
0.0002519635929317015,1976.1646464872024
0.0002618545958474233,2041.7203161020827
0.0002721338768375308,2109.435331094852
0.0002828166780230032,2179.3791080260958
0.0002939188398646886,2251.623092886179
0.0003054568246515432,2326.2408763575745
0.00031744774091091926,2403.3082134472857
0.00032990936877709396,2482.9030327709684
0.00034286018635565856,2565.10555398004
0.00035631939712285854,2649.99807172135
0.000370306958400514,2737.665127823476
0.00038484361094874304,2828.1936932687977
0.0003999509097203664,2921.673189866004
0.00041565125582259895,3018.195569060656
0.00043196792973341727,3117.854956321482
0.0004489251258218605,3220.747736530495
0.0004665479882234472,3326.9728809235125
0.000484862648123908,3436.631879297661
0.000503896262506515,3549.828890912655
0.0005236770544204653,3666.6705377786056
0.0005442343548300266,3787.2658406529576
0.0005655986461065005,3911.726476131391
0.0005878016072274912,4040.166253035039
0.0006108761607505036,4172.701468307921
0.0006348565216305217,4309.451029197562
0.0006597782479539537,4450.536319490302
0.0006856782936641739,4596.081377697716
0.0007125950633568407,4746.21210841348
0.0007405684692262436,4901.056512045283
0.0007696399902471156,5060.7450071888825
0.0007998527336796708,5225.410025836695
0.000831251498989063,5395.186348290711
0.0008638828442740447,5570.210082954977
0.000897795155303332,5750.618514152384
0.0009330387172620361,5936.550760416353
0.0009696657893145519,6128.146750502683
0.001007730682094461,6325.547824325642
0.0010472898382363582,6528.895781479445
0.0010884019160690055,6738.332005183587
0.0011311278765939214,6953.998612262659
0.001175531073878369,7176.036932725981
0.0012216773489967915,7404.587987606228
0.0012696351276599736,7639.791807490467
0.0013194755216767058,7881.785396316333
0.0013712724343984,8130.704522588282
0.0014251026703029975,8386.682008695327
0.0014810460488806749,8649.847648900066
0.0015391855229902056,8920.328119978245
0.001599607301861487,9198.243597387189
0.0016624009789266115,9483.709878646201
0.0017276596646690358,9776.836518416229
0.0017954801246878305,10077.72566606673
0.0018659629231817451,10386.473272210242
0.001939212572065829,10703.165437714992
0.0020153376859417325,11027.879743382537
0.002094451143151469,11360.683565851667
0.002176670253153458,11701.631181046176
0.002262116930469025,12050.766170051125
0.002350917875457286,12408.117483185077
0.002443204762186487,12773.69983696243
0.0025391144336803463,13147.513152605417
0.002638789104828933,13529.537966599775
0.002742376573264949,13919.73832606763
0.0028500304385181063,14318.05765865564
0.0029619103297725525,14724.417733123488
0.0030781821425650787,15138.719563964045
0.003199018284775064,15560.836257523091
0.0033245979322709396,15990.616720480943
0.003455107294592217,16427.881371062507
0.0035907398910610534,16872.41827643582
0.0037316968377327513,17323.987146908214
0.0038781871456107214,17782.30825122046
0.0040304280305680515,18247.066706661302
0.00418864523543527,18717.91378114576
0.004353073364731888,19194.46226313119
0.00452395623253805,19676.288408015196
0.004701547224022131,20162.903171875416
0.004886109671160325,20653.757002074384
0.005077917243205399,21148.27506128629
0.005277254352483535,21645.899147462052
0.005484416576121017,22146.0436049154
0.005699711094326071,22647.944825625153
0.005923457145875801,23150.632014036768
0.006155986501483508,23653.09668064348
0.006397643955748424,24154.451917212755
0.0066487878384172625,24653.83162307881
0.0069097905457156435,25150.219399155874
0.007181039092537346,25642.35929059165
0.007462935686310132,26128.933407776763
0.007755898323389004,26608.703793068544
0.00806036140886134,27080.466808695506
0.008376776400682916,27542.91325913905
0.008705612479099857,27994.502404214465
0.009047357242349292,28433.615180862907
0.00940251742967013,28858.536816168333
0.009771619672696168,29267.467467987924
0.010155211276345676,29658.56808096274
0.010553861030365234,30029.94728241655
0.010968160052731372,30379.6893767503
0.011398722666160517,30705.796917914417
0.011846187309026826,31006.173656182895
0.012311217482038896,31278.715525745192
0.012794502732078732,31521.24414655861
0.013296759674662111,31731.57719274784
0.013818733056536317,31907.54589394956
0.014361196859990781,32046.967641249677
0.014924955450518284,32147.737491548363
0.015510844769528393,32207.796637434225
0.016119733573881575,32225.17717471972
0.01675252472408214,32198.062008227942
0.017410156523040152,32124.78804146852
0.018093604107387147,32003.897419621913
0.01880388089340914,31834.214281429595
0.019542040079740527,31614.867244898094
0.02030917620904734,31345.300763137802
0.021106426791015535,31025.462019591087
0.021934973989050584,30655.665162791058
0.02279604637318978,30236.7655160104
0.023690920741826323,29770.286708061238
0.02462092401494623,29258.122114761856
0.02558743520168586,28703.08807172705
0.02659188744512693,28108.521550754638
0.027635770147361564,27478.255410069134
0.028720631177978267,26817.097377387898
0.029848079169243254,26129.979522079157
0.03101978590138095,25422.846855774867
0.03223748878149028,24702.24469502925
0.0335029934197723,23974.406791318946
0.03481817630688963,23245.554060054637
0.03618498759642746,22521.47345857693
0.037605453996581675,21808.375651001526
0.03908168177536263,21112.98949468004
0.04061585988376978,20441.284147208113
0.04221026320156896,19798.510884141386
0.04386725591048496,19189.17230627264
0.0455892949998106,18614.698402735823
0.047378933909631396,18072.8323236118
0.049238826317067365,17560.35341500244
0.05117173007114603,17071.791129022477
0.05318051128214196,16601.207046515294
0.05526814857144601,16141.273302492471
0.057437737488265785,15684.28127927714
0.0596924950997073,15221.354521400663
0.0620357647610427,14743.42288794151
0.06447102107323864,14241.15793207222
0.06700187503509585,13705.86422035797
0.06963207939763882,13132.371881806333
0.0723655342286965,12524.36599020481
0.07520629269592405,11887.730089078585
0.07815856707684081,11231.604251373607
0.08122673500479707,10571.82743657294
0.08441534596012978,9926.17926433359
0.0877291280161335,9312.706994125154
0.09117299484984914,8747.735473144292
0.09475205302806537,8244.641517922191
0.09847160957933764,7810.261043096449
0.1023371798632519,7442.382101017327
0.10635449574860109,7128.074256570762
0.11052951411260206,6845.476966124478
0.1148684256737553,6569.560121739628
0.1193776641714435,6278.034346665161
0.1240639159058831,5956.28948767736
0.12893412965257148,5600.9532734829045
0.13399552696593373,5221.1490405990835
0.1392556128874462,4836.077052935909
0.14472218707411338,4470.028900230813
0.15040335536380234,4146.613838149568
0.15630754179458153,3880.408195273754
0.16244350109588662,3667.767450359147
0.16882033167003618,3487.4521031418403
0.17544748908334581,3312.927310599463
0.1823348000868439,3122.9641771303473
0.189492477187382,2909.3694035877406
0.19693113379074215,2683.661509939974
0.20466179993919872,2469.0780225441217
0.21269593866686892,2284.805213177551
0.22104546299710207,2136.6298868521094
0.22972275360711503,2012.2209594311128
0.23874067718606454,1890.4440719603945
0.2481126055137766,1758.2168759492997
0.25785243528842716,1619.8134868131328
0.26797460873256895,1490.6260753494116
0.27849413500806414,1381.4558381895579
0.28942661247167484,1289.5334665108119
0.3007882518043098,1201.743653563278
0.31259590004822796,1111.156575296685
0.324867065587837,1022.3010589879751
0.3376199441111335,943.5536493896611
0.35087344559027084,875.1925734868278
0.36464722232127456,810.6077266049597
0.37896169806447155,746.9254730574592
0.3938380983288488,687.4755600056258
0.4092984818452433,634.6840740601457
0.4253657732750382,585.8724122885242
0.44206379720285277,539.2088386304938
0.45941731346364734,495.9829513233444
0.47745205385661277,456.78232482217356
0.4961947603002895,420.2194004986584
0.5156732244854959,386.0614772369777
0.5359163290848509,354.80848353151276
0.556954090580013,325.91704825014557
0.5788177037701272,299.1046498541679
0.6015395880274836,274.471435461025
0.6251534353689703,251.74578021619206
0.6496942604146115,230.76055908415466
0.6751984523072497,211.45060769609083
0.7017038286703824,193.68748449333103
0.7292496916841444,177.347568295245
0.7578768863625915,162.31788116511464
0.7876278611187046,148.49844297660226
0.8185467307069019,135.7994034273499
0.850679341636415,124.1368048343453
0.8840733401525058,113.43218928998347
0.9187782428863317,103.61232712466449
0.9548455102782278,94.60885662983299
0.9923286228832539,86.35756052419542
1.0312831606721837,78.79866310179187
1.0717668854455022,71.87683522416658
1.1138398264826193,65.54089374230955
1.1575643695533022,59.74351753359129
1.2030053494233226,54.441011264516895
1.2502301459914542,49.59310147068957
1.299308784200415,45.162598766075746
1.3503140378698726,41.11516413041668
1.4033215376054824,37.419110550009584
1.4584098829439835,34.04521592521094
1.5156607589006013,30.966523682184985
1.575159057091621,28.1581774894668
1.6369930016117014,25.597309033298927
1.7012542798525885,23.262892674114067
1.7680381784572046,21.135606394025512
1.8374437246107238,19.197702341513402
1.9095738328780953,17.43288694806541
1.9845354578058014,15.826208380619487
2.0624397525140905,14.363951787831068
2.143402233514853,13.033542674357529
2.227542951999554,11.823457250364156
2.314986671851158,10.723138276795797
2.405863054644063,9.722913744063824
2.5003068519063225,8.813931299378716
2.598458104929248,7.988094355572212
2.7004623524206774,7.23800041532365
2.806470846309834,6.556884132601415
2.916640776023701,5.938564717538799
3.031135501567576,5.377397422818924
3.150124795755327,4.86822909581252
3.2737850959485697,4.406357076302127
3.4022997656780634,3.987491323857213
3.5358593665351745,3.6077195453940267
3.6746619407366854,3.263474141608975
3.8189133047818515,2.9515028933899634
3.968827354637162,2.6688435144705713
4.1246263829013445,2.412798724030378
4.286541408420921,2.180913271364411
4.4548125188449825,1.970952885004312
4.629689226627261,1.7808850674601628
4.811430839003257,1.608861345056563
5.000306842491082,1.4532010094009227
5.196597302486189,1.312376322429949
5.400593278542364,1.1849989818112856
5.612597255954967,1.0698075990099527
5.8329235942862,0.9656558771205519
6.06189899349756,0.8715030203037882
6.29986297838068,0.7864045083099128
6.547168402004727,0.7095033862674731
6.804181968927091,0.6400223229378892
7.071284778942991,0.5772566970289726
7.348872892180382,0.5205682852106055
7.637357916378006,0.46937834930817035
7.937167617217536,0.4231621125160927
8.248746552614573,0.3814438610394603
8.572556731909314,0.343792436723279
8.909078300934132,0.3098159932176336
9.258810253973934,0.2791586188443417
9.622271173675122,0.25149866066832677
9.999999999999984,0.22654551802359826
