k [1/Mpc],P(k) [Mpc^3]
0.0001,116.51325192550212
0.00010392556829367125,121.08652265868412
0.00010800523745162529,125.83925144764353
0.00011224505680853065,130.77848346316995
0.00011665131316981963,135.911531120227
0.00012123054013376525,141.24598845203778
0.00012598952777950273,146.7897477499084
0.00013093533273536104,152.5510132997278
0.00013607528864243335,158.53831072839472
0.00014141701702890234,164.76049640779036
0.00014696843861124463,171.2267708351276
0.00015273778503907136,177.94669562716592
0.00015873361110102093,184.93021210891337
0.00016496480740980205,192.18765159092283
0.0001714406135851971,199.7297380996544
0.00017817063195457305,207.5676015571564
0.00018516484179121546,215.71280736160395
0.000192433614111598,224.1773885865124
0.00019998772705352857,232.97385403544627
0.0002078383818579757,242.11518794069383
0.00021599721947827182,251.61485897624286
0.0002244763378413224,261.4868577673363
0.0002332883097864157,271.7457297159121
0.00024244620170823283,282.40659164206875
0.0002519635929317015,293.48514324716706
0.0002618545958474233,304.9976821287993
0.0002721338768375308,316.9611357310721
0.0002828166780230032,329.39308843349573
0.0002939188398646886,342.3118065326369
0.0003054568246515432,355.7362540941016
0.00031744774091091926,369.6860941967712
0.00032990936877709396,384.18173850672724
0.00034286018635565856,399.2444048850322
0.00035631939712285854,414.8961532743535
0.000370306958400514,431.1598807652812
0.00038484361094874304,448.0592802450746
0.0003999509097203664,465.61891642704444
0.00041565125582259895,483.8643279225912
0.00043196792973341727,502.8220969207376
0.0004489251258218605,522.519816667632
0.0004665479882234472,542.9860094238211
0.000484862648123908,564.2502052126329
0.000503896262506515,586.343068821294
0.0005236770544204653,609.2964911792533
0.0005442343548300266,633.143569960046
0.0005655986461065005,657.9185426872116
0.0005878016072274912,683.6568372863554
0.0006108761607505036,710.395203568244
0.0006348565216305217,738.1718103890789
0.0006597782479539537,767.0262503995386
0.0006856782936641739,796.9994552072105
0.0007125950633568407,828.1337058239817
0.0007405684692262436,860.4728100068867
0.0007696399902471156,894.0622113560953
0.0007998527336796708,928.9490124893616
0.000831251498989063,965.1819432410971
0.0008638828442740447,1002.8113562342877
0.000897795155303332,1041.889360317562
0.0009330387172620361,1082.4697771254396
0.0009696657893145519,1124.608233493008
0.001007730682094461,1168.362251963053
0.0010472898382363582,1213.7912666265795
0.0010884019160690055,1260.9567163147483
0.0011311278765939214,1309.9219575424966
0.001175531073878369,1360.7523269362339
0.0012216773489967915,1413.5152660817892
0.0012696351276599736,1468.2802357246242
0.0013194755216767058,1525.1188786820333
0.0013712724343984,1584.1048974244884
0.0014251026703029975,1645.3140245683671
0.0014810460488806749,1708.82425065858
0.0015391855229902056,1774.7156508099952
0.001599607301861487,1843.07055640247
0.0016624009789266115,1913.973482084873
0.0017276596646690358,1987.510963729293
0.0017954801246878305,2063.771829821152
0.0018659629231817451,2142.8467844364254
0.001939212572065829,2224.828571344574
0.0020153376859417325,2309.812092119782
0.002094451143151469,2397.8941142204617
0.002176670253153458,2489.1735455260873
0.002262116930469025,2583.750907226937
0.002350917875457286,2681.7283097167583
0.002443204762186487,2783.209660622909
0.0025391144336803463,2888.2999212530153
0.002638789104828933,2997.105579845906
0.002742376573264949,3109.7343474665654
0.0028500304385181063,3226.294885714547
0.0029619103297725525,3346.896968204337
0.0030781821425650787,3471.6501485141216
0.003199018284775064,3600.664276759944
0.0033245979322709396,3734.0493211959288
0.003455107294592217,3871.9146318132925
0.0035907398910610534,4014.3693665577885
0.0037316968377327513,4161.520751484299
0.0038781871456107214,4313.474272100765
0.0040304280305680515,4470.333688363666
0.00418864523543527,4632.199439734685
0.004353073364731888,4799.169500346663
0.00452395623253805,4971.337438566079
0.004701547224022131,5148.791931942606
0.004886109671160325,5331.61700932108
0.005077917243205399,5519.888654926508
0.005277254352483535,5713.676440267004
0.005484416576121017,5913.04212082281
0.005699711094326071,6118.038199387487
0.005923457145875801,6328.70804867505
0.006155986501483508,6545.077939205466
0.006397643955748424,6767.16008293755
0.0066487878384172625,6994.957340831932
0.0069097905457156435,7228.465051004826
0.007181039092537346,7467.66403487683
0.007462935686310132,7712.490026903413
0.007755898323389004,7962.839966250791
0.00806036140886134,8218.595787819882
0.008376776400682916,8479.639220704476
0.008705612479099857,8745.834127455331
0.009047357242349292,9016.991324415294
0.00940251742967013,9292.865258319816
0.009771619672696168,9573.181380154338
0.010155211276345676,9857.646384142576
0.010553861030365234,10145.939242536902
0.010968160052731372,10437.680980445874
0.011398722666160517,10732.420232617767
0.011846187309026826,11029.659670114892
0.012311217482038896,11328.83520197234
0.012794502732078732,11629.327029934078
0.013296759674662111,11930.454636938319
0.013818733056536317,12231.458758831375
0.014361196859990781,12531.524030366934
0.014924955450518284,12829.749802798024
0.015510844769528393,13125.160233603476
0.016119733573881575,13416.709575121535
0.01675252472408214,13703.242920772293
0.017410156523040152,13983.540873854678
0.018093604107387147,14256.293860570184
0.01880388089340914,14520.104947106482
0.019542040079740527,14773.519694217763
0.02030917620904734,15014.97783985242
0.021106426791015535,15242.867203232234
0.021934973989050584,15455.520008655007
0.02279604637318978,15651.2072929031
0.023690920741826323,15828.189874344576
0.02462092401494623,15984.676788834626
0.02558743520168586,16118.877804486225
0.02659188744512693,16229.0727878673
0.027635770147361564,16313.654386975175
0.028720631177978267,16371.102308556021
0.029848079169243254,16399.84495748431
0.03101978590138095,16398.33277162068
0.03223748878149028,16365.490709128275
0.0335029934197723,16301.451686809249
0.03481817630688963,16206.693699955662
0.03618498759642746,16080.878840833262
0.037605453996581675,15922.876177235767
0.03908168177536263,15732.106227094328
0.04061585988376978,15509.951599949552
0.04221026320156896,15258.515878686094
0.04386725591048496,14980.74222068167
0.0455892949998106,14680.66647306106
0.047378933909631396,14362.220836556082
0.049238826317067365,14028.457837627757
0.05117173007114603,13681.989698081363
0.05318051128214196,13326.533913411693
0.05526814857144601,12967.570897196912
0.057437737488265785,12610.314356092511
0.0596924950997073,12259.556818383253
0.0620357647610427,11919.55338666443
0.06447102107323864,11593.876423075078
0.06700187503509585,11285.384309556655
0.06963207939763882,10995.734445544627
0.0723655342286965,10725.56986993517
0.07520629269592405,10474.160083747165
0.07815856707684081,10239.490827519823
0.08122673500479707,10018.294968204611
0.08441534596012978,9805.74374474732
0.0877291280161335,9595.702116852088
0.09117299484984914,9380.903335719802
0.09475205302806537,9153.395376124343
0.09847160957933764,8905.445894998878
0.1023371798632519,8630.796370394708
0.10635449574860109,8325.54826544848
0.11052951411260206,7989.357403797694
0.1148684256737553,7625.780684076172
0.1193776641714435,7242.242487447524
0.1240639159058831,6849.651776153979
0.12893412965257148,6461.556176804275
0.13399552696593373,6092.7827194077945
0.1392556128874462,5756.988857680037
0.14472218707411338,5465.713407885804
0.15040335536380234,5224.146363239539
0.15630754179458153,5028.64900438087
0.16244350109588662,4869.473992853133
0.16882033167003618,4730.483235127053
0.17544748908334581,4591.762765981283
0.1823348000868439,4433.486832563913
0.189492477187382,4241.10936039796
0.19693113379074215,4010.298459463909
0.20466179993919872,3749.7032245564706
0.21269593866686892,3479.918139999449
0.22104546299710207,3227.5110602622194
0.22972275360711503,3015.1990373321514
0.23874067718606454,2853.416096940237
0.2481126055137766,2736.714325848549
0.25785243528842716,2644.2486936025525
0.26797460873256895,2546.170305620944
0.27849413500806414,2418.114793065369
0.28942661247167484,2255.4518507075145
0.3007882518043098,2076.7221137992674
0.31259590004822796,1913.2151405169147
0.324867065587837,1788.6734324392153
0.3376199441111335,1703.6651742696718
0.35087344559027084,1635.1302793427722
0.36464722232127456,1552.987627005771
0.37896169806447155,1444.6435922960109
0.3938380983288488,1325.6188959353208
0.4092984818452433,1224.338949421376
0.4253657732750382,1153.6537956323498
0.44206379720285277,1098.7356162498972
0.45941731346364734,1033.8786560747403
0.47745205385661277,953.2477174830237
0.4961947603002895,876.6344518231751
0.5156732244854959,820.4142733849521
0.5359163290848509,775.1705228168844
0.556954090580013,722.6052317475775
0.5788177037701272,664.5315334561345
0.6015395880274836,616.4145297818567
0.6251534353689703,578.5941548705177
0.6496942604146115,538.0904252313999
0.6751984523072497,495.50371974198924
0.7017038286703824,460.52068113112745
0.7292496916841444,429.44615887508223
0.7578768863625915,396.4654395654914
0.7876278611187046,366.6969731082328
0.8185467307069019,340.91974143300007
0.850679341636415,314.8281640896825
0.8840733401525058,290.5744815680536
0.9187782428863317,268.4574940007964
0.9548455102782278,248.16775615277385
0.9923286228832539,229.44821412107663
1.0312831606721837,212.08563744725632
1.0717668854455022,195.9051172537184
1.1138398264826193,180.8042210206565
1.1575643695533022,166.74054786528097
1.2030053494233226,153.67127895615783
1.2502301459914542,141.55067958226022
1.299308784200415,130.33106126239016
1.3503140378698726,119.96131647916448
1.4033215376054824,110.38132466533474
1.4584098829439835,101.53240750289113
1.5156607589006013,93.36026748976778
1.575159057091621,85.81464849685565
1.6369930016117014,78.84906996830163
1.7012542798525885,72.42140393738846
1.7680381784572046,66.49321441573325
1.8374437246107238,61.02851055930629
1.9095738328780953,55.99358808088762
1.9845354578058014,51.35691643323415
2.0624397525140905,47.08895758409931
2.143402233514853,43.16193112517822
2.227542951999554,39.54995547943792
2.314986671851158,36.228984217846026
2.405863054644063,33.17668806213219
2.5003068519063225,30.372344918953488
2.598458104929248,27.796754191865382
2.7004623524206774,25.43212392794316
2.806470846309834,23.26195844448204
2.916640776023701,21.27097211950972
3.031135501567576,19.44500852918967
3.150124795755327,17.770960278837766
3.2737850959485697,16.236692937079923
3.4022997656780634,14.83098871769424
3.5358593665351745,13.543484017272927
3.6746619407366854,12.364608933032601
3.8189133047818515,11.28553038857177
3.968827354637162,10.298097101892203
4.1246263829013445,9.394791849216514
4.286541408420921,8.568686747953633
4.4548125188449825,7.813399794029621
4.629689226627261,7.123054310804506
4.811430839003257,6.49224033844732
5.000306842491082,5.915979000942999
5.196597302486189,5.389691705906796
5.400593278542364,4.909169783548397
5.612597255954967,4.470546045431829
5.8329235942862,4.070268052395174
6.06189899349756,3.7050715720499605
6.29986297838068,3.371960142508496
6.547168402004727,3.0681853395401624
6.804181968927091,2.7912270344948618
7.071284778942991,2.5387751745709224
7.348872892180382,2.3087151884192187
7.637357916378006,2.099112739373978
7.937167617217536,1.9081950871102566
8.248746552614573,1.7343378601649806
8.572556731909314,1.5760532107458602
8.909078300934132,1.4319770609890072
9.258810253973934,1.3008512067463167
9.622271173675122,1.1815241753225743
9.999999999999984,1.0729465039371553
