k [1/Mpc],P(k) [Mpc^3]
0.0001,42.86282532871159
0.00010392556829367125,44.54524409007629
0.00010800523745162529,46.29368170455784
0.00011224505680853065,48.1107238228566
0.00011665131316981963,49.99906125323409
0.00012123054013376525,51.96149361312313
0.00012598952777950273,54.000929031739936
0.00013093533273536104,56.12038328791429
0.00013607528864243335,58.3229883629071
0.00014141701702890234,60.6120009688092
0.00014696843861124463,62.99080823881673
0.00015273778503907136,65.46292997244484
0.00015873361110102093,68.03202282974216
0.00016496480740980205,70.70188613149583
0.0001714406135851971,73.47646545102768
0.00017817063195457305,76.35985603823156
0.00018516484179121546,79.35631232756377
0.000192433614111598,82.47025783051333
0.00019998772705352857,85.70629069997037
0.0002078383818579757,89.06918770676022
0.00021599721947827182,92.56390939645854
0.0002244763378413224,96.19560889624333
0.0002332883097864157,99.96963825998053
0.00024244620170823283,103.8915560414999
0.0002519635929317015,107.9671359754869
0.0002618545958474233,112.20237311676294
0.0002721338768375308,116.60349387866621
0.0002828166780230032,121.1769642860434
0.0002939188398646886,125.929498348624
0.0003054568246515432,130.86806898212936
0.00031744774091091926,135.9999169505189
0.00032990936877709396,141.33256152702026
0.00034286018635565856,146.87380997627233
0.00035631939712285854,152.63176619366592
0.000370306958400514,158.6148442166036
0.00038484361094874304,164.83177385014156
0.0003999509097203664,171.29161341702812
0.00041565125582259895,178.00376313826598
0.00043196792973341727,184.9779682160026
0.0004489251258218605,192.2243401975922
0.0004665479882234472,199.753380292306
0.000484862648123908,207.57599579123104
0.000503896262506515,215.70350229169298
0.0005236770544204653,224.1476095011127
0.0005442343548300266,232.92045267945724
0.0005655986461065005,242.03462405896937
0.0005878016072274912,251.5031937524332
0.0006108761607505036,261.3397151420464
0.0006348565216305217,271.5581966958404
0.0006597782479539537,282.1731317952655
0.0006856782936641739,293.1995546658669
0.0007125950633568407,304.6530866188397
0.0007405684692262436,316.54992459591705
0.0007696399902471156,328.9067865350524
0.0007998527336796708,341.74092582203133
0.000831251498989063,355.07021313645976
0.0008638828442740447,368.9131893405908
0.000897795155303332,383.28906341609843
0.0009330387172620361,398.2176650293221
0.0009696657893145519,413.7194312369894
0.001007730682094461,429.81549550325445
0.0010472898382363582,446.5277192619179
0.0010884019160690055,463.87871104289036
0.0011311278765939214,481.8918015103285
0.001175531073878369,500.59100357308597
0.0012216773489967915,520.0011034989925
0.0012696351276599736,540.1476616265795
0.0013194755216767058,561.0570373721333
0.0013712724343984,582.7563841312235
0.0014251026703029975,605.2735420068844
0.0014810460488806749,628.6371614213072
0.0015391855229902056,652.8767141352472
0.001599607301861487,678.0224991477558
0.0016624009789266115,704.1056575983318
0.0017276596646690358,731.1579976408473
0.0017954801246878305,759.2121169815819
0.0018659629231817451,788.3014283940349
0.001939212572065829,818.4601182837542
0.0020153376859417325,849.7232019359406
0.002094451143151469,882.1262925885129
0.002176670253153458,915.7056765465542
0.002262116930469025,950.4983584662989
0.002350917875457286,986.5418959469034
0.002443204762186487,1023.8745382794162
0.0025391144336803463,1062.5350260650541
0.002638789104828933,1102.5625637847322
0.002742376573264949,1143.9968797066122
0.0028500304385181063,1186.8778749244461
0.0029619103297725525,1231.2458189213735
0.0030781821425650787,1277.1411807376985
0.003199018284775064,1324.6044605323184
0.0033245979322709396,1373.6763233682125
0.003455107294592217,1424.3971174260794
0.0035907398910610534,1476.8070059295062
0.0037316968377327513,1530.9457966272264
0.0038781871456107214,1586.8524802793406
0.0040304280305680515,1644.5655510387116
0.00418864523543527,1704.12244583225
0.004353073364731888,1765.559512043471
0.00452395623253805,1828.9118923803142
0.004701547224022131,1894.2125443423474
0.004886109671160325,1961.4927937160937
0.005077917243205399,2030.7816697198223
0.005277254352483535,2102.105555256634
0.005484416576121017,2175.4884109077125
0.005699711094326071,2250.9504318997747
0.005923457145875801,2328.5085211779437
0.006155986501483508,2408.175104499029
0.006397643955748424,2489.956729770871
0.0066487878384172625,2573.8557576862054
0.0069097905457156435,2659.8714398647753
0.007181039092537346,2747.999228434113
0.007462935686310132,2838.225139911707
0.007755898323389004,2930.516905193364
0.00806036140886134,3024.8329894461453
0.008376776400682916,3121.130297047926
0.008705612479099857,3219.3637476951735
0.009047357242349292,3319.4774471002684
0.00940251742967013,3421.391618046045
0.009771619672696168,3525.0119682228747
0.010155211276345676,3630.236889940695
0.010553861030365234,3736.9588652293446
0.010968160052731372,3845.057826819179
0.011398722666160517,3954.3874073455713
0.011846187309026826,4064.7814521404644
0.012311217482038896,4176.05557497784
0.012794502732078732,4288.002158800084
0.013296759674662111,4400.396392973675
0.013818733056536317,4512.991848536976
0.014361196859990781,4625.521826526917
0.014924955450518284,4737.698609670946
0.015510844769528393,4849.20304576628
0.016119733573881575,4959.695185337237
0.01675252472408214,5068.808888489684
0.017410156523040152,5176.151474175222
0.018093604107387147,5281.310988282142
0.01880388089340914,5383.847049875948
0.019542040079740527,5483.300306133115
0.02030917620904734,5579.191849830205
0.021106426791015535,5671.020864254698
0.021934973989050584,5758.276385607226
0.02279604637318978,5840.437382937055
0.023690920741826323,5916.9780652948075
0.02462092401494623,5987.374103270891
0.02558743520168586,6051.107009081202
0.02659188744512693,6107.670090318363
0.027635770147361564,6156.602876567789
0.028720631177978267,6197.491183512596
0.029848079169243254,6229.945038593113
0.03101978590138095,6253.59699870839
0.03223748878149028,6268.116630671239
0.0335029934197723,6273.414117934731
0.03481817630688963,6269.696864185547
0.03618498759642746,6257.182930563792
0.037605453996581675,6235.8254186812455
0.03908168177536263,6205.494417306346
0.04061585988376978,6166.394579710723
0.04221026320156896,6119.336295235913
0.04386725591048496,6065.204591996305
0.0455892949998106,6004.839537226006
0.047378933909631396,5939.046085795699
0.049238826317067365,5868.69379319877
0.05117173007114603,5794.867855885778
0.05318051128214196,5718.662259203114
0.05526814857144601,5641.153485754162
0.057437737488265785,5563.3846531597055
0.0596924950997073,5486.148843953644
0.0620357647610427,5409.903546986617
0.06447102107323864,5334.824971869336
0.06700187503509585,5260.649912580706
0.06963207939763882,5186.829718143407
0.0723655342286965,5112.449916616265
0.07520629269592405,5036.297510325501
0.07815856707684081,4956.9025219030045
0.08122673500479707,4872.559472325284
0.08441534596012978,4781.464151975181
0.0877291280161335,4681.796993634816
0.09117299484984914,4572.009853327315
0.09475205302806537,4451.155122528901
0.09847160957933764,4319.20083896862
0.1023371798632519,4177.319052983536
0.10635449574860109,4027.9998757087305
0.11052951411260206,3874.6374457454976
0.1148684256737553,3721.3215556546443
0.1193776641714435,3572.2866103633173
0.1240639159058831,3431.4127122278633
0.12893412965257148,3301.7820657179004
0.13399552696593373,3185.0324187801994
0.1392556128874462,3080.692466433042
0.14472218707411338,2986.63565193985
0.15040335536380234,2897.9150017464967
0.15630754179458153,2808.0539898842153
0.16244350109588662,2711.2733190240133
0.16882033167003618,2603.8917269391072
0.17544748908334581,2485.4736427088837
0.1823348000868439,2359.343981321097
0.189492477187382,2231.8706795281832
0.19693113379074215,2110.629173346098
0.20466179993919872,2002.0873456042054
0.21269593866686892,1909.2160304258166
0.22104546299710207,1829.7233761799619
0.22972275360711503,1756.7463517925546
0.23874067718606454,1682.1617186849287
0.2481126055137766,1600.231149987756
0.25785243528842716,1510.3358145631473
0.26797460873256895,1417.979664003009
0.27849413500806414,1331.5947718382063
0.28942661247167484,1257.007212602425
0.3007882518043098,1194.1453484681074
0.31259590004822796,1136.8971244909828
0.324867065587837,1077.455308960061
0.3376199441111335,1012.6324517804762
0.35087344559027084,946.5364987945288
0.36464722232127456,886.4657612041498
0.37896169806447155,835.5366737870703
0.3938380983288488,789.9645398479313
0.4092984818452433,743.4334515931807
0.4253657732750382,694.7263632537312
0.44206379720285277,648.3816749267747
0.45941731346364734,607.9236667780062
0.47745205385661277,571.2226024988532
0.4961947603002895,534.5554842096607
0.5156732244854959,498.1777096748251
0.5359163290848509,464.9379275341278
0.556954090580013,434.9735547060377
0.5788177037701272,405.9598957037213
0.6015395880274836,377.74039853138584
0.6251534353689703,351.9713224233456
0.6496942604146115,328.101014673481
0.6751984523072497,305.0806300662371
0.7017038286703824,283.59074604464377
0.7292496916841444,263.72130885146873
0.7578768863625915,244.91288146800161
0.7876278611187046,227.30251092671708
0.8185467307069019,210.95525368711952
0.850679341636415,195.56772958640244
0.8840733401525058,181.26476362953642
0.9187782428863317,167.93289142370753
0.9548455102782278,155.48512451185812
0.9923286228832539,143.87586017529253
1.0312831606721837,133.06042850341018
1.0717668854455022,122.9950659075658
1.1138398264826193,113.63709912068305
1.1575643695533022,104.94456119930058
1.2030053494233226,96.87474131122163
1.2502301459914542,89.38662626899841
1.299308784200415,82.44160800486229
1.3503140378698726,76.00336617175516
1.4033215376054824,70.03775479829545
1.4584098829439835,64.512818916758
1.5156607589006013,59.39883565676173
1.575159057091621,54.66785448525753
1.6369930016117014,50.29356112633777
1.7012542798525885,46.25120811072569
1.7680381784572046,42.51754480421941
1.8374437246107238,39.07070159007967
1.9095738328780953,35.89011380783134
1.9845354578058014,32.956541733854436
2.0624397525140905,30.252006220222622
2.143402233514853,27.759718482760636
2.227542951999554,25.46401273937901
2.314986671851158,23.35028381670645
2.405863054644063,21.404924160891234
2.5003068519063225,19.615261750218078
2.598458104929248,17.969503698921265
2.7004623524206774,16.45668260056034
2.806470846309834,15.066604644189663
2.916640776023701,13.789793941329272
3.031135501567576,12.617452558479387
3.150124795755327,11.541422395847299
3.2737850959485697,10.554143003923258
3.4022997656780634,9.648611686196066
3.5358593665351745,8.81834529595071
3.6746619407366854,8.057342254914515
3.8189133047818515,7.360052542403294
3.968827354637162,6.7213476820066616
4.1246263829013445,6.136491020323231
4.286541408420921,5.601109876158653
4.4548125188449825,5.111169218001724
4.629689226627261,4.662946794269372
4.811430839003257,4.253011250041412
5.000306842491082,3.8782009813378955
5.196597302486189,3.535604184196594
5.400593278542364,3.222540248370759
5.612597255954967,2.936541251911973
5.8329235942862,2.6753351330480752
6.06189899349756,2.4368334547523856
6.29986297838068,2.219117563090115
6.547168402004727,2.0204253902946685
6.804181968927091,1.839139277226468
7.071284778942991,1.6737764580632297
7.348872892180382,1.5229782608672562
7.637357916378006,1.3854976372756955
7.937167617217536,1.260190304163614
8.248746552614573,1.1460067090452293
8.572556731909314,1.0419841821412135
8.909078300934132,0.9472346617686084
9.258810253973934,0.860941933001602
9.622271173675122,0.7823610738639868
9.999999999999984,0.7108123591915366
