k [1/Mpc],P(k) [Mpc^3]
0.0001,398.0571017175815
0.00010392556829367125,416.06635641965306
0.00010800523745162529,434.8893106277348
0.00011224505680853065,454.5626085071518
0.00011665131316981963,475.12453986214973
0.00012123054013376525,496.61508450602395
0.00012598952777950273,519.0759424419656
0.00013093533273536104,542.5506592936827
0.00013607528864243335,567.084756188539
0.00014141701702890234,592.7258158092104
0.00014696843861124463,619.5235184642319
0.00015273778503907136,647.5296506284557
0.00015873361110102093,676.7982605843106
0.00016496480740980205,707.3857933215705
0.0001714406135851971,739.351199806751
0.00017817063195457305,772.7560200038772
0.00018516484179121546,807.6644259487992
0.000192433614111598,844.1433696160456
0.00019998772705352857,882.2627235866125
0.0002078383818579757,922.095398452675
0.00021599721947827182,963.7174665984099
0.0002244763378413224,1007.208144702735
0.0002332883097864157,1052.6499613047683
0.00024244620170823283,1100.1290057278673
0.0002519635929317015,1149.7351223655428
0.0002618545958474233,1201.5620106143451
0.0002721338768375308,1255.7071487717199
0.0002828166780230032,1312.2719194800022
0.0002939188398646886,1371.3619521544847
0.0003054568246515432,1433.0872863706586
0.00031744774091091926,1497.5625490109544
0.00032990936877709396,1564.906965472224
0.00034286018635565856,1635.2444269856933
0.00035631939712285854,1708.7038424690732
0.000370306958400514,1785.419132590833
0.00038484361094874304,1865.5295014051683
0.0003999509097203664,1949.1796518834692
0.00041565125582259895,2036.5198752919125
0.00043196792973341727,2127.706339057444
0.0004489251258218605,2222.900893866673
0.0004665479882234472,2322.271313278881
0.000484862648123908,2425.9916610192286
0.000503896262506515,2534.2422064631364
0.0005236770544204653,2647.2098450545705
0.0005442343548300266,2765.088071004575
0.0005655986461065005,2888.077081942182
0.0005878016072274912,3016.384144675667
0.0006108761607505036,3150.2232775895595
0.0006348565216305217,3289.815717392233
0.0006597782479539537,3435.389729212524
0.0006856782936641739,3587.1802733801164
0.0007125950633568407,3745.4298052908057
0.0007405684692262436,3910.3878644787223
0.0007696399902471156,4082.311385862854
0.0007998527336796708,4261.46458637302
0.000831251498989063,4448.118041590354
0.0008638828442740447,4642.549658348849
0.000897795155303332,4845.043383641114
0.0009330387172620361,5055.889163247886
0.0009696657893145519,5275.383552804488
0.001007730682094461,5503.828002953156
0.0010472898382363582,5741.529907140051
0.0010884019160690055,5988.801587243332
0.0011311278765939214,6245.959446663195
0.001175531073878369,6513.324660740043
0.0012216773489967915,6791.220315781176
0.0012696351276599736,7079.972270128923
0.0013194755216767058,7379.908424999622
0.0013712724343984,7691.3566186744165
0.0014251026703029975,8014.64572683397
0.0014810460488806749,8350.102019916067
0.0015391855229902056,8698.049051664584
0.001599607301861487,9058.80746360408
0.0016624009789266115,9432.691191175072
0.0017276596646690358,9820.008840904487
0.0017954801246878305,10221.060008251046
0.0018659629231817451,10636.133530531219
0.001939212572065829,11065.507704011565
0.0020153376859417325,11509.444273969533
0.002094451143151469,11968.189813295528
0.002176670253153458,12441.972606490319
0.002262116930469025,12930.998881172143
0.002350917875457286,13435.453589392946
0.002443204762186487,13955.492841946438
0.0025391144336803463,14491.244117388822
0.002638789104828933,15042.802797601405
0.002742376573264949,15610.223957002507
0.0028500304385181063,16193.525973513186
0.0029619103297725525,16792.68070809056
0.0030781821425650787,17407.611770424355
0.003199018284775064,18038.19286377567
0.0033245979322709396,18684.232098176948
0.003455107294592217,19345.479670462017
0.0035907398910610534,20021.62083122789
0.0037316968377327513,20712.2708143611
0.0038781871456107214,21416.96843528488
0.0040304280305680515,22135.119055382613
0.00418864523543527,22866.024619867363
0.004353073364731888,23608.957189394132
0.00452395623253805,24363.205453829363
0.004701547224022131,25127.958786393203
0.004886109671160325,25901.961763304847
0.005077917243205399,26683.62605013533
0.005277254352483535,27471.339086718883
0.005484416576121017,28263.69576178512
0.005699711094326071,29059.230909307313
0.005923457145875801,29856.044497976778
0.006155986501483508,30651.811174473547
0.006397643955748424,31444.095910269578
0.0066487878384172625,32230.558947239024
0.0069097905457156435,33008.80003824423
0.007181039092537346,33776.038607541224
0.007462935686310132,34529.01209091291
0.007755898323389004,35264.25559236217
0.00806036140886134,35977.927349533864
0.008376776400682916,36665.946846476334
0.008705612479099857,37324.01714973672
0.009047357242349292,37947.549682947756
0.00940251742967013,38531.81731059076
0.009771619672696168,39071.6279129232
0.010155211276345676,39561.49045825904
0.010553861030365234,39995.736245376975
0.010968160052731372,40368.18284553275
0.011398722666160517,40672.62897182178
0.011846187309026826,40902.53548575828
0.012311217482038896,41051.118531455926
0.012794502732078732,41111.75906280153
0.013296759674662111,41077.36845176818
0.013818733056536317,40941.19488345888
0.014361196859990781,40696.58470459
0.014924955450518284,40336.83556154866
0.015510844769528393,39856.21249168869
0.016119733573881575,39248.960986642014
0.01675252472408214,38510.384309104884
0.017410156523040152,37637.00660728137
0.018093604107387147,36625.868425182234
0.01880388089340914,35476.41371773463
0.019542040079740527,34189.16966746799
0.02030917620904734,32766.785445227684
0.021106426791015535,31214.991222815705
0.021934973989050584,29540.882044188726
0.02279604637318978,27755.605363143062
0.023690920741826323,25872.703197438128
0.02462092401494623,23908.330559207727
0.02558743520168586,21883.1897986956
0.02659188744512693,19819.386683787816
0.027635770147361564,17742.910126245715
0.028720631177978267,15681.387959592621
0.029848079169243254,13662.311055961625
0.03101978590138095,11716.000102797136
0.03223748878149028,9872.01065391605
0.0335029934197723,8158.5489613136115
0.03481817630688963,6598.657808352059
0.03618498759642746,5206.824771019061
0.037605453996581675,3995.5457707573437
0.03908168177536263,2975.476005848386
0.04061585988376978,2147.470644236397
0.04221026320156896,1501.019883541364
0.04386725591048496,1016.3174844084758
0.0455892949998106,670.3400206250584
0.047378933909631396,437.01734362117764
0.049238826317067365,290.49710902214196
0.05117173007114603,207.45789963571093
0.05318051128214196,169.3424908599907
0.05526814857144601,167.03257126745865
0.057437737488265785,197.71482066052852
0.0596924950997073,268.0031689405317
0.0620357647610427,386.4453642605145
0.06447102107323864,560.8695611343719
0.06700187503509585,790.7559980635436
0.06963207939763882,1062.564719288712
0.0723655342286965,1347.3668352220297
0.07520629269592405,1602.8131397928603
0.07815856707684081,1779.9836044960086
0.08122673500479707,1835.6255258840167
0.08441534596012978,1745.7089521677667
0.0877291280161335,1516.8720528275685
0.09117299484984914,1189.0737677228276
0.09475205302806537,826.2359944678346
0.09847160957933764,496.572390939578
0.1023371798632519,249.87096175187378
0.10635449574860109,102.02224006950318
0.11052951411260206,34.71806437684925
0.1148684256737553,14.180769115570405
0.1193776641714435,16.082030673719117
0.1240639159058831,42.30690526327783
0.12893412965257148,114.42399546037817
0.13399552696593373,242.63700352496429
0.1392556128874462,395.63371289102565
0.14472218707411338,505.41240357097706
0.15040335536380234,508.32911231597524
0.15630754179458153,395.4080751860297
0.16244350109588662,228.91343694971854
0.16882033167003618,93.37287701566353
0.17544748908334581,26.62094445675314
0.1823348000868439,9.452528304660705
0.189492477187382,16.12687055740055
0.19693113379074215,54.16781380540699
0.20466179993919872,129.4659520856809
0.21269593866686892,194.7119733406168
0.22104546299710207,185.97809842399178
0.22972275360711503,110.94645560228942
0.23874067718606454,40.35455388829014
0.2481126055137766,12.575350664966214
0.25785243528842716,13.507875199783538
0.26797460873256895,39.01330276468185
0.27849413500806414,79.62115877917363
0.28942661247167484,86.92422945403032
0.3007882518043098,49.918553201659854
0.31259590004822796,17.762354495182123
0.324867065587837,11.252785491607671
0.3376199441111335,24.047481953848106
0.35087344559027084,43.90590093358859
0.36464722232127456,38.8469556887409
0.37896169806447155,17.93669794648457
0.3938380983288488,10.347219579254011
0.4092984818452433,17.302515331185422
0.4253657732750382,25.755190673989738
0.44206379720285277,18.23226766178954
0.45941731346364734,9.639255318699758
0.47745205385661277,11.339167568398516
0.4961947603002895,15.857089108906537
0.5156732244854959,11.625510936455935
0.5359163290848509,8.081769319269707
0.556954090580013,8.829272349604247
0.5788177037701272,8.656069319573643
0.6015395880274836,7.77032122690846
0.6251534353689703,6.8002397477765655
0.6496942604146115,6.08412049054411
0.6751984523072497,5.570778660129491
0.7017038286703824,5.179774944675719
0.7292496916841444,4.853054218223474
0.7578768863625915,4.546330841320317
0.7876278611187046,4.226158021426063
0.8185467307069019,3.886884920607322
0.850679341636415,3.546136073433405
0.8840733401525058,3.218625981363325
0.9187782428863317,2.9148128168820278
0.9548455102782278,2.6414324527470403
0.9923286228832539,2.4015086034794724
1.0312831606721837,2.190832339124419
1.0717668854455022,2.0034615460099694
1.1138398264826193,1.8346930185735688
1.1575643695533022,1.6808152971891437
1.2030053494233226,1.5389149745522768
1.2502301459914542,1.4071672793400924
1.299308784200415,1.285221545726075
1.3503140378698726,1.1728375811304932
1.4033215376054824,1.069674875812379
1.4584098829439835,0.9753179162567838
1.5156607589006013,0.8892926872199458
1.575159057091621,0.8109582117462473
1.6369930016117014,0.7395736903320049
1.7012542798525885,0.6744719607026123
1.7680381784572046,0.6150579871722383
1.8374437246107238,0.5608002369610906
1.9095738328780953,0.5112274940130684
1.9845354578058014,0.46594358884081827
2.0624397525140905,0.4245956006986833
2.143402233514853,0.3868571031929227
2.227542951999554,0.3524264708377102
2.314986671851158,0.3210252853899614
2.405863054644063,0.2923946118075001
2.5003068519063225,0.2662916310157836
2.598458104929248,0.242494070598844
2.7004623524206774,0.22079925790204497
2.806470846309834,0.20102237526800484
2.916640776023701,0.18299491696163434
3.031135501567576,0.16656404537049113
3.150124795755327,0.15159086477134967
3.2737850959485697,0.1379483005743153
3.4022997656780634,0.12552009221335667
3.5358593665351745,0.11419990231147134
3.6746619407366854,0.1038904290427636
3.8189133047818515,0.09450236982334473
3.968827354637162,0.08595409937991899
4.1246263829013445,0.0781711688910357
4.286541408420921,0.0710856790965148
4.4548125188449825,0.0646357080684533
4.629689226627261,0.05876485882848689
4.811430839003257,0.053421826478191874
5.000306842491082,0.04855979274897005
5.196597302486189,0.044136021440459784
5.400593278542364,0.04011151013511101
5.612597255954967,0.03645066774073252
5.8329235942862,0.03312097503583228
6.06189899349756,0.03009274535197768
6.29986297838068,0.027338928081525077
6.547168402004727,0.02483487819276136
6.804181968927091,0.022558144222580494
7.071284778942991,0.020488279456450004
7.348872892180382,0.018606681960468323
7.637357916378006,0.01689640943840819
7.937167617217536,0.015342024829880722
8.248746552614573,0.013929464600552279
8.572556731909314,0.012645918199333297
8.909078300934132,0.011479700310130193
9.258810253973934,0.01042014284011635
9.622271173675122,0.00945754202223413
9.999999999999984,0.008583075212852185
