k [1/Mpc],P(k) [Mpc^3]
0.0001,598.9629938936813
0.00010392556829367125,622.46996179485
0.00010800523745162529,646.899051726565
0.00011224505680853065,672.2863613316077
0.00011665131316981963,698.6693902433323
0.00012123054013376525,726.0871128441441
0.00012598952777950273,754.5800339955283
0.00013093533273536104,784.1902338572244
0.00013607528864243335,814.961411522755
0.00014141701702890234,846.9389625761103
0.00014696843861124463,880.1700590343843
0.00015273778503907136,914.7037213812453
0.00015873361110102093,950.5908723405312
0.00016496480740980205,987.8843649475411
0.0001714406135851971,1026.6390820435706
0.00017817063195457305,1066.9120403162513
0.00018516484179121546,1108.7624802619578
0.000192433614111598,1152.2519359921032
0.00019998772705352857,1197.4442764469627
0.0002078383818579757,1244.4058058942674
0.00021599721947827182,1293.2053799430275
0.0002244763378413224,1343.9144917488409
0.0002332883097864157,1396.6073818023121
0.00024244620170823283,1451.3611237975006
0.0002519635929317015,1508.255728304555
0.0002618545958474233,1567.3742540847732
0.0002721338768375308,1628.8028391637254
0.0002828166780230032,1692.630870904957
0.0002939188398646886,1758.9511227358898
0.0003054568246515432,1827.8598684384135
0.00031744774091091926,1899.4570159104376
0.00032990936877709396,1973.8461158243347
0.00034286018635565856,2051.1345409010914
0.00035631939712285854,2131.4336678332756
0.000370306958400514,2214.858976804858
0.00038484361094874304,2301.5302423859575
0.0003999509097203664,2391.5715997480115
0.00041565125582259895,2485.111699239765
0.00043196792973341727,2582.2838697537345
0.0004489251258218605,2683.2260180781986
0.0004665479882234472,2788.0809860146446
0.000484862648123908,2896.9967773634407
0.000503896262506515,3010.1267197069933
0.0005236770544204653,3127.6296194173315
0.0005442343548300266,3249.6695896698175
0.0005655986461065005,3376.4163904499924
0.0005878016072274912,3508.0456618362964
0.0006108761607505036,3644.7389524523282
0.0006348565216305217,3786.684073858567
0.0006597782479539537,3934.0749789587153
0.0006856782936641739,4087.111994411504
0.0007125950633568407,4246.002134775483
0.0007405684692262436,4410.958972990378
0.0007696399902471156,4582.203090145718
0.0007998527336796708,4759.961901642073
0.000831251498989063,4944.469692171898
0.0008638828442740447,5135.968137721498
0.000897795155303332,5334.705858590355
0.0009330387172620361,5540.938952126983
0.0009696657893145519,5754.9309376055435
0.001007730682094461,5976.952406735763
0.0010472898382363582,6207.281790078092
0.0010884019160690055,6446.204528335347
0.0011311278765939214,6694.013461330717
0.001175531073878369,6951.008995309283
0.0012216773489967915,7217.497891397029
0.0012696351276599736,7493.794508790415
0.0013194755216767058,7780.219871712902
0.0013712724343984,8077.101494522147
0.0014251026703029975,8384.774019016755
0.0014810460488806749,8703.577013830167
0.0015391855229902056,9033.856318421445
0.001599607301861487,9375.963284373336
0.0016624009789266115,9730.253556030793
0.0017276596646690358,10097.088347245599
0.0017954801246878305,10476.831371684206
0.0018659629231817451,10869.849641500381
0.001939212572065829,11276.513321519395
0.0020153376859417325,11697.192940531459
0.002094451143151469,12132.261293256608
0.002176670253153458,12582.090175679572
0.002262116930469025,13047.04979958862
0.002350917875457286,13527.509388630557
0.002443204762186487,14023.832188255901
0.0025391144336803463,14536.377764364928
0.002638789104828933,15065.498903274472
0.002742376573264949,15611.53882589585
0.0028500304385181063,16174.833087666948
0.0029619103297725525,16755.70271455101
0.0030781821425650787,17354.455669730673
0.003199018284775064,17971.3840169459
0.0033245979322709396,18606.756925845693
0.003455107294592217,19260.825164157293
0.0035907398910610534,19933.812895929466
0.0037316968377327513,20625.916897989042
0.0038781871456107214,21337.305908944454
0.0040304280305680515,22068.108444560698
0.00418864523543527,22818.418813771106
0.004353073364731888,23588.285834670518
0.00452395623253805,24377.70689616373
0.004701547224022131,25186.63424527386
0.004886109671160325,26014.95964306099
0.005077917243205399,26862.518983971808
0.005277254352483535,27729.071477206333
0.005484416576121017,28614.273933905024
0.005699711094326071,29517.713737820195
0.005923457145875801,30438.9380510929
0.006155986501483508,31377.442788442622
0.006397643955748424,32332.585974635105
0.0066487878384172625,33303.44043904251
0.0069097905457156435,34288.934577409535
0.007181039092537346,35287.932658610895
0.007462935686310132,36299.236858389224
0.007755898323389004,37321.5323203836
0.00806036140886134,38353.34563430721
0.008376776400682916,39393.0678370248
0.008705612479099857,40438.873611331874
0.009047357242349292,41488.658414885846
0.00940251742967013,42540.14640467667
0.009771619672696168,43590.8113059961
0.010155211276345676,44637.91728457722
0.010553861030365234,45678.51348990338
0.010968160052731372,46709.34784818637
0.011398722666160517,47726.973746217656
0.011846187309026826,48727.63656933338
0.012311217482038896,49707.29802556149
0.012794502732078732,50661.70504950407
0.013296759674662111,51586.22189594627
0.013818733056536317,52476.00799106525
0.014361196859990781,53325.925379926455
0.014924955450518284,54130.50037558947
0.015510844769528393,54884.1257566168
0.016119733573881575,55580.86410931621
0.01675252472408214,56214.64260544896
0.017410156523040152,56779.27184837104
0.018093604107387147,57268.32993748378
0.01880388089340914,57675.482157341794
0.019542040079740527,57994.36549576205
0.02030917620904734,58218.736492233395
0.021106426791015535,58342.65796703648
0.021934973989050584,58360.43583307787
0.02279604637318978,58266.88539782612
0.023690920741826323,58057.51007898225
0.02462092401494623,57728.59762935207
0.02558743520168586,57277.32483840455
0.02659188744512693,56702.10376447354
0.027635770147361564,56002.43704170033
0.028720631177978267,55179.57916681058
0.029848079169243254,54237.05710389581
0.03101978590138095,53179.49597522276
0.03223748878149028,52012.99472121179
0.0335029934197723,50744.76423287105
0.03481817630688963,49385.30454929034
0.03618498759642746,47952.69149607462
0.037605453996581675,46465.288478750466
0.03908168177536263,44936.57699342087
0.04061585988376978,43375.880565155414
0.04221026320156896,41794.79715781494
0.04386725591048496,40216.922054286326
0.0455892949998106,38666.69997102851
0.047378933909631396,37165.53978193452
0.049238826317067365,35731.97906568898
0.05117173007114603,34381.47433925696
0.05318051128214196,33126.689820334956
0.05526814857144601,31976.508290729602
0.057437737488265785,30934.027627632506
0.0596924950997073,29998.70808850121
0.0620357647610427,29164.77460121403
0.06447102107323864,28421.90737994484
0.06700187503509585,27754.47844798753
0.06963207939763882,27141.043594742303
0.0723655342286965,26555.226513200243
0.07520629269592405,25964.711585005527
0.07815856707684081,25334.199692670638
0.08122673500479707,24628.826221340296
0.08441534596012978,23818.69817978216
0.0877291280161335,22884.546362884757
0.09117299484984914,21822.19318632485
0.09475205302806537,20644.484541483835
0.09847160957933764,19384.059178142397
0.1023371798632519,18081.169995738364
0.10635449574860109,16786.071250878158
0.11052951411260206,15557.62175948102
0.1148684256737553,14452.754789416496
0.1193776641714435,13516.702757178007
0.1240639159058831,12773.448626895368
0.12893412965257148,12220.188477846506
0.13399552696593373,11826.167555500639
0.1392556128874462,11535.040634547706
0.14472218707411338,11271.342556354959
0.15040335536380234,10953.656346234206
0.15630754179458153,10514.652697117237
0.16244350109588662,9922.304617382166
0.16882033167003618,9194.16911122017
0.17544748908334581,8398.116735493104
0.1823348000868439,7632.524713114596
0.189492477187382,6989.077991009774
0.19693113379074215,6519.5798087598405
0.20466179993919872,6223.118573566584
0.21269593866686892,6043.418326770244
0.22104546299710207,5879.984405541336
0.22972275360711503,5631.549680554732
0.23874067718606454,5252.697976068278
0.2481126055137766,4780.741567946812
0.25785243528842716,4315.475732534713
0.26797460873256895,3954.3706690996205
0.27849413500806414,3731.5088084226613
0.28942661247167484,3599.1798093656
0.3007882518043098,3458.095453847313
0.31259590004822796,3233.423277320232
0.324867065587837,2938.578252146922
0.3376199441111335,2661.223795806197
0.35087344559027084,2471.2394410065035
0.36464722232127456,2355.836124469022
0.37896169806447155,2238.854404432044
0.3938380983288488,2068.0367489382666
0.4092984818452433,1876.2911020625286
0.4253657732750382,1729.203506161717
0.44206379720285277,1632.4800165850318
0.45941731346364734,1533.416739490094
0.47745205385661277,1405.692775492114
0.4961947603002895,1286.0308095007795
0.5156732244854959,1200.706589155769
0.5359163290848509,1122.2857554420273
0.556954090580013,1030.2142466429257
0.5788177037701272,947.1554112747937
0.6015395880274836,882.1795581683929
0.6251534353689703,815.538871004652
0.6496942604146115,748.57150475402
0.6751984523072497,693.24249912455
0.7017038286703824,640.3516930271003
0.7292496916841444,588.7452710755906
0.7578768863625915,543.7272962036675
0.7876278611187046,501.9950669774278
0.8185467307069019,462.6471156843183
0.850679341636415,425.7948605881153
0.8840733401525058,391.4903113363788
0.9187782428863317,359.7340687410298
0.9548455102782278,330.48504741928934
0.9923286228832539,303.63076296908196
1.0312831606721837,278.95831892050796
1.0717668854455022,256.2638213436377
1.1138398264826193,235.3664501467604
1.1575643695533022,216.10555929962825
1.2030053494233226,198.33866524345362
1.2502301459914542,181.9503969390576
1.299308784200415,166.8463822084813
1.3503140378698726,152.9375680214015
1.4033215376054824,140.13951105320064
1.4584098829439835,128.3723470745471
1.5156607589006013,117.56035076292017
1.575159057091621,107.62973275013022
1.6369930016117014,98.5109027340148
1.7012542798525885,90.13959657241546
1.7680381784572046,82.45648570406978
1.8374437246107238,75.40680833949426
1.9095738328780953,68.94018210092793
1.9845354578058014,63.010491566661386
2.0624397525140905,57.575119060820256
2.143402233514853,52.594619593992604
2.227542951999554,48.03250641655914
2.314986671851158,43.855046892974606
2.405863054644063,40.03101301075059
2.5003068519063225,36.53151629225446
2.598458104929248,33.329924596761416
2.7004623524206774,30.40170038892146
2.806470846309834,27.72424486269265
2.916640776023701,25.276753979292636
3.031135501567576,23.040091524343012
3.150124795755327,20.996655256427164
3.2737850959485697,19.130254670324046
3.4022997656780634,17.42600358109623
3.5358593665351745,15.870220352134783
3.6746619407366854,14.450332483901313
3.8189133047818515,13.154785725586526
3.968827354637162,11.972974075205144
4.1246263829013445,10.895167227541387
4.286541408420921,9.912441175233026
4.4548125188449825,9.016614036613818
4.629689226627261,8.2001872304419
4.811430839003257,7.456290617100727
5.000306842491082,6.778631025961624
5.196597302486189,6.161445535399492
5.400593278542364,5.599458414905004
5.612597255954967,5.087841081111297
5.8329235942862,4.622172675240134
6.06189899349756,4.198408852484308
6.29986297838068,3.8128528555328844
6.547168402004727,3.462126505735651
6.804181968927091,3.143143502579347
7.071284778942991,2.8530860058022527
7.348872892180382,2.589384698041767
7.637357916378006,2.349693465288201
7.937167617217536,2.131869507599646
8.248746552614573,1.9339563259181134
8.572556731909314,1.7541679833358286
8.909078300934132,1.5908692822554142
9.258810253973934,1.442561805639142
9.622271173675122,1.3078819988227413
9.999999999999984,1.185589865966961
