k [1/Mpc],P(k) [Mpc^3]
0.0001,95.91473656213918
0.00010392556829367125,99.9676047526514
0.00010800523745162529,104.19167560386353
0.00011224505680853065,108.5941682350665
0.00011665131316981963,113.18260706900206
0.00012123054013376525,117.96484578036244
0.00012598952777950273,122.94907461385438
0.00013093533273536104,128.14382046367666
0.00013607528864243335,133.55795162074796
0.00014141701702890234,139.20070737281233
0.00014696843861124463,145.08172656666045
0.00015273778503907136,151.21106097354325
0.00015873361110102093,157.59918320146843
0.00016496480740980205,164.25699839405715
0.0001714406135851971,171.19586811576727
0.00017817063195457305,178.4276294696293
0.00018516484179121546,185.96461482483133
0.000192433614111598,193.81967325097904
0.00019998772705352857,202.00619074199696
0.0002078383818579757,210.53811346683716
0.00021599721947827182,219.4299692978201
0.0002244763378413224,228.69689052483454
0.0002332883097864157,238.3546410952433
0.00024244620170823283,248.41963852148172
0.0002519635929317015,258.908982775833
0.0002618545958474233,269.84048490554244
0.0002721338768375308,281.23269352013136
0.0002828166780230032,293.1049275837014
0.0002939188398646886,305.4772961435626
0.0003054568246515432,318.3707315773349
0.00031744774091091926,331.8070296875144
0.00032990936877709396,345.80887656165334
0.00034286018635565856,360.3998917434585
0.00035631939712285854,375.60467716565864
0.000370306958400514,391.4488605006119
0.00038484361094874304,407.95911680520305
0.0003999509097203664,425.1631463668663
0.00041565125582259895,443.089749079335
0.00043196792973341727,461.76890537654816
0.0004489251258218605,481.2318349089004
0.0004665479882234472,501.51102648096406
0.000484862648123908,522.6402533695247
0.000503896262506515,544.6546305490134
0.0005236770544204653,567.5906724367776
0.0005442343548300266,591.4863106460134
0.0005655986461065005,616.3809803992389
0.0005878016072274912,642.3156537098076
0.0006108761607505036,669.3328906822171
0.0006348565216305217,697.4769234851342
0.0006597782479539537,726.7936911762977
0.0006856782936641739,757.3309202230655
0.0007125950633568407,789.1381536841744
0.0007405684692262436,822.2667782898878
0.0007696399902471156,856.7701458609635
0.0007998527336796708,892.7035833567737
0.000831251498989063,930.1244842661496
0.0008638828442740447,969.0923799262914
0.000897795155303332,1009.6689455765711
0.0009330387172620361,1051.9181353235238
0.0009696657893145519,1095.9061515851763
0.001007730682094461,1141.7015143704566
0.0010472898382363582,1189.3751989959048
0.0010884019160690055,1239.0005991580135
0.0011311278765939214,1290.6536807562643
0.001175531073878369,1344.4129189906419
0.0012216773489967915,1400.3592722811234
0.0012696351276599736,1458.5764215918275
0.0013194755216767058,1519.150648128752
0.0013712724343984,1582.170991764244
0.0014251026703029975,1647.7292375058162
0.0014810460488806749,1715.9197294511007
0.0015391855229902056,1786.8396908640282
0.001599607301861487,1860.5889666015426
0.0016624009789266115,1937.2701091519918
0.0017276596646690358,2016.9885194434296
0.0017954801246878305,2099.8520745806627
0.0018659629231817451,2185.97147697252
0.001939212572065829,2275.460016947027
0.0020153376859417325,2368.43345731325
0.002094451143151469,2465.010242332851
0.002176670253153458,2565.3106873066595
0.002262116930469025,2669.457387459827
0.002350917875457286,2777.575096956168
0.002443204762186487,2889.790259459769
0.0025391144336803463,3006.231430586996
0.002638789104828933,3127.0285566920857
0.002742376573264949,3252.313035144413
0.0028500304385181063,3382.217456591599
0.0029619103297725525,3516.874270235324
0.0030781821425650787,3656.4166627004906
0.003199018284775064,3800.9779008251603
0.0033245979322709396,3950.690992055585
0.003455107294592217,4105.688628730851
0.0035907398910610534,4266.101177316525
0.0037316968377327513,4432.057453548438
0.0038781871456107214,4603.683745516256
0.0040304280305680515,4781.10254663855
0.00418864523543527,4964.433276404316
0.004353073364731888,5153.789455470469
0.00452395623253805,5349.279089141488
0.004701547224022131,5551.004050288659
0.004886109671160325,5759.05732712534
0.005077917243205399,5973.524453919919
0.005277254352483535,6194.480167778795
0.005484416576121017,6421.9877231827695
0.005699711094326071,6656.098334659633
0.005923457145875801,6896.843708567956
0.006155986501483508,7144.24022417976
0.006397643955748424,7398.293017177572
0.0066487878384172625,7658.996438710333
0.0069097905457156435,7926.32393720117
0.007181039092537346,8200.19098680502
0.007462935686310132,8480.471567897052
0.007755898323389004,8767.02541604347
0.00806036140886134,9059.712995003827
0.008376776400682916,9358.369936941966
0.008705612479099857,9662.76148002307
0.009047357242349292,9972.589086151935
0.00940251742967013,10287.522837345467
0.009771619672696168,10607.218809148442
0.010155211276345676,10931.300356990416
0.010553861030365234,11259.31644264746
0.010968160052731372,11590.732793506115
0.011398722666160517,11924.960195534666
0.011846187309026826,12261.329798088833
0.012311217482038896,12599.109043416323
0.012794502732078732,12937.50068993251
0.013296759674662111,13275.634115236771
0.013818733056536317,13612.576795069772
0.014361196859990781,13947.295990638057
0.014924955450518284,14278.67546424586
0.015510844769528393,14605.525610266477
0.016119733573881575,14926.556661435217
0.01675252472408214,15240.414850581923
0.017410156523040152,15545.660609145923
0.018093604107387147,15840.77533511894
0.01880388089340914,16124.189317962602
0.019542040079740527,16394.25766499251
0.02030917620904734,16649.29770548077
0.021106426791015535,16887.597710166297
0.021934973989050584,17107.422583573123
0.02279604637318978,17307.04895685502
0.023690920741826323,17484.79850931639
0.02462092401494623,17639.045272487187
0.02558743520168586,17768.25255999981
0.02659188744512693,17871.027545613346
0.027635770147361564,17946.09727325574
0.028720631177978267,17992.509241415057
0.029848079169243254,18009.59653098363
0.03101978590138095,17996.866327899123
0.03223748878149028,17954.08611894966
0.0335029934197723,17881.230518082728
0.03481817630688963,17779.33560559777
0.03618498759642746,17650.632868695207
0.037605453996581675,17497.336111057237
0.03908168177536263,17320.735863348018
0.04061585988376978,17121.82494315832
0.04221026320156896,16902.696983464397
0.04386725591048496,16667.358070530074
0.0455892949998106,16419.914328131264
0.047378933909631396,16164.51361273019
0.049238826317067365,15905.228556601682
0.05117173007114603,15645.963404605363
0.05318051128214196,15390.514720695544
0.05526814857144601,15142.179573806408
0.057437737488265785,14902.751501510293
0.0596924950997073,14673.256626107746
0.0620357647610427,14453.031101823097
0.06447102107323864,14240.513847155053
0.06700187503509585,14032.650838130709
0.06963207939763882,13825.496138964145
0.0723655342286965,13613.76975467043
0.07520629269592405,13391.326769484649
0.07815856707684081,13151.265154548464
0.08122673500479707,12886.25363493396
0.08441534596012978,12589.568648791907
0.0877291280161335,12256.12118270037
0.09117299484984914,11884.018445053242
0.09475205302806537,11475.469378311158
0.09847160957933764,11037.425752194038
0.1023371798632519,10580.61723610566
0.10635449574860109,10118.878664706423
0.11052951411260206,9667.090997878193
0.1148684256737553,9240.124673948214
0.1193776641714435,8851.802177338335
0.1240639159058831,8511.694747491934
0.12893412965257148,8220.3020444788
0.13399552696593373,7969.628352180338
0.1392556128874462,7744.639300452582
0.14472218707411338,7524.907587733541
0.15040335536380234,7289.344226878144
0.15630754179458153,7021.108672317648
0.16244350109588662,6712.454991040368
0.16882033167003618,6368.052233652333
0.17544748908334581,6004.815896073783
0.1823348000868439,5647.827661671402
0.189492477187382,5323.560310072595
0.19693113379074215,5050.789985266922
0.20466179993919872,4831.590018024405
0.21269593866686892,4649.038098693136
0.22104546299710207,4474.707891605855
0.22972275360711503,4280.31625282968
0.23874067718606454,4050.8854800569784
0.2481126055137766,3796.007189072784
0.25785243528842716,3544.713033693948
0.26797460873256895,3325.9572359282406
0.27849413500806414,3151.44544790845
0.28942661247167484,3007.756236137297
0.3007882518043098,2865.9968160863955
0.31259590004822796,2704.3576086833687
0.324867065587837,2525.8490340109147
0.3376199441111335,2354.201962209527
0.35087344559027084,2210.1260914570753
0.36464722232127456,2092.2378856230616
0.37896169806447155,1978.9293110733272
0.3938380983288488,1854.1806992414677
0.4092984818452433,1725.9077396994358
0.4253657732750382,1612.776721171081
0.44206379720285277,1517.3273906937777
0.45941731346364734,1425.5853830221038
0.47745205385661277,1329.6411154073785
0.4961947603002895,1237.9131515807924
0.5156732244854959,1158.160358773787
0.5359163290848509,1084.1749442844311
0.556954090580013,1009.6726761866996
0.5788177037701272,939.7335820020003
0.6015395880274836,876.9885503086413
0.6251534353689703,817.0774362060052
0.6496942604146115,759.4115352593823
0.6751984523072497,706.7740806652008
0.7017038286703824,657.342690794561
0.7292496916841444,610.4148926308753
0.7578768863625915,567.0626097289922
0.7876278611187046,526.4003231635454
0.8185467307069019,488.3352051110824
0.850679341636415,452.8185889761154
0.8840733401525058,419.6943235702872
0.9187782428863317,388.816648313376
0.9548455102782278,360.0475372840147
0.9923286228832539,333.25632419789633
1.0312831606721837,308.3193947089808
1.0717668854455022,285.12046608596495
1.1138398264826193,263.551247934679
1.1575643695533022,243.5092673442121
1.2030053494233226,224.8972985171518
1.2502301459914542,207.62321240735977
1.299308784200415,191.59979195038926
1.3503140378698726,176.74418639135672
1.4033215376054824,162.977960134372
1.4584098829439835,150.22730807643444
1.5156607589006013,138.42285139416026
1.575159057091621,127.49942519130836
1.6369930016117014,117.3958842919567
1.7012542798525885,108.05492528150802
1.7680381784572046,99.42284613195774
1.8374437246107238,91.44934945342615
1.9095738328780953,84.0873626764621
1.9845354578058014,77.29286193402875
2.0624397525140905,71.0246663566505
2.143402233514853,65.24429736020826
2.227542951999554,59.915865014849594
2.314986671851158,55.005916475795324
2.405863054644063,50.48328991683758
2.5003068519063225,46.318969234809735
2.598458104929248,42.485939235097284
2.7004623524206774,38.95908262143878
2.806470846309834,35.71506469543706
2.916640776023701,32.7322184983894
3.031135501567576,29.990436169365715
3.150124795755327,27.471064856080563
3.2737850959485697,25.15681083253076
3.4022997656780634,23.03165022640371
3.5358593665351745,21.080743118439567
3.6746619407366854,19.29035269154988
3.8189133047818515,17.64776644190347
3.968827354637162,16.141218533640718
4.1246263829013445,14.759834031123424
4.286541408420921,13.493568361712844
4.4548125188449825,12.333147696613416
4.629689226627261,11.270013271878058
4.811430839003257,10.29626976720839
5.000306842491082,9.404636617853878
5.196597302486189,8.588402314851912
5.400593278542364,7.8413822782300455
5.612597255954967,7.157879638207459
5.8329235942862,6.532647225275301
6.06189899349756,5.960849879559226
6.29986297838068,5.4380391487828525
6.547168402004727,4.9601252733142545
6.804181968927091,4.5233493851549404
7.071284778942991,4.124257964937569
7.348872892180382,3.7596837271481505
7.637357916378006,3.42672168976537
7.937167617217536,3.122702722073733
8.248746552614573,2.845175073603142
8.572556731909314,2.591887523713367
8.909078300934132,2.3607696773851212
9.258810253973934,2.149906311075414
9.622271173675122,1.9575420069071403
9.999999999999984,1.7820729407608238
