k [1/Mpc],P(k) [Mpc^3]
0.0001,1723.751250206422
0.00010392556829367125,1791.3623128467264
0.00010800523745162529,1861.620744693962
0.00011224505680853065,1934.629695730785
0.00011665131316981963,2010.4962180055902
0.00012123054013376525,2089.3314518112707
0.00012598952777950273,2171.250691671153
0.00013093533273536104,2256.373625501869
0.00013607528864243335,2344.8245504436
0.00014141701702890234,2436.7325519609726
0.00014696843861124463,2532.231623723472
0.00015273778503907136,2631.4606876808716
0.00015873361110102093,2734.5638786795453
0.00016496480740980205,2841.6907361214394
0.0001714406135851971,2952.9963516699368
0.00017817063195457305,3068.641638068811
0.00018516484179121546,3188.7933864446263
0.000192433614111598,3313.624536363479
0.00019998772705352857,3443.3143954655134
0.0002078383818579757,3578.0487017871033
0.00021599721947827182,3718.0200159222504
0.0002244763378413224,3863.4277779361723
0.0002332883097864157,4014.4785473031725
0.00024244620170823283,4171.386355660543
0.0002519635929317015,4334.372735404303
0.0002618545958474233,4503.667138626995
0.0002721338768375308,4679.506810297705
0.0002828166780230032,4862.136818231815
0.0002939188398646886,5051.81077918087
0.0003054568246515432,5248.790851461896
0.00031744774091091926,5453.348155153868
0.00032990936877709396,5665.762762267149
0.00034286018635565856,5886.323430485936
0.00035631939712285854,6115.328509824627
0.000370306958400514,6353.085883898947
0.00038484361094874304,6599.913316212943
0.0003999509097203664,6856.138575083523
0.00041565125582259895,7122.098617995889
0.00043196792973341727,7398.140759916766
0.0004489251258218605,7684.622445925437
0.0004665479882234472,7981.911316458809
0.000484862648123908,8290.385860311979
0.000503896262506515,8610.43441411219
0.0005236770544204653,8942.456113783035
0.0005442343548300266,9286.86067174069
0.0005655986461065005,9644.06782813393
0.0005878016072274912,10014.508399546561
0.0006108761607505036,10398.622470017732
0.0006348565216305217,10796.860169493744
0.0006597782479539537,11209.682058611299
0.0006856782936641739,11637.55778813927
0.0007125950633568407,12080.967366769557
0.0007405684692262436,12540.398556352806
0.0007696399902471156,13016.346755700757
0.0007998527336796708,13509.315879435124
0.000831251498989063,14019.814168023502
0.0008638828442740447,14548.356834615483
0.000897795155303332,15095.464147660823
0.0009330387172620361,15661.65965216363
0.0009696657893145519,16247.471609488564
0.001007730682094461,16853.425651358993
0.0010472898382363582,17480.047409896786
0.0010884019160690055,18127.861961426413
0.0011311278765939214,18797.389478479396
0.001175531073878369,19489.14793222342
0.0012216773489967915,20203.64525664436
0.0012696351276599736,20941.379412804814
0.0013194755216767058,21702.839128349897
0.0013712724343984,22488.49617814519
0.0014251026703029975,23298.8089083149
0.0014810460488806749,24134.213682147747
0.0015391855229902056,24995.121120863852
0.001599607301861487,25881.91982812367
0.0016624009789266115,26794.96657619249
0.0017276596646690358,27734.588658216948
0.0017954801246878305,28701.07643764546
0.0018659629231817451,29694.674434395194
0.001939212572065829,30715.587375844552
0.0020153376859417325,31763.96887540494
0.002094451143151469,32839.921509235726
0.002176670253153458,33943.49077448126
0.002262116930469025,35074.64829334311
0.002350917875457286,36233.30187966516
0.002443204762186487,37419.28437530454
0.0025391144336803463,38632.350052176495
0.002638789104828933,39872.173089693846
0.002742376573264949,41138.32510211665
0.0028500304385181063,42430.285238099335
0.0029619103297725525,43747.42501158342
0.0030781821425650787,45088.996789658755
0.003199018284775064,46454.14275029082
0.0033245979322709396,47841.85736120755
0.003455107294592217,49251.00163239781
0.0035907398910610534,50680.30126322727
0.0037316968377327513,52128.32730519597
0.0038781871456107214,53593.505283246704
0.0040304280305680515,55074.00565867761
0.00418864523543527,56567.76647557617
0.004353073364731888,58072.633300169764
0.00452395623253805,59586.53042040291
0.004701547224022131,61107.27327209728
0.004886109671160325,62631.938354118654
0.005077917243205399,64156.77353540163
0.005277254352483535,65677.83723873786
0.005484416576121017,67191.42159844523
0.005699711094326071,68693.78825816879
0.005923457145875801,70180.9876126001
0.006155986501483508,71648.83649174598
0.006397643955748424,73092.91784885256
0.0066487878384172625,74508.02210499618
0.0069097905457156435,75888.41146789961
0.007181039092537346,77228.18434758183
0.007462935686310132,78521.34653347438
0.007755898323389004,79761.74366704214
0.00806036140886134,80942.38895657625
0.008376776400682916,82055.5803967274
0.008705612479099857,83093.463871482
0.009047357242349292,84047.9613530489
0.00940251742967013,84910.94902810604
0.009771619672696168,85673.81852652419
0.010155211276345676,86327.37538059328
0.010553861030365234,86862.45039977251
0.010968160052731372,87269.24256747052
0.011398722666160517,87537.96021884595
0.011846187309026826,87658.82534773179
0.012311217482038896,87621.7087257439
0.012794502732078732,87417.09525439632
0.013296759674662111,87035.27380527453
0.013818733056536317,86466.96770573428
0.014361196859990781,85703.83673955053
0.014924955450518284,84737.64791537567
0.015510844769528393,83561.79595276971
0.016119733573881575,82170.69045906328
0.01675252472408214,80560.0783988323
0.017410156523040152,78728.21895082504
0.018093604107387147,76674.82551984659
0.01880388089340914,74402.58138864326
0.019542040079740527,71917.12415470774
0.02030917620904734,69226.84234487814
0.021106426791015535,66344.10721533158
0.021934973989050584,63284.8514218949
0.02279604637318978,60068.77205297353
0.023690920741826323,56719.64872130278
0.02462092401494623,53265.2345418902
0.02558743520168586,49736.11610584863
0.02659188744512693,46167.4309423083
0.027635770147361564,42596.56177223154
0.028720631177978267,39061.19057446424
0.029848079169243254,35602.09935293785
0.03101978590138095,32256.203617710773
0.03223748878149028,29062.4759673427
0.0335029934197723,26059.487516835245
0.03481817630688963,23274.407468878602
0.03618498759642746,20729.728989989406
0.037605453996581675,18437.656235181847
0.03908168177536263,16413.289492288863
0.04061585988376978,14676.02615183654
0.04221026320156896,13226.405793255119
0.04386725591048496,12047.998080480742
0.0455892949998106,11122.769317807688
0.047378933909631396,10437.372670824449
0.049238826317067365,9978.139676914321
0.05117173007114603,9721.981731869217
0.05318051128214196,9645.415842833812
0.05526814857144601,9719.563635823124
0.057437737488265785,9907.332854865683
0.0596924950997073,10161.051908571377
0.0620357647610427,10421.636338872488
0.06447102107323864,10621.433351873904
0.06700187503509585,10689.585561588125
0.06963207939763882,10562.478787077016
0.0723655342286965,10192.942466702487
0.07520629269592405,9561.960954363338
0.07815856707684081,8687.053055770693
0.08122673500479707,7627.558854042372
0.08441534596012978,6478.124254780141
0.0877291280161335,5348.714080142668
0.09117299484984914,4340.068010435076
0.09475205302806537,3523.9766045908254
0.09847160957933764,2935.9585826728803
0.1023371798632519,2580.706777685032
0.10635449574860109,2442.837652327719
0.11052951411260206,2493.710983561488
0.1148684256737553,2688.598336222542
0.1193776641714435,2957.0952088337954
0.1240639159058831,3196.961834756736
0.12893412965257148,3289.036852736284
0.13399552696593373,3146.0349586835755
0.1392556128874462,2769.3518194131234
0.14472218707411338,2254.8378963194527
0.15040335536380234,1740.6523829975279
0.15630754179458153,1344.9954043073553
0.16244350109588662,1126.6514239930862
0.16882033167003618,1084.0450845966861
0.17544748908334581,1177.1173647541548
0.1823348000868439,1327.753911663043
0.189492477187382,1417.7437899408162
0.19693113379074215,1347.902862673156
0.20466179993919872,1124.5383413934844
0.21269593866686892,860.4523664607657
0.22104546299710207,674.2466157238543
0.22972275360711503,612.952662489413
0.23874067718606454,654.7485607074123
0.2481126055137766,721.677878848042
0.25785243528842716,714.4082558691689
0.26797460873256895,604.9535311356495
0.27849413500806414,471.1629713041634
0.28942661247167484,398.6374854493076
0.3007882518043098,401.49173790045273
0.31259590004822796,426.78211774863615
0.324867065587837,403.7376330046878
0.3376199441111335,332.7588087038164
0.35087344559027084,277.81684612122916
0.36464722232127456,269.19072403653314
0.37896169806447155,273.597073493479
0.3938380983288488,247.95685503721964
0.4092984818452433,208.07007442510323
0.4253657732750382,190.77322944045792
0.44206379720285277,188.02771974082737
0.45941731346364734,171.2332189593381
0.47745205385661277,148.44166665864475
0.4961947603002895,138.90729691633697
0.5156732244854959,131.3433297998827
0.5359163290848509,116.88141956966476
0.556954090580013,104.80511182723113
0.5788177037701272,95.53768461807644
0.6015395880274836,88.05127870004864
0.6251534353689703,81.56254470006759
0.6496942604146115,75.48583199129564
0.6751984523072497,69.4574291444261
0.7017038286703824,63.54653835610167
0.7292496916841444,57.90439310271548
0.7578768863625915,52.63859480762399
0.7876278611187046,47.818610291050206
0.8185467307069019,43.48197008042259
0.850679341636415,39.60900186561768
0.8840733401525058,36.12971208596752
0.9187782428863317,32.98309356559148
0.9548455102782278,30.119303425518137
0.9923286228832539,27.497643580720272
1.0312831606721837,25.086329597885374
1.0717668854455022,22.869103922303438
1.1138398264826193,20.83521275144736
1.1575643695533022,18.973628529750908
1.2030053494233226,17.27322403096674
1.2502301459914542,15.722939313903842
1.299308784200415,14.31112941017971
1.3503140378698726,13.02519345962229
1.4033215376054824,11.85353890608176
1.4584098829439835,10.785714507791589
1.5156607589006013,9.812288894143649
1.575159057091621,8.92476384806498
1.6369930016117014,8.115692221909159
1.7012542798525885,7.37841663674519
1.7680381784572046,6.706811057471361
1.8374437246107238,6.095239547486296
1.9095738328780953,5.538521091620543
1.9845354578058014,5.03187839942831
2.0624397525140905,4.570878400406185
2.143402233514853,4.151464306620047
2.227542951999554,3.769935862867717
2.314986671851158,3.4229182821902087
2.405863054644063,3.1073343295629616
2.5003068519063225,2.820387270673383
2.598458104929248,2.5595328294610296
2.7004623524206774,2.322446970884349
2.806470846309834,2.107007104998213
2.916640776023701,1.9112752385673348
3.031135501567576,1.7334814977000585
3.150124795755327,1.5720068552944908
3.2737850959485697,1.425374690787104
3.4022997656780634,1.2922399632352672
3.5358593665351745,1.1713776785199672
3.6746619407366854,1.061672371200278
3.8189133047818515,0.9621094392866393
3.968827354637162,0.8717662794733597
4.1246263829013445,0.7898026381075801
4.286541408420921,0.7154533304752264
4.4548125188449825,0.6480216979219924
4.629689226627261,0.5868735028124454
4.811430839003257,0.5314308093870549
5.000306842491082,0.48116772248226986
5.196597302486189,0.435606178045001
5.400593278542364,0.39431165758808856
5.612597255954967,0.35688927919513064
5.8329235942862,0.3229803311078694
6.06189899349756,0.2922590756252874
6.29986297838068,0.2644295586001066
6.547168402004727,0.23922290598525975
6.804181968927091,0.21639488774084836
7.071284778942991,0.19572370219426694
7.348872892180382,0.1770080064501851
7.637357916378006,0.1600650226288136
7.937167617217536,0.14472880951545938
8.248746552614573,0.13084873802738856
8.572556731909314,0.11828810255762823
8.909078300934132,0.10692270662293539
9.258810253973934,0.09663949006311379
9.622271173675122,0.0873359804320851
9.999999999999984,0.0789193922663188
