k [1/Mpc],P(k) [Mpc^3]
0.0001,185.61372366855358
0.00010392556829367125,191.78834992819824
0.00010800523745162529,198.16830416172255
0.00011224505680853065,204.76040660047397
0.00011665131316981963,211.5717061816012
0.00012123054013376525,218.60948980532567
0.00012598952777950273,225.8812854847985
0.00013093533273536104,233.39485821778214
0.00013607528864243335,241.15822269221806
0.00014141701702890234,249.17966121188513
0.00014696843861124463,257.4677384974179
0.00015273778503907136,266.03130383419006
0.00015873361110102093,274.87949272364585
0.00016496480740980205,284.02173642323595
0.0001714406135851971,293.46777922906824
0.00017817063195457305,303.22769780036174
0.00018516484179121546,313.3119048101749
0.000192433614111598,323.731135607207
0.00019998772705352857,334.4964466470505
0.0002078383818579757,345.6192584050187
0.00021599721947827182,357.11141506669503
0.0002244763378413224,368.9851773749273
0.0002332883097864157,381.2531814774927
0.00024244620170823283,393.9284016542125
0.0002519635929317015,407.02422321729637
0.0002618545958474233,420.55451141310476
0.0002721338768375308,434.5336231753282
0.0002828166780230032,448.9763774738377
0.0002939188398646886,463.89803306438364
0.0003054568246515432,479.31433149191
0.00031744774091091926,495.2415107836739
0.00032990936877709396,511.6963151047406
0.00034286018635565856,528.6960289712915
0.00035631939712285854,546.2585200107177
0.000370306958400514,564.4022447633437
0.00038484361094874304,583.1462184952561
0.0003999509097203664,602.5099813337902
0.00041565125582259895,622.5136821079257
0.00043196792973341727,643.1781495126544
0.0004489251258218605,664.5249070910402
0.0004665479882234472,686.5761383420471
0.000484862648123908,709.3546279928058
0.000503896262506515,732.8838455442735
0.0005236770544204653,757.1879749346158
0.0005442343548300266,782.2919302183454
0.0005655986461065005,808.22138839578
0.0005878016072274912,835.0027981011759
0.0006108761607505036,862.6634087738711
0.0006348565216305217,891.231265512375
0.0006597782479539537,920.7351892602614
0.0006856782936641739,951.204847848665
0.0007125950633568407,982.6707080481561
0.0007405684692262436,1015.1640709168435
0.0007696399902471156,1048.717148312369
0.0007998527336796708,1083.363090473538
0.000831251498989063,1119.1360016540864
0.0008638828442740447,1156.0708168499627
0.000897795155303332,1194.203276373434
0.0009330387172620361,1233.5700961273803
0.0009696657893145519,1274.2090062040677
0.001007730682094461,1316.1587669309406
0.0010472898382363582,1359.4590702106307
0.0010884019160690055,1404.1504293297685
0.0011311278765939214,1450.2743661773718
0.001175531073878369,1497.873342699474
0.0012216773489967915,1546.9908009883218
0.0012696351276599736,1597.6711575887323
0.0013194755216767058,1649.9595872614573
0.0013712724343984,1703.9022337268705
0.0014251026703029975,1759.5460686136203
0.0014810460488806749,1816.9388455906565
0.0015391855229902056,1876.1292490586945
0.001599607301861487,1937.1666194184018
0.0016624009789266115,2000.1011170462612
0.0017276596646690358,2064.983573123615
0.0017954801246878305,2131.865228863391
0.0018659629231817451,2200.798050321498
0.001939212572065829,2271.8343540831015
0.0020153376859417325,2345.02688770683
0.002094451143151469,2420.4288550177816
0.002176670253153458,2498.093460890358
0.002262116930469025,2578.07424320054
0.002350917875457286,2660.4245134920434
0.002443204762186487,2745.197191744802
0.0025391144336803463,2832.445168849213
0.002638789104828933,2922.220643699254
0.002742376573264949,3014.575423502258
0.0028500304385181063,3109.560517223544
0.0029619103297725525,3207.2255680012413
0.0030781821425650787,3307.6193875691556
0.003199018284775064,3410.788979070024
0.0033245979322709396,3516.7796980545645
0.003455107294592217,3625.6352077131764
0.0035907398910610534,3737.3964335512183
0.0037316968377327513,3852.1022359647877
0.0038781871456107214,3969.788293219848
0.0040304280305680515,4090.4867882579874
0.00418864523543527,4214.226860125459
0.004353073364731888,4341.032999193411
0.00452395623253805,4470.92575794432
0.004701547224022131,4603.920756408204
0.004886109671160325,4740.027496677611
0.005077917243205399,4879.250401940169
0.005277254352483535,5021.586021148355
0.005484416576121017,5167.023700417903
0.005699711094326071,5315.5457630568635
0.005923457145875801,5467.125452188403
0.006155986501483508,5621.728196640937
0.006397643955748424,5779.306974345267
0.0066487878384172625,5939.801809836067
0.0069097905457156435,6103.143746514438
0.007181039092537346,6269.256526496287
0.007462935686310132,6438.054586769854
0.007755898323389004,6609.429065535342
0.00806036140886134,6783.239288320815
0.008376776400682916,6959.329240671525
0.008705612479099857,7137.532823306041
0.009047357242349292,7317.671716690369
0.00940251742967013,7499.551488200557
0.009771619672696168,7682.958951362023
0.010155211276345676,7867.663822087192
0.010553861030365234,8053.4042397449
0.010968160052731372,8239.887442057643
0.011398722666160517,8426.798648090167
0.011846187309026826,8613.791240708371
0.012311217482038896,8800.494984741244
0.012794502732078732,8986.51205213091
0.013296759674662111,9171.413672053199
0.013818733056536317,9354.747796324202
0.014361196859990781,9536.025524030554
0.014924955450518284,9714.729654592582
0.015510844769528393,9890.316128867895
0.016119733573881575,10062.205026157057
0.01675252472408214,10229.795035786748
0.017410156523040152,10392.452908686117
0.018093604107387147,10549.518057255
0.01880388089340914,10700.31399425512
0.019542040079740527,10844.142569984973
0.02030917620904734,10980.295572175159
0.021106426791015535,11108.056441999872
0.021934973989050584,11226.702620198013
0.02279604637318978,11335.517680170376
0.023690920741826323,11433.806927129528
0.02462092401494623,11520.896247576446
0.02558743520168586,11596.145078317977
0.02659188744512693,11658.967177839151
0.027635770147361564,11708.816923055094
0.028720631177978267,11745.258441667598
0.029848079169243254,11767.951898009362
0.03101978590138095,11776.620441172505
0.03223748878149028,11771.094836682867
0.0335029934197723,11751.278470126126
0.03481817630688963,11717.38364648145
0.03618498759642746,11669.981534591943
0.037605453996581675,11609.672538279752
0.03908168177536263,11536.894093381792
0.04061585988376978,11452.039306684972
0.04221026320156896,11355.739029545171
0.04386725591048496,11249.055366149356
0.0455892949998106,11133.10366875149
0.047378933909631396,11009.036812093755
0.049238826317067365,10878.020458779163
0.05117173007114603,10741.233050046922
0.05318051128214196,10599.954412478075
0.05526814857144601,10455.4131739426
0.057437737488265785,10308.250322961361
0.0596924950997073,10158.638566622927
0.0620357647610427,10006.360396437929
0.06447102107323864,9850.609379034237
0.06700187503509585,9690.356946971708
0.06963207939763882,9524.197757293525
0.0723655342286965,9350.674126928321
0.07520629269592405,9168.274023289761
0.07815856707684081,8975.57372457367
0.08122673500479707,8771.292802652952
0.08441534596012978,8554.425159777027
0.0877291280161335,8324.461518459173
0.09117299484984914,8081.681035181918
0.09475205302806537,7827.5969540016495
0.09847160957933764,7565.0360286123905
0.1023371798632519,7298.07441772266
0.10635449574860109,7031.560577609791
0.11052951411260206,6770.306293776338
0.1148684256737553,6518.35728634366
0.1193776641714435,6278.529534435155
0.1240639159058831,6052.028652217094
0.12893412965257148,5838.301174929238
0.13399552696593373,5634.597349537452
0.1392556128874462,5436.179220029688
0.14472218707411338,5238.361856171627
0.15040335536380234,5035.703512980758
0.15630754179458153,4824.384456459453
0.16244350109588662,4604.5829616990095
0.16882033167003618,4380.307863411373
0.17544748908334581,4158.153170437343
0.1823348000868439,3945.4275819932477
0.189492477187382,3747.7385046404024
0.19693113379074215,3567.1528154226567
0.20466179993919872,3401.3823297865943
0.21269593866686892,3244.062281485846
0.22104546299710207,3087.2699775448186
0.22972275360711503,2926.263662813231
0.23874067718606454,2762.171475223543
0.2481126055137766,2600.4558765343945
0.25785243528842716,2448.107449462324
0.26797460873256895,2309.598300904914
0.27849413500806414,2183.326440156593
0.28942661247167484,2063.547026916664
0.3007882518043098,1944.914325129651
0.31259590004822796,1826.1164850737912
0.324867065587837,1710.72011690442
0.3376199441111335,1603.2954974477195
0.35087344559027084,1505.0910958831146
0.36464722232127456,1413.0795821205563
0.37896169806447155,1323.9108129563458
0.3938380983288488,1237.0902411780073
0.4092984818452433,1154.9050607556076
0.4253657732750382,1078.944266471171
0.44206379720285277,1008.0416469688095
0.45941731346364734,940.1515900626435
0.47745205385661277,875.3595841656393
0.4961947603002895,814.9892087095461
0.5156732244854959,758.8389480012162
0.5359163290848509,705.6108402492088
0.556954090580013,655.3722618697166
0.5788177037701272,608.6087890283319
0.6015395880274836,564.8372567311183
0.6251534353689703,523.7414582489565
0.6496942604146115,485.3317421765548
0.6751984523072497,449.49051959982825
0.7017038286703824,416.0304351817445
0.7292496916841444,384.7977736860205
0.7578768863625915,355.7407384331726
0.7876278611187046,328.6309961387725
0.8185467307069019,303.45110642445815
0.850679341636415,280.015377797265
0.8840733401525058,258.2518069643901
0.9187782428863317,238.0570311262853
0.9548455102782278,219.32208938095724
0.9923286228832539,201.95211806811488
1.0312831606721837,185.85959588208544
1.0717668854455022,170.9613632095068
1.1138398264826193,157.17853352112664
1.1575643695533022,144.43639419306777
1.2030053494233226,132.66410770635363
1.2502301459914542,121.79436567366274
1.299308784200415,111.76380530397789
1.3503140378698726,102.51293235246021
1.4033215376054824,93.98594161361068
1.4584098829439835,86.13054064548895
1.5156607589006013,78.89779779254086
1.575159057091621,72.2419704672308
1.6369930016117014,66.12030583517941
1.7012542798525885,60.4928808122056
1.7680381784572046,55.322449111173846
1.8374437246107238,50.57428960169535
1.9095738328780953,46.21602698557884
1.9845354578058014,42.21752250988608
2.0624397525140905,38.55077265124601
2.143402233514853,35.18977798550531
2.227542951999554,32.110417550869684
2.314986671851158,29.290327712158568
2.405863054644063,26.708782735396742
2.5003068519063225,24.346595310632416
2.598458104929248,22.186017235665624
2.7004623524206774,20.210642166989228
2.806470846309834,18.40531385451799
2.916640776023701,16.75603648334608
3.031135501567576,15.249890132650547
3.150124795755327,13.874963172188536
3.2737850959485697,12.620281113602509
3.4022997656780634,11.475738489293429
3.5358593665351745,10.43203501718421
3.6746619407366854,9.480612817078091
3.8189133047818515,8.61360142644892
3.968827354637162,7.823770693145245
4.1246263829013445,7.104482148269249
4.286541408420921,6.449643458904349
4.4548125188449825,5.853666049849785
4.629689226627261,5.311425365600515
4.811430839003257,4.818224750566847
5.000306842491082,4.369761953846991
5.196597302486189,3.962097713080713
5.400593278542364,3.5916266595879396
5.612597255954967,3.2550497818407482
5.8329235942862,2.949347502281262
6.06189899349756,2.6717597387048277
6.29986297838068,2.419765517992486
6.547168402004727,2.191063053937279
6.804181968927091,1.9835514087029773
7.071284778942991,1.7953149461624702
7.348872892180382,1.6246088908489889
7.637357916378006,1.4698415083841325
7.937167617217536,1.3295607997305967
8.248746552614573,1.2024427773019974
8.572556731909314,1.0872804917290826
8.909078300934132,0.9829691041008684
9.258810253973934,0.8884982345017673
9.622271173675122,0.802950676687365
9.999999999999984,0.7254941810359835
