k [1/Mpc],P(k) [Mpc^3]
0.0001,656.2851713643755
0.00010392556829367125,685.9773746718954
0.00010800523745162529,717.0111835476398
0.00011224505680853065,749.4470090605693
0.00011665131316981963,783.347934605748
0.00012123054013376525,818.7798484367617
0.00012598952777950273,855.8115322978817
0.00013093533273536104,894.5148206017923
0.00013607528864243335,934.9647546122887
0.00014141701702890234,977.2397259618406
0.00014696843861124463,1021.4215999089972
0.00015273778503907136,1067.595800966894
0.00015873361110102093,1115.8515079833542
0.00016496480740980205,1166.2818163471507
0.0001714406135851971,1218.9838860999878
0.00017817063195457305,1274.059143824158
0.00018516484179121546,1331.6134015019693
0.000192433614111598,1391.7570670606526
0.00019998772705352857,1454.605339084839
0.0002078383818579757,1520.2783395158647
0.00021599721947827182,1588.9013898986036
0.0002244763378413224,1660.6051510590262
0.0002332883097864157,1735.5258445672985
0.00024244620170823283,1813.8055287071527
0.0002519635929317015,1895.592239931238
0.0002618545958474233,1981.0403084760892
0.0002721338768375308,2070.310440983537
0.0002828166780230032,2163.569873116407
0.0002939188398646886,2260.9928363689614
0.0003054568246515432,2362.7607082114323
0.00031744774091091926,2469.0623581063087
0.00032990936877709396,2580.094306739936
0.00034286018635565856,2696.0607702068164
0.00035631939712285854,2817.1742428745038
0.000370306958400514,2943.655650019789
0.00038484361094874304,3075.734691069489
0.0003999509097203664,3213.6500875158436
0.00041565125582259895,3357.6493923856183
0.00043196792973341727,3507.9897300904204
0.0004489251258218605,3664.9378927571056
0.0004665479882234472,3828.7705763190993
0.000484862648123908,3999.7749044175403
0.000503896262506515,4178.248164080923
0.0005236770544204653,4364.498480637824
0.0005442343548300266,4558.844935537987
0.0005655986461065005,4761.617522918096
0.0005878016072274912,4973.157893514424
0.0006108761607505036,5193.818692721785
0.0006348565216305217,5423.964170768472
0.0006597782479539537,5663.970610846423
0.0006856782936641739,5914.225890689424
0.0007125950633568407,6175.130357373596
0.0007405684692262436,6447.095737092441
0.0007696399902471156,6730.5452889140215
0.0007998527336796708,7025.9144770503135
0.000831251498989063,7333.649010662571
0.0008638828442740447,7654.206407855793
0.000897795155303332,7988.055195138424
0.0009330387172620361,8335.67414844527
0.0009696657893145519,8697.55322676972
0.001007730682094461,9074.18980426369
0.0010472898382363582,9466.090169800782
0.0010884019160690055,9873.769341150179
0.0011311278765939214,10297.748792654833
0.001175531073878369,10738.557986073094
0.0012216773489967915,11196.730112904479
0.0012696351276599736,11672.802090029125
0.0013194755216767058,12167.314933682475
0.0013712724343984,12680.809376571906
0.0014251026703029975,13213.827709065828
0.0014810460488806749,13766.908796589763
0.0015391855229902056,14340.585675860293
0.001599607301861487,14935.387389665759
0.0016624009789266115,15551.833032459415
0.0017276596646690358,16190.432694902072
0.0017954801246878305,16851.682692274182
0.0018659629231817451,17536.059769149993
0.001939212572065829,18244.023999832658
0.0020153376859417325,18976.01142261848
0.002094451143151469,19732.433276724027
0.002176670253153458,20513.671528524686
0.002262116930469025,21320.067719211766
0.002350917875457286,22151.927863722496
0.002443204762186487,23009.51448669188
0.0025391144336803463,23893.043079595318
0.002638789104828933,24802.679748452636
0.002742376573264949,25738.52569647808
0.0028500304385181063,26700.621689824497
0.0029619103297725525,27688.936718217585
0.0030781821425650787,28703.358619900802
0.003199018284775064,29743.697523091832
0.0033245979322709396,30809.659515468502
0.003455107294592217,31900.852971615117
0.0035907398910610534,33016.7846593952
0.0037316968377327513,34156.844302094214
0.0038781871456107214,35320.307408594635
0.0040304280305680515,36506.259604818435
0.00418864523543527,37713.60651654144
0.004353073364731888,38941.162739957545
0.00452395623253805,40187.76507432642
0.004701547224022131,41452.14635708712
0.004886109671160325,42732.50298178055
0.005077917243205399,44026.418266830726
0.005277254352483535,45331.28650148572
0.005484416576121017,46644.60206422401
0.005699711094326071,47963.778742435024
0.005923457145875801,49286.02131213591
0.006155986501483508,50608.3045991955
0.006397643955748424,51927.36753993319
0.0066487878384172625,53239.308178873456
0.0069097905457156435,54539.75615585658
0.007181039092537346,55824.12385243383
0.007462935686310132,57087.653293171046
0.007755898323389004,58325.36334256463
0.00806036140886134,59531.55034735727
0.008376776400682916,60699.85554685442
0.008705612479099857,61823.6669194365
0.009047357242349292,62896.06018191653
0.00940251742967013,63909.925954512604
0.009771619672696168,64857.63446770881
0.010155211276345676,65730.94545549914
0.010553861030365234,66521.46112092628
0.010968160052731372,67220.1180634039
0.011398722666160517,67817.66740471503
0.011846187309026826,68304.6756487515
0.012311217482038896,68671.2362893284
0.012794502732078732,68907.7200279474
0.013296759674662111,69004.14358970118
0.013818733056536317,68950.66522900452
0.014361196859990781,68737.99454889745
0.014924955450518284,68356.74256816816
0.015510844769528393,67798.65535260581
0.016119733573881575,67056.1496299847
0.01675252472408214,66122.59933574416
0.017410156523040152,64993.33543104515
0.018093604107387147,63664.82597953061
0.01880388089340914,62135.97604951243
0.019542040079740527,60408.18603258587
0.02030917620904734,58485.25207336216
0.021106426791015535,56374.48129987657
0.021934973989050584,54086.43176821037
0.02279604637318978,51635.178322785796
0.023690920741826323,49038.68556959011
0.02462092401494623,46318.82067297459
0.02558743520168586,43500.46295494056
0.02659188744512693,40613.094365178134
0.027635770147361564,37688.88411635123
0.028720631177978267,34761.02473523462
0.029848079169243254,31866.257662415115
0.03101978590138095,29038.693225907038
0.03223748878149028,26315.085723403565
0.0335029934197723,23732.659585155307
0.03481817630688963,21319.034565034064
0.03618498759642746,19098.131792487966
0.037605453996581675,17084.856532811984
0.03908168177536263,15297.117885133624
0.04061585988376978,13757.224428383946
0.04221026320156896,12470.175034559776
0.04386725591048496,11424.940771293077
0.0455892949998106,10608.655804297752
0.047378933909631396,10012.602625027463
0.049238826317067365,9627.504499612662
0.05117173007114603,9434.68300928183
0.05318051128214196,9414.599067572064
0.05526814857144601,9541.92508160695
0.057437737488265785,9782.601219904822
0.0596924950997073,10091.24214095623
0.0620357647610427,10409.98809715598
0.06447102107323864,10671.0169066548
0.06700187503509585,10801.694961213721
0.06963207939763882,10735.07917436277
0.0723655342286965,10419.510968187298
0.07520629269592405,9831.122110826607
0.07815856707684081,8983.321849999234
0.08122673500479707,7933.382872093489
0.08441534596012978,6776.890710419872
0.0877291280161335,5627.803850198881
0.09117299484984914,4592.979062218802
0.09475205302806537,3750.933012604842
0.09847160957933764,3143.146166912279
0.1023371798632519,2778.82806567895
0.10635449574860109,2645.610957382307
0.11052951411260206,2716.3507936080737
0.1148684256737553,2945.601709979182
0.1193776641714435,3258.530321339089
0.1240639159058831,3543.2538839318863
0.12893412965257148,3666.4175325119613
0.13399552696593373,3527.321834724904
0.1392556128874462,3122.9716079690097
0.14472218707411338,2557.487915065235
0.15040335536380234,1985.7230412467334
0.15630754179458153,1543.2482308486738
0.16244350109588662,1300.2082534330284
0.16882033167003618,1258.2851011372281
0.17544748908334581,1374.2313045566245
0.1823348000868439,1559.071460778773
0.189492477187382,1674.3820017149894
0.19693113379074215,1601.1195126739551
0.20466179993919872,1343.531283363294
0.21269593866686892,1033.971838424371
0.22104546299710207,814.9088108623993
0.22972275360711503,745.1188241453756
0.23874067718606454,800.5371910768538
0.2481126055137766,887.4802870134877
0.25785243528842716,883.6293806858321
0.26797460873256895,752.5824046006429
0.27849413500806414,589.5376654961765
0.28942661247167484,501.6801311839688
0.3007882518043098,508.19892308382254
0.31259590004822796,543.3400309415508
0.324867065587837,516.9792150393286
0.3376199441111335,428.56013707464086
0.35087344559027084,359.8729047813168
0.36464722232127456,350.71878217323916
0.37896169806447155,358.52442069137413
0.3938380983288488,326.8073200568758
0.4092984818452433,275.82500833892584
0.4253657732750382,254.36058213186243
0.44206379720285277,252.15211724701683
0.45941731346364734,230.96018673041988
0.47745205385661277,201.37858462049468
0.4961947603002895,189.53563895357047
0.5156732244854959,180.25287773817854
0.5359163290848509,161.33478829303792
0.556954090580013,145.50347743813742
0.5788177037701272,133.40557532754764
0.6015395880274836,123.66400194217907
0.6251534353689703,115.21439873632644
0.6496942604146115,107.24814717866221
0.6751984523072497,99.25477693654197
0.7017038286703824,91.33410387137612
0.7292496916841444,83.70684045742378
0.7578768863625915,76.53535200305602
0.7876278611187046,69.92993239577405
0.8185467307069019,63.95635905462107
0.850679341636415,58.5971884705627
0.8840733401525058,53.759564547986514
0.9187782428863317,49.36180016619446
0.9548455102782278,45.33701133732895
0.9923286228832539,41.63051692846178
1.0312831606721837,38.199863437184554
1.0717668854455022,35.02532675778524
1.1138398264826193,32.09514545398561
1.1575643695533022,29.396807167433384
1.2030053494233226,26.91730260990848
1.2502301459914542,24.643377540744282
1.299308784200415,22.56050217970946
1.3503140378698726,20.65225112365419
1.4033215376054824,18.90338612778431
1.4584098829439835,17.30010973010749
1.5156607589006013,15.829916522338394
1.575159057091621,14.481494810840351
1.6369930016117014,13.244958118808233
1.7012542798525885,12.111461608999651
1.7680381784572046,11.0728091597691
1.8374437246107238,10.12140685639527
1.9095738328780953,9.250224638185006
1.9845354578058014,8.452729365547482
2.0624397525140905,7.722801208863461
2.143402233514853,7.054802457885097
2.227542951999554,6.443559930112447
2.314986671851158,5.884327049093652
2.405863054644063,5.372749791272117
2.5003068519063225,4.904850108587706
2.598458104929248,4.476989332690225
2.7004623524206774,4.0858227556596285
2.806470846309834,3.728276193650841
2.916640776023701,3.4015250392305063
3.031135501567576,3.1029730999765786
3.150124795755327,2.8302291317795585
3.2737850959485697,2.5810984237679335
3.4022997656780634,2.3535696301399995
3.5358593665351745,2.1457997425732227
3.6746619407366854,1.956100308559547
3.8189133047818515,1.7829265115398176
3.968827354637162,1.6248654142798462
4.1246263829013445,1.480622244216779
4.286541408420921,1.3490105950069895
4.4548125188449825,1.2289436215546985
4.629689226627261,1.119425704343736
4.811430839003257,1.0195437420535423
5.000306842491082,0.9284616761322619
5.196597302486189,0.8454148799951134
5.400593278542364,0.7697041622467022
5.612597255954967,0.7006902614101016
5.8329235942862,0.637788987233011
6.06189899349756,0.5804666969896135
6.29986297838068,0.5282355954165298
6.547168402004727,0.48064982206082174
6.804181968927091,0.43730191768685894
7.071284778942991,0.39781959286052504
7.348872892180382,0.3618628660862477
7.637357916378006,0.32912123903258506
7.937167617217536,0.29931109788762594
8.248746552614573,0.27217343212532363
8.572556731909314,0.2474717434595635
8.909078300934132,0.22498981451441327
9.258810253973934,0.20452947549788048
9.622271173675122,0.18591003652228935
9.999999999999984,0.168966936332635
