k [1/Mpc],P(k) [Mpc^3]
0.0001,1027.711228586185
0.00010392556829367125,1064.9416306785336
0.00010800523745162529,1103.5180080888715
0.00011224505680853065,1143.4887033152713
0.00011665131316981963,1184.903775706625
0.00012123054013376525,1227.8150498219345
0.00012598952777950273,1272.2761235550875
0.00013093533273536104,1318.3424643346452
0.00013607528864243335,1366.0714674544085
0.00014141701702890234,1415.5225017334765
0.00014696843861124463,1466.7570054110008
0.00015273778503907136,1519.8385024196236
0.00015873361110102093,1574.8326936178096
0.00016496480740980205,1631.807550932668
0.0001714406135851971,1690.8333732388198
0.00017817063195457305,1751.9828785528823
0.00018516484179121546,1815.3311564301152
0.000192433614111598,1880.9557432655934
0.00019998772705352857,1948.936784625747
0.0002078383818579757,2019.3570260856452
0.00021599721947827182,2092.3019659603133
0.0002244763378413224,2167.8598931685387
0.0002332883097864157,2246.121928488923
0.00024244620170823283,2327.18217710165
0.0002519635929317015,2411.137604568751
0.0002618545958474233,2498.0882225762884
0.0002721338768375308,2588.1371596539043
0.0002828166780230032,2681.390565025571
0.0002939188398646886,2777.9579001998495
0.0003054568246515432,2877.9518302207466
0.00031744774091091926,2981.488334525071
0.00032990936877709396,3088.6868634594093
0.00034286018635565856,3199.670119470817
0.00035631939712285854,3314.5643819490515
0.000370306958400514,3433.4993017862753
0.00038484361094874304,3556.607833449961
0.0003999509097203664,3684.0266551864274
0.00041565125582259895,3815.895975619251
0.00043196792973341727,3952.3597543335163
0.0004489251258218605,4093.5653403533397
0.0004665479882234472,4239.662891839747
0.000484862648123908,4390.806255684037
0.000503896262506515,4547.152977309631
0.0005236770544204653,4708.864370098272
0.0005442343548300266,4876.105245948651
0.0005655986461065005,5049.042951895386
0.0005878016072274912,5227.848230722293
0.0006108761607505036,5412.694708234997
0.0006348565216305217,5603.758707659462
0.0006597782479539537,5801.21969363011
0.0006856782936641739,6005.259189979375
0.0007125950633568407,6216.061354326515
0.0007405684692262436,6433.812287133962
0.0007696399902471156,6658.699050172902
0.0007998527336796708,6890.91070786671
0.000831251498989063,7130.636546582276
0.0008638828442740447,7378.06644794462
0.000897795155303332,7633.390529081034
0.0009330387172620361,7896.796659418877
0.0009696657893145519,8168.47233838557
0.001007730682094461,8448.60298428341
0.0010472898382363582,8737.37144816925
0.0010884019160690055,9034.958367225912
0.0011311278765939214,9341.538566214003
0.001175531073878369,9657.282781851009
0.0012216773489967915,9982.355692125358
0.0012696351276599736,10316.913765698966
0.0013194755216767058,10661.107232775556
0.0013712724343984,11015.076560680443
0.0014251026703029975,11378.953019178876
0.0014810460488806749,11752.856903850883
0.0015391855229902056,12136.892768404117
0.001599607301861487,12531.152845246459
0.0016624009789266115,12935.71389285773
0.0017276596646690358,13350.636425603363
0.0017954801246878305,13775.964261523493
0.0018659629231817451,14211.718254564166
0.001939212572065829,14657.899267488796
0.0020153376859417325,15114.485201377074
0.002094451143151469,15581.428404841088
0.002176670253153458,16058.65711879452
0.002262116930469025,16546.06885240103
0.002350917875457286,17043.53200446949
0.002443204762186487,17550.884095340683
0.0025391144336803463,18067.92697734115
0.002638789104828933,18594.4298042626
0.002742376573264949,19130.123689965
0.0028500304385181063,19674.701418299715
0.0029619103297725525,20227.817131208918
0.0030781821425650787,20789.079601094618
0.003199018284775064,21358.055998110038
0.0033245979322709396,21934.26579636862
0.003455107294592217,22517.178351935705
0.0035907398910610534,23106.217960809197
0.0037316968377327513,23700.761356478375
0.0038781871456107214,24300.138125311903
0.0040304280305680515,24903.60350203137
0.00418864523543527,25510.31366250281
0.004353073364731888,26119.37570394495
0.00452395623253805,26729.950679811504
0.004701547224022131,27341.220695585493
0.004886109671160325,27952.215535785424
0.005077917243205399,28561.57922262946
0.005277254352483535,29167.828717143446
0.005484416576121017,29769.582077167084
0.005699711094326071,30365.5678534316
0.005923457145875801,30954.483637123354
0.006155986501483508,31535.01601329779
0.006397643955748424,32105.824278676537
0.0066487878384172625,32665.429707898787
0.0069097905457156435,33212.15578201898
0.007181039092537346,33744.270971235186
0.007462935686310132,34259.991533775305
0.007755898323389004,34757.495883300675
0.00806036140886134,35234.92789981886
0.008376776400682916,35690.38561494108
0.008705612479099857,36121.95324673017
0.009047357242349292,36527.685253932774
0.00940251742967013,36905.620909518875
0.009771619672696168,37253.7968506239
0.010155211276345676,37570.186522543256
0.010553861030365234,37852.77959629427
0.010968160052731372,38099.595718436656
0.011398722666160517,38308.6909568373
0.011846187309026826,38478.19547696132
0.012311217482038896,38606.289854746334
0.012794502732078732,38691.24769111509
0.013296759674662111,38731.47036005523
0.013818733056536317,38725.50103607906
0.014361196859990781,38672.0481095172
0.014924955450518284,38570.03660619446
0.015510844769528393,38418.611255323034
0.016119733573881575,38217.16566680089
0.01675252472408214,37965.4568381268
0.017410156523040152,37663.50266615805
0.018093604107387147,37311.73019956063
0.01880388089340914,36910.99214018962
0.019542040079740527,36462.44102972856
0.02030917620904734,35967.8696742834
0.021106426791015535,35429.40698706871
0.021934973989050584,34849.622493281015
0.02279604637318978,34231.710430437335
0.023690920741826323,33579.035772925396
0.02462092401494623,32895.63463042371
0.02558743520168586,32185.870799401207
0.02659188744512693,31454.125893065073
0.027635770147361564,30705.004776172787
0.028720631177978267,29942.996374174458
0.029848079169243254,29173.10029172164
0.03101978590138095,28400.68807779839
0.03223748878149028,27630.114270829243
0.0335029934197723,26862.368949190863
0.03481817630688963,26097.546097728984
0.03618498759642746,25338.85349955804
0.037605453996581675,24593.78098047859
0.03908168177536263,23868.071574711023
0.04061585988376978,23155.70334562257
0.04221026320156896,22445.73295429521
0.04386725591048496,21731.340451086522
0.0455892949998106,21013.569608408074
0.047378933909631396,20294.324160450156
0.049238826317067365,19572.98782187552
0.05117173007114603,18847.71518100271
0.05318051128214196,18115.500355553188
0.05526814857144601,17372.220980330978
0.057437737488265785,16617.56917151405
0.0596924950997073,15856.055965558917
0.0620357647610427,15096.512865285571
0.06447102107323864,14351.615702453726
0.06700187503509585,13632.576871792551
0.06963207939763882,12947.736266815624
0.0723655342286965,12299.26847155965
0.07520629269592405,11687.424494809356
0.07815856707684081,11112.239988152409
0.08122673500479707,10574.130383733824
0.08441534596012978,10069.627978734488
0.0877291280161335,9589.172859492159
0.09117299484984914,9118.27139645966
0.09475205302806537,8645.632775224281
0.09847160957933764,8167.758455442108
0.1023371798632519,7689.753336270333
0.10635449574860109,7221.888787035608
0.11052951411260206,6774.824875801977
0.1148684256737553,6355.6930872539
0.1193776641714435,5966.901491832515
0.1240639159058831,5608.811017651467
0.12893412965257148,5280.350043724352
0.13399552696593373,4972.56944999312
0.1392556128874462,4672.906224150225
0.14472218707411338,4378.213294226548
0.15040335536380234,4092.578132684432
0.15630754179458153,3818.295702784373
0.16244350109588662,3560.708361234398
0.16882033167003618,3324.7250019129206
0.17544748908334581,3106.2377082263943
0.1823348000868439,2900.4005726406176
0.189492477187382,2704.583944933057
0.19693113379074215,2517.5207383948286
0.20466179993919872,2340.593996411155
0.21269593866686892,2175.5934608340144
0.22104546299710207,2022.5258598247196
0.22972275360711503,1879.319067140533
0.23874067718606454,1744.6028443755883
0.2481126055137766,1617.9092240341706
0.25785243528842716,1499.620356065068
0.26797460873256895,1389.4165726163144
0.27849413500806414,1286.7001582131195
0.28942661247167484,1190.7049645753887
0.3007882518043098,1101.161488038826
0.31259590004822796,1017.9046667873375
0.324867065587837,940.4133572035746
0.3376199441111335,868.3515402048472
0.35087344559027084,801.3981035582009
0.36464722232127456,739.2337361350196
0.37896169806447155,681.5706274934374
0.3938380983288488,628.1090643051114
0.4092984818452433,578.5614374682607
0.4253657732750382,532.6677255026477
0.44206379720285277,490.1865279472182
0.45941731346364734,450.8874322390942
0.47745205385661277,414.5499503161741
0.4961947603002895,380.9690859409397
0.5156732244854959,349.95558288169605
0.5359163290848509,321.33632886674496
0.556954090580013,294.9348365183243
0.5788177037701272,270.6015444149505
0.6015395880274836,248.1823791753465
0.6251534353689703,227.5311958774961
0.6496942604146115,208.5160765658619
0.6751984523072497,191.01625767212744
0.7017038286703824,174.91925415206418
0.7292496916841444,160.12004891117152
0.7578768863625915,146.52068472889783
0.7876278611187046,134.02987386457605
0.8185467307069019,122.5625247836423
0.850679341636415,112.03919790358465
0.8840733401525058,102.38610071203283
0.9187782428863317,93.53480704022832
0.9548455102782278,85.42190695266052
0.9923286228832539,77.98867416067054
1.0312831606721837,71.1807111714613
1.0717668854455022,64.9476635419211
1.1138398264826193,59.24300212705048
1.1575643695533022,54.02375827779324
1.2030053494233226,49.25027171860591
1.2502301459914542,44.88595863819366
1.299308784200415,40.89711428635608
1.3503140378698726,37.25267846875161
1.4033215376054824,33.92402813773088
1.4584098829439835,30.884799808944592
1.5156607589006013,28.110723550967773
1.575159057091621,25.579455146667218
1.6369930016117014,23.270420618335685
1.7012542798525885,21.164714957954985
1.7680381784572046,19.244978470379174
1.8374437246107238,17.49527683542558
1.9095738328780953,15.900990041193428
1.9845354578058014,14.448712249489686
2.0624397525140905,13.126154378825508
2.143402233514853,11.922052367491547
2.227542951999554,10.826085598362365
2.314986671851158,9.82880150722485
2.405863054644063,8.9215443391809
2.5003068519063225,8.096385889632929
2.598458104929248,7.346073253152207
2.7004623524206774,6.663975798928266
2.806470846309834,6.044033678452876
2.916640776023701,5.480710414554478
3.031135501567576,4.96895005386958
3.150124795755327,4.504137126297659
3.2737850959485697,4.082058144963524
3.4022997656780634,3.698867652685171
3.5358593665351745,3.351057149678504
3.6746619407366854,3.035426397980346
3.8189133047818515,2.7490560008820846
3.968827354637162,2.48928440212474
4.1246263829013445,2.2536866913529625
4.286541408420921,2.0400541456131145
4.4548125188449825,1.8463754677710498
4.629689226627261,1.6708195962535302
4.811430839003257,1.511719960420543
5.000306842491082,1.367560089078364
5.196597302486189,1.2369604290769616
5.400593278542364,1.1186662836691896
5.612597255954967,1.0115367713709311
5.8329235942862,0.9145344403543536
6.06189899349756,0.8267161470355604
6.29986297838068,0.7472250619032516
6.547168402004727,0.6752829487284628
6.804181968927091,0.6101830958199538
7.071284778942991,0.5512839641107128
7.348872892180382,0.498003797100764
7.637357916378006,0.4498146539587428
7.937167617217536,0.4062372486848882
8.248746552614573,0.3668365728371356
8.572556731909314,0.33121789843899124
8.909078300934132,0.2990224660955153
9.258810253973934,0.26992368056741145
9.622271173675122,0.24362579757351513
9.999999999999984,0.21986122884428586
