k [1/Mpc],P(k) [Mpc^3]
0.0001,684.7968551252926
0.00010392556829367125,709.6223677640664
0.00010800523745162529,735.347565215651
0.00011224505680853065,762.0049721535198
0.00011665131316981963,789.6282897186934
0.00012123054013376525,818.2524658207508
0.00012598952777950273,847.9137182938194
0.00013093533273536104,878.6495525915509
0.00013607528864243335,910.4987992439452
0.00014141701702890234,943.5016869643605
0.00014696843861124463,977.6999147484371
0.00015273778503907136,1013.1366937101208
0.00015873361110102093,1049.8567911697426
0.00016496480740980205,1087.9065852212552
0.0001714406135851971,1127.3341179112722
0.00017817063195457305,1168.1890832097313
0.00018516484179121546,1210.522902493742
0.000192433614111598,1254.3888583574405
0.00019998772705352857,1299.8422244411208
0.0002078383818579757,1346.9402722531213
0.00021599721947827182,1395.7422388726604
0.0002244763378413224,1446.3093830599325
0.0002332883097864157,1498.7051459975921
0.00024244620170823283,1552.9952717693532
0.0002519635929317015,1609.2478603956781
0.0002618545958474233,1667.5334040531604
0.0002721338768375308,1727.9248478026711
0.0002828166780230032,1790.497710735916
0.0002939188398646886,1855.3301270106408
0.0003054568246515432,1922.5029575906026
0.00031744774091091926,1992.099870469306
0.00032990936877709396,2064.207370282906
0.00034286018635565856,2138.914971857333
0.00035631939712285854,2216.315313889193
0.000370306958400514,2296.504264894813
0.00038484361094874304,2379.5809826251007
0.0003999509097203664,2465.647861124039
0.00041565125582259895,2554.81077249423
0.00043196792973341727,2647.179217876308
0.0004489251258218605,2742.8664423718787
0.0004665479882234472,2841.989528759839
0.000484862648123908,2944.669288204825
0.000503896262506515,3051.030510254995
0.0005236770544204653,3161.202088868497
0.0005442343548300266,3275.317046381877
0.0005655986461065005,3393.5128078291564
0.0005878016072274912,3515.9313051292916
0.0006108761607505036,3642.7191281835617
0.0006348565216305217,3774.027499929623
0.0006597782479539537,3910.011982626789
0.0006856782936641739,4050.833023856306
0.0007125950633568407,4196.6560889101775
0.0007405684692262436,4347.651789867871
0.0007696399902471156,4503.9960511883655
0.0007998527336796708,4665.8699572078485
0.000831251498989063,4833.460091842644
0.0008638828442740447,5006.958325754434
0.000897795155303332,5186.561656736381
0.0009330387172620361,5372.47284927255
0.0009696657893145519,5564.900223782852
0.001007730682094461,5764.057951037061
0.0010472898382363582,5970.165944028743
0.0010884019160690055,6183.449337649917
0.0011311278765939214,6404.139293845251
0.001175531073878369,6632.47252875772
0.0012216773489967915,6868.6914830994265
0.0012696351276599736,7113.044469544569
0.0013194755216767058,7365.784476088427
0.0013712724343984,7627.170239741429
0.0014251026703029975,7897.465262516905
0.0014810460488806749,8176.937384661543
0.0015391855229902056,8465.859952302844
0.001599607301861487,8764.510763306185
0.0016624009789266115,9073.172651732919
0.0017276596646690358,9392.132292306154
0.0017954801246878305,9721.678577930094
0.0018659629231817451,10062.104532790645
0.001939212572065829,10413.705430845564
0.0020153376859417325,10776.779181888904
0.002094451143151469,11151.625816245805
0.002176670253153458,11538.54433450759
0.002262116930469025,11937.835152724445
0.002350917875457286,12349.798304295147
0.002443204762186487,12774.732895659126
0.0025391144336803463,13212.937181870711
0.002638789104828933,13664.703617690075
0.002742376573264949,14130.321424742353
0.0028500304385181063,14610.07461758316
0.0029619103297725525,15104.239731191798
0.0030781821425650787,15613.087459548926
0.003199018284775064,16136.876527457653
0.0033245979322709396,16675.855284973382
0.003455107294592217,17230.25999517908
0.0035907398910610534,17800.309311665518
0.0037316968377327513,18386.20793889483
0.0038781871456107214,18988.138076889903
0.0040304280305680515,19606.25933910548
0.00418864523543527,20240.710313886073
0.004353073364731888,20891.600495627914
0.00452395623253805,21559.014060594964
0.004701547224022131,22242.9982769377
0.004886109671160325,22943.55879658004
0.005077917243205399,23660.666805093784
0.005277254352483535,24394.247105196093
0.005484416576121017,25144.182283183785
0.005699711094326071,25910.294636618444
0.005923457145875801,26692.326982736853
0.006155986501483508,27489.970103713873
0.006397643955748424,28302.88517224248
0.0066487878384172625,29130.693813836137
0.0069097905457156435,29972.902979056304
0.007181039092537346,30828.79111472997
0.007462935686310132,31697.529922552105
0.007755898323389004,32578.28633402779
0.00806036140886134,33470.21901656114
0.008376776400682916,34372.368210417524
0.008705612479099857,35283.496298220125
0.009047357242349292,36202.20911346461
0.00940251742967013,37127.04748738248
0.009771619672696168,38056.50667140857
0.010155211276345676,38988.95856782308
0.010553861030365234,39922.48328221559
0.010968160052731372,40854.95759281461
0.011398722666160517,41784.078364472065
0.011846187309026826,42707.302852251596
0.012311217482038896,43621.93412044681
0.012794502732078732,44525.05994925068
0.013296759674662111,45413.57983414044
0.013818733056536317,46284.20659753291
0.014361196859990781,47133.334983472356
0.014924955450518284,47957.19288840425
0.015510844769528393,48751.76235386639
0.016119733573881575,49512.782995749556
0.01675252472408214,50235.862826138575
0.017410156523040152,50916.3289810167
0.018093604107387147,51549.390543814035
0.01880388089340914,52130.12186585022
0.019542040079740527,52653.42181310503
0.02030917620904734,53114.20717026402
0.021106426791015535,53507.31183630564
0.021934973989050584,53827.620700998224
0.02279604637318978,54070.18537946007
0.023690920741826323,54230.23139160692
0.02462092401494623,54303.293342632474
0.02558743520168586,54285.2864940912
0.02659188744512693,54172.571873600755
0.027635770147361564,53962.17743232136
0.028720631177978267,53652.31454178309
0.029848079169243254,53241.95207326488
0.03101978590138095,52730.64517524477
0.03223748878149028,52118.554988649266
0.0335029934197723,51407.22995287741
0.03481817630688963,50603.399389076534
0.03618498759642746,49715.918335904404
0.037605453996581675,48751.70883496746
0.03908168177536263,47714.005871161025
0.04061585988376978,46606.78884150095
0.04221026320156896,45442.26035648795
0.04386725591048496,44237.0002711338
0.0455892949998106,43006.26406021191
0.047378933909631396,41763.239390446426
0.049238826317067365,40520.097304876144
0.05117173007114603,39291.73910500569
0.05318051128214196,38094.19989413494
0.05526814857144601,36940.824647608955
0.057437737488265785,35842.078983464635
0.0596924950997073,34805.432789584
0.0620357647610427,33834.60577554473
0.06447102107323864,32929.996028689195
0.06700187503509585,32088.023150196615
0.06963207939763882,31301.070182914245
0.0723655342286965,30557.885659030275
0.07520629269592405,29842.857568896405
0.07815856707684081,29137.04870298919
0.08122673500479707,28418.00466639933
0.08441534596012978,27661.36136613549
0.0877291280161335,26843.694449009345
0.09117299484984914,25945.54604683189
0.09475205302806537,24955.401728433673
0.09847160957933764,23873.4880545089
0.1023371798632519,22711.70419853815
0.10635449574860109,21494.08439170367
0.11052951411260206,20255.054424206315
0.1148684256737553,19034.830244723897
0.1193776641714435,17878.745625789703
0.1240639159058831,16831.179713991354
0.12893412965257148,15918.8121376679
0.13399552696593373,15154.865580342457
0.1392556128874462,14532.039624631492
0.14472218707411338,14021.668948374805
0.15040335536380234,13577.433597117137
0.15630754179458153,13141.968459845833
0.16244350109588662,12657.569403614334
0.16882033167003618,12080.63631084445
0.17544748908334581,11396.140691298717
0.1823348000868439,10625.840031110472
0.189492477187382,9826.049721810292
0.19693113379074215,9072.582415947103
0.20466179993919872,8433.446141512102
0.21269593866686892,7941.040665842089
0.22104546299710207,7580.761665149288
0.22972275360711503,7296.069187542411
0.23874067718606454,7005.830977317875
0.2481126055137766,6640.856018905895
0.25785243528842716,6185.062532584945
0.26797460873256895,5683.755731351991
0.27849413500806414,5216.05310461022
0.28942661247167484,4847.089398242072
0.3007882518043098,4586.078586057138
0.31259590004822796,4380.927902861799
0.324867065587837,4153.618667052645
0.3376199441111335,3862.8105830167765
0.35087344559027084,3538.8999154538915
0.36464722232127456,3252.839209019
0.37896169806447155,3044.117680737852
0.3938380983288488,2883.0312448132263
0.4092984818452433,2707.9969830284103
0.4253657732750382,2497.023380434429
0.44206379720285277,2289.4426744267216
0.45941731346364734,2127.7216577445383
0.47745205385661277,1999.7493774210245
0.4961947603002895,1862.2143128911955
0.5156732244854959,1710.654266621322
0.5359163290848509,1578.357327056258
0.556954090580013,1472.684911577985
0.5788177037701272,1367.5996694258456
0.6015395880274836,1257.3056240906037
0.6251534353689703,1161.8292987136385
0.6496942604146115,1079.014518381206
0.6751984523072497,994.9178318896818
0.7017038286703824,916.3380789387151
0.7292496916841444,848.0251224221034
0.7578768863625915,781.6127364894477
0.7876278611187046,719.7074234247541
0.8185467307069019,664.2483447191723
0.850679341636415,612.5204481610842
0.8840733401525058,564.0367271759143
0.9187782428863317,518.8239851301919
0.9548455102782278,476.85656154788717
0.9923286228832539,438.0661787218871
1.0312831606721837,402.34709406067554
1.0717668854455022,369.5002524338673
1.1138398264826193,339.2748192064007
1.1575643695533022,311.4434579715426
1.2030053494233226,285.80194051702733
1.2502301459914542,262.1664950676583
1.299308784200415,240.3754860188756
1.3503140378698726,220.2971497596792
1.4033215376054824,201.8114109002222
1.4584098829439835,184.80474537292412
1.5156607589006013,169.17005892966546
1.575159057091621,154.80646943069095
1.6369930016117014,141.61738774175421
1.7012542798525885,129.510808762019
1.7680381784572046,118.40148208173869
1.8374437246107238,108.21056699903578
1.9095738328780953,98.86517539535573
1.9845354578058014,90.29802941122374
2.0624397525140905,82.44737913955566
2.143402233514853,75.25619527276939
2.227542951999554,68.67167709790053
2.314986671851158,62.64497122505982
2.405863054644063,57.130904650964965
2.5003068519063225,52.087672646640875
2.598458104929248,47.47659990231596
2.7004623524206774,43.26202465438367
2.806470846309834,39.41108757255446
2.916640776023701,35.89352556954428
3.031135501567576,32.681479937613496
3.150124795755327,29.749319932293268
3.2737850959485697,27.07347220684768
3.4022997656780634,24.632263417316196
3.5358593665351745,22.405775817101308
3.6746619407366854,20.375712932367904
3.8189133047818515,18.525271233079206
3.968827354637162,16.839022584313923
4.1246263829013445,15.302814473126983
4.286541408420921,13.903670389383523
4.4548125188449825,12.629696616071719
4.629689226627261,11.46999576676115
4.811430839003257,10.414585406551017
5.000306842491082,9.454325731790592
5.196597302486189,8.580852579353815
5.400593278542364,7.786514244987744
5.612597255954967,7.0643131628739555
5.8329235942862,6.407850672410069
6.06189899349756,5.811275931456378
6.29986297838068,5.269244391318605
6.547168402004727,4.7768760388080285
6.804181968927091,4.329716293891845
7.071284778942991,3.9237003924238456
7.348872892180382,3.555124494580558
7.637357916378006,3.2206123840833216
7.937167617217536,2.9170836063073193
8.248746552614573,2.6417284381281654
8.572556731909314,2.391984971370706
8.909078300934132,2.165513549889009
9.258810253973934,1.960169091279496
9.622271173675122,1.7739999892064453
9.999999999999984,1.6052342077862007
