k [1/Mpc],P(k) [Mpc^3]
0.0001,233.28436367615137
0.00010392556829367125,242.43452598850533
0.00010800523745162529,251.9429707623112
0.00011224505680853065,261.82365782968765
0.00011665131316981963,272.0910751099252
0.00012123054013376525,282.76026380604156
0.00012598952777950273,293.8468273350067
0.00013093533273536104,305.3669636949181
0.00013607528864243335,317.3374946744476
0.00014141701702890234,329.7758900915123
0.00014696843861124463,342.7002840173237
0.00015273778503907136,356.12947749330243
0.00015873361110102093,370.08297704970647
0.00016496480740980205,384.5810206438535
0.0001714406135851971,399.64459764993484
0.00017817063195457305,415.2954852397057
0.00018516484179121546,431.5562561375209
0.000192433614111598,448.45031516854084
0.00019998772705352857,466.00192898303106
0.0002078383818579757,484.236234490752
0.00021599721947827182,503.17929193423305
0.0002244763378413224,522.8580925911891
0.0002332883097864157,543.3005912465803
0.00024244620170823283,564.5357539326612
0.0002519635929317015,586.593561798993
0.0002618545958474233,609.5050678095096
0.0002721338768375308,633.302379579298
0.0002828166780230032,658.0186634305654
0.0002939188398646886,683.6882426582162
0.0003054568246515432,710.3465965323372
0.00031744774091091926,738.0304171656081
0.00032990936877709396,766.7776081828778
0.00034286018635565856,796.6272486871239
0.00035631939712285854,827.6197159620485
0.000370306958400514,859.79667752399
0.00038484361094874304,893.2011379867704
0.0003999509097203664,927.8774559683949
0.00041565125582259895,963.8712337055616
0.00043196792973341727,1001.2294751676646
0.0004489251258218605,1040.0005552857506
0.0004665479882234472,1080.234228782477
0.000484862648123908,1121.9817185461309
0.000503896262506515,1165.2955802241504
0.0005236770544204653,1210.229830989806
0.0005442343548300266,1256.8399193889854
0.0005655986461065005,1305.1826510736096
0.0005878016072274912,1355.3163307280709
0.0006108761607505036,1407.300517250455
0.0006348565216305217,1461.1961291045382
0.0006597782479539537,1517.0654963945358
0.0006856782936641739,1574.972179440276
0.0007125950633568407,1634.981140354033
0.0007405684692262436,1697.1583905240159
0.0007696399902471156,1761.5709748887268
0.0007998527336796708,1828.2870908762222
0.000831251498989063,1897.3755213541363
0.0008638828442740447,1968.9059928399965
0.000897795155303332,2042.9489160118098
0.0009330387172620361,2119.575144980994
0.0009696657893145519,2198.8561721489586
0.001007730682094461,2280.863134033863
0.0010472898382363582,2365.6671672077996
0.0010884019160690055,2453.339333023861
0.0011311278765939214,2543.9500291789323
0.001175531073878369,2637.569355447701
0.0012216773489967915,2734.266053220011
0.0012696351276599736,2834.1075141973097
0.0013194755216767058,2937.159880473874
0.0013712724343984,3043.4869998347617
0.0014251026703029975,3153.1509026825124
0.0014810460488806749,3266.210644366399
0.0015391855229902056,3382.7217964255497
0.001599607301861487,3502.7369506464197
0.0016624009789266115,3626.3043909045814
0.0017276596646690358,3753.468411510737
0.0017954801246878305,3884.2683088844196
0.0018659629231817451,4018.737175197876
0.001939212572065829,4156.902717288848
0.0020153376859417325,4298.785724471877
0.002094451143151469,4444.400078920547
0.002176670253153458,4593.751938003771
0.002262116930469025,4746.837461204164
0.002350917875457286,4903.644172482175
0.002443204762186487,5064.149449443196
0.0025391144336803463,5228.320036407275
0.002638789104828933,5396.111838352964
0.002742376573264949,5567.466879574811
0.0028500304385181063,5742.31467050844
0.0029619103297725525,5920.570154815117
0.0030781821425650787,6102.132151383188
0.003199018284775064,6286.884566624647
0.0033245979322709396,6474.6913165446485
0.003455107294592217,6665.398255607433
0.0035907398910610534,6858.832925975724
0.0037316968377327513,7054.801940499548
0.0038781871456107214,7253.092217151092
0.0040304280305680515,7453.456154791946
0.00418864523543527,7655.614698034667
0.004353073364731888,7859.276275974421
0.00452395623253805,8064.159971532267
0.004701547224022131,8269.970136096377
0.004886109671160325,8476.311116812714
0.005077917243205399,8682.675117960798
0.005277254352483535,8888.528705072738
0.005484416576121017,9093.370073096241
0.005699711094326071,9296.693290515173
0.005923457145875801,9497.963836376442
0.006155986501483508,9696.615580184196
0.006397643955748424,9892.050739664926
0.0066487878384172625,10083.564274979459
0.0069097905457156435,10270.379660384802
0.007181039092537346,10451.698202529327
0.007462935686310132,10626.708673227973
0.007755898323389004,10794.57817062525
0.00806036140886134,10954.36113528632
0.008376776400682916,11105.015214135747
0.008705612479099857,11245.477468158262
0.009047357242349292,11374.654655174752
0.00940251742967013,11491.447336608317
0.009771619672696168,11594.690496249308
0.010155211276345676,11683.139798205977
0.010553861030365234,11755.554327479435
0.010968160052731372,11810.607660713282
0.011398722666160517,11846.974640172852
0.011846187309026826,11863.331956624048
0.012311217482038896,11858.308768074528
0.012794502732078732,11830.617345975677
0.013296759674662111,11778.943432012966
0.013818733056536317,11702.031565066593
0.014361196859990781,11598.753019611486
0.014924955450518284,11467.993581431729
0.015510844769528393,11308.859323028126
0.016119733573881575,11120.593667025358
0.01675252472408214,10902.621027669695
0.017410156523040152,10654.705810423968
0.018093604107387147,10376.8092288463
0.01880388089340914,10069.294425767162
0.019542040079740527,9732.924367040012
0.02030917620904734,9368.834316320417
0.021106426791015535,8978.698541067099
0.021934973989050584,8564.673291769099
0.02279604637318978,8129.424279464699
0.023690920741826323,7676.16972477869
0.02462092401494623,7208.665603391316
0.02558743520168586,6731.05136027408
0.02659188744512693,6248.082342884051
0.027635770147361564,5764.817752350824
0.028720631177978267,5286.357289954424
0.029848079169243254,4818.22019974787
0.03101978590138095,4365.402452740738
0.03223748878149028,3933.1784165975737
0.0335029934197723,3526.768124091871
0.03481817630688963,3149.84852696502
0.03618498759642746,2805.463744278438
0.037605453996581675,2495.2654288076337
0.03908168177536263,2221.2971822834324
0.04061585988376978,1986.1841560467333
0.04221026320156896,1789.9993742325566
0.04386725591048496,1630.5192326560275
0.0455892949998106,1505.303136001009
0.047378933909631396,1412.5447866521076
0.049238826317067365,1350.3943593496829
0.05117173007114603,1315.7271513036949
0.05318051128214196,1305.3650850248255
0.05526814857144601,1315.3998975904037
0.057437737488265785,1340.8116980326458
0.0596924950997073,1375.1488380284313
0.0620357647610427,1410.4151057102836
0.06447102107323864,1437.4546910546594
0.06700187503509585,1446.6780896595346
0.06963207939763882,1429.4760583297814
0.0723655342286965,1379.4647557456788
0.07520629269592405,1294.0706940561938
0.07815856707684081,1175.6647857942087
0.08122673500479707,1032.2778379157576
0.08441534596012978,876.7187808626411
0.0877291280161335,723.8697349877663
0.09117299484984914,587.3643334583932
0.09475205302806537,476.9183719014961
0.09847160957933764,397.33878635699824
0.1023371798632519,349.26068270864994
0.10635449574860109,330.60212557883386
0.11052951411260206,337.487082270546
0.1148684256737553,363.8622173421634
0.1193776641714435,400.19931764515206
0.1240639159058831,432.6617354034439
0.12893412965257148,445.1227340407222
0.13399552696593373,425.7695322057268
0.1392556128874462,374.79101286210374
0.14472218707411338,305.1591253510411
0.15040335536380234,235.5716832694553
0.15630754179458153,182.02533399387835
0.16244350109588662,152.47568957503734
0.16882033167003618,146.7095485651503
0.17544748908334581,159.3055119617387
0.1823348000868439,179.69195170343838
0.189492477187382,191.87075736858912
0.19693113379074215,182.41881569531265
0.20466179993919872,152.18971494291787
0.21269593866686892,116.44956472658139
0.22104546299710207,91.2493567103154
0.22972275360711503,82.95412218864057
0.23874067718606454,88.61058191210215
0.2481126055137766,97.66848013949763
0.25785243528842716,96.68464365462845
0.26797460873256895,81.87155748123213
0.27849413500806414,63.76497417205298
0.28942661247167484,53.94971700201312
0.3007882518043098,54.335998065917636
0.31259590004822796,57.75867878583306
0.324867065587837,54.63994691596901
0.3376199441111335,45.03400762540882
0.35087344559027084,37.59842155771899
0.36464722232127456,36.43100288215306
0.37896169806447155,37.027337433948325
0.3938380983288488,33.55731120692184
0.4092984818452433,28.15922245538443
0.4253657732750382,25.818349040287675
0.44206379720285277,25.446784707459308
0.45941731346364734,23.173896187378944
0.47745205385661277,20.089395001362536
0.4961947603002895,18.799058371804723
0.5156732244854959,17.775386739706956
0.5359163290848509,15.818180022557947
0.556954090580013,14.183829493783191
0.5788177037701272,12.929619607557552
0.6015395880274836,11.916444742217006
0.6251534353689703,11.038290088482531
0.6496942604146115,10.215896452893356
0.6751984523072497,9.400040846147865
0.7017038286703824,8.600088767129293
0.7292496916841444,7.836507441200163
0.7578768863625915,7.1238591374670825
0.7876278611187046,6.471545167720483
0.8185467307069019,5.884644736519911
0.850679341636415,5.360495486202889
0.8840733401525058,4.889624818411683
0.9187782428863317,4.463776309719021
0.9548455102782278,4.076204459981976
0.9923286228832539,3.721401382336203
1.0312831606721837,3.3950655214968375
1.0717668854455022,3.0949966566924663
1.1138398264826193,2.819739419012213
1.1575643695533022,2.5678013911001143
1.2030053494233226,2.337676666640349
1.2502301459914542,2.1278684453592493
1.299308784200415,1.9368007521624893
1.3503140378698726,1.7627682460696579
1.4033215376054824,1.6042020452107832
1.4584098829439835,1.4596877278212175
1.5156607589006013,1.3279488966883999
1.575159057091621,1.2078354431977556
1.6369930016117014,1.0983395055132505
1.7012542798525885,0.9985601053716456
1.7680381784572046,0.9076681740773327
1.8374437246107238,0.824900970554061
1.9095738328780953,0.7495573206464196
1.9845354578058014,0.6809906883988237
2.0624397525140905,0.6186011229590862
2.143402233514853,0.5618395977831121
2.227542951999554,0.5102053377850664
2.314986671851158,0.46324161521599166
2.405863054644063,0.4205319716022534
2.5003068519063225,0.38169791011351933
2.598458104929248,0.3463951004285172
2.7004623524206774,0.3143090186066466
2.806470846309834,0.2851524033364885
2.916640776023701,0.25866297575463476
3.031135501567576,0.23460120947666502
3.150124795755327,0.21274799301117675
3.2737850959485697,0.19290348749597197
3.4022997656780634,0.17488566143411488
3.5358593665351745,0.15852872989954564
3.6746619407366854,0.14368173106087584
3.8189133047818515,0.13020735347047596
3.968827354637162,0.1179807363486552
4.1246263829013445,0.10688816372931327
4.286541408420921,0.09682607912244263
4.4548125188449825,0.08770020003174352
4.629689226627261,0.07942469172718533
4.811430839003257,0.07192133910905942
5.000306842491082,0.06511897000645385
5.196597302486189,0.05895288548533856
5.400593278542364,0.053364279863182214
5.612597255954967,0.04829971168398355
5.8329235942862,0.04371063459033846
6.06189899349756,0.03955296477821888
6.29986297838068,0.0357866492092779
6.547168402004727,0.0323752997382007
6.804181968927091,0.029285863423362722
7.071284778942991,0.026488322672579553
7.348872892180382,0.02395542868808397
7.637357916378006,0.021662445173745312
7.937167617217536,0.019586914428272463
8.248746552614573,0.017708451022089965
8.572556731909314,0.01600855386315811
8.909078300934132,0.014470414785240205
9.258810253973934,0.013078732759533324
9.622271173675122,0.011819639648523502
9.999999999999984,0.010680578305223598
