k [1/Mpc],P(k) [Mpc^3]
0.0001,4527.480856905403
0.00010392556829367125,4677.966672687037
0.00010800523745162529,4833.442254196895
0.00011224505680853065,4994.071864204429
0.00011665131316981963,5160.025151801223
0.00012123054013376525,5331.477013176738
0.00012598952777950273,5508.607294279381
0.00013093533273536104,5691.601496116237
0.00013607528864243335,5880.651460937645
0.00014141701702890234,6075.95554354263
0.00014696843861124463,6277.718244447862
0.00015273778503907136,6486.14957211954
0.00015873361110102093,6701.465885722427
0.00016496480740980205,6923.89045781177
0.0001714406135851971,7153.653729399957
0.00017817063195457305,7390.993274162495
0.00018516484179121546,7636.153364423096
0.000192433614111598,7889.385523217802
0.00019998772705352857,8150.948949157424
0.0002078383818579757,8421.110675545102
0.00021599721947827182,8700.145750941365
0.0002244763378413224,8988.336120746973
0.0002332883097864157,9285.971191945131
0.00024244620170823283,9593.349043835638
0.0002519635929317015,9910.77705838998
0.0002618545958474233,10238.5716745112
0.0002721338768375308,10577.056646183899
0.0002828166780230032,10926.563068665093
0.0002939188398646886,11287.431161752982
0.0003054568246515432,11660.01044600082
0.00031744774091091926,12044.659986162536
0.00032990936877709396,12441.74726655123
0.00034286018635565856,12851.64755201123
0.00035631939712285854,13274.745472374738
0.000370306958400514,13711.43371988933
0.00038484361094874304,14162.113909942369
0.0003999509097203664,14627.196930003069
0.00041565125582259895,15107.10229518006
0.00043196792973341727,15602.258969085537
0.0004489251258218605,16113.102609480742
0.0004665479882234472,16640.076067137834
0.000484862648123908,17183.63072400146
0.000503896262506515,17744.224543647728
0.0005236770544204653,18322.323715901515
0.0005442343548300266,18918.40109332236
0.0005655986461065005,19532.9355927177
0.0005878016072274912,20166.41335113913
0.0006108761607505036,20819.324254368512
0.0006348565216305217,21492.16379451741
0.0006597782479539537,22185.43053130839
0.0006856782936641739,22899.622781746068
0.0007125950633568407,23635.24266118801
0.0007405684692262436,24392.79227242789
0.0007696399902471156,25172.77458173574
0.0007998527336796708,25975.691624732226
0.000831251498989063,26802.03793192518
0.0008638828442740447,27652.30568010254
0.000897795155303332,28526.976153222993
0.0009330387172620361,29426.51904813178
0.0009696657893145519,30351.39558135561
0.001007730682094461,31302.048154634063
0.0010472898382363582,32278.906259296135
0.0010884019160690055,33282.38052904443
0.0011311278765939214,34312.858126915875
0.001175531073878369,35370.70681500442
0.0012216773489967915,36456.259705300894
0.0012696351276599736,37569.82083080208
0.0013194755216767058,38711.66204018265
0.0013712724343984,39882.01300710397
0.0014251026703029975,41081.06840776087
0.0014810460488806749,42308.970638242856
0.0015391855229902056,43565.81146296045
0.001599607301861487,44851.633221858436
0.0016624009789266115,46166.412429971526
0.0017276596646690358,47510.06961100809
0.0017954801246878305,48882.45437680221
0.0018659629231817451,50283.340785543514
0.001939212572065829,51712.43233252139
0.0020153376859417325,53169.33797522436
0.002094451143151469,54653.58368808546
0.002176670253153458,56164.60311863106
0.002262116930469025,57701.726142801796
0.002350917875457286,59264.18846621785
0.002443204762186487,60851.104381261765
0.0025391144336803463,62461.47511047416
0.002638789104828933,64094.181177816165
0.002742376573264949,65747.95555666607
0.0028500304385181063,67421.40814849231
0.0029619103297725525,69112.99361317023
0.0030781821425650787,70821.01458779503
0.003199018284775064,72543.62534364514
0.0033245979322709396,74278.77974899703
0.003455107294592217,76024.27498336497
0.0035907398910610534,77777.73552969306
0.0037316968377327513,79536.6061720308
0.0038781871456107214,81298.14082517564
0.0040304280305680515,83059.20255969177
0.00418864523543527,84816.40083735292
0.004353073364731888,86566.37961997239
0.00452395623253805,88305.98829066142
0.004701547224022131,90031.85874684578
0.004886109671160325,91739.19836767131
0.005077917243205399,93422.26797358708
0.005277254352483535,95075.51087058823
0.005484416576121017,96694.34264785654
0.005699711094326071,98274.19821581601
0.005923457145875801,99809.28403255317
0.006155986501483508,101292.68656478259
0.006397643955748424,102717.47578960187
0.0066487878384172625,104077.3775826832
0.0069097905457156435,105366.24862995582
0.007181039092537346,106577.06870731404
0.007462935686310132,107701.68288526041
0.007755898323389004,108731.7391634656
0.00806036140886134,109658.1796246794
0.008376776400682916,110471.70929137095
0.008705612479099857,111162.88952407651
0.009047357242349292,111721.9385179787
0.00940251742967013,112139.21058722344
0.009771619672696168,112404.26392700947
0.010155211276345676,112506.39325550578
0.010553861030365234,112435.0016277385
0.010968160052731372,112178.67671482044
0.011398722666160517,111726.6134205681
0.011846187309026826,111067.73045956952
0.012311217482038896,110190.9532492982
0.012794502732078732,109086.31775017575
0.013296759674662111,107743.26048269973
0.013818733056536317,106152.76025866081
0.014361196859990781,104306.65538344982
0.014924955450518284,102197.23779629736
0.015510844769528393,99819.78642782354
0.016119733573881575,97169.96643664895
0.01675252472408214,94246.45390308027
0.017410156523040152,91051.16747366711
0.018093604107387147,87587.40349374576
0.01880388089340914,83864.21951545423
0.019542040079740527,79893.01847001004
0.02030917620904734,75689.80585441507
0.021106426791015535,71277.10443583474
0.021934973989050584,66679.68930352724
0.02279604637318978,61930.429304169396
0.023690920741826323,57066.136474610874
0.02462092401494623,52127.77566419403
0.02558743520168586,47164.3492372084
0.02659188744512693,42225.68542883096
0.027635770147361564,37367.55025677736
0.028720631177978267,32646.569444591016
0.029848079169243254,28116.450850072746
0.03101978590138095,23834.111909533643
0.03223748878149028,19852.193532172867
0.0335029934197723,16218.066868566177
0.03481817630688963,12966.568167295496
0.03618498759642746,10114.063594394755
0.037605453996581675,7672.062027542339
0.03908168177536263,5647.753396029329
0.04061585988376978,4029.301692741395
0.04221026320156896,2784.019503064921
0.04386725591048496,1863.3674413996844
0.0455892949998106,1214.9195809814557
0.047378933909631396,782.9505503920998
0.049238826317067365,514.4708269998332
0.05117173007114603,363.1885870937837
0.05318051128214196,293.05655309482324
0.05526814857144601,285.7392745920705
0.057437737488265785,334.34226016948514
0.0596924950997073,447.99715465868
0.0620357647610427,638.5673451332614
0.06447102107323864,916.1440233229445
0.06700187503509585,1276.8140530349199
0.06963207939763882,1695.9921140835868
0.0723655342286965,2125.874230822064
0.07520629269592405,2499.8726553489782
0.07815856707684081,2744.3169726816454
0.08122673500479707,2797.600103994339
0.08441534596012978,2630.005542782492
0.0877291280161335,2259.0042720073534
0.09117299484984914,1750.4921927430269
0.09475205302806537,1202.3717624670585
0.09847160957933764,714.3326560509947
0.1023371798632519,355.3178299971266
0.10635449574860109,143.40997010295
0.11052951411260206,48.24177424803951
0.1148684256737553,19.478290184346193
0.1193776641714435,21.836106771623143
0.1240639159058831,56.784376123959014
0.12893412965257148,151.81615453656025
0.13399552696593373,318.23005203350897
0.1392556128874462,512.9330998352194
0.14472218707411338,647.7338701202909
0.15040335536380234,643.9897742348267
0.15630754179458153,495.1796637992487
0.16244350109588662,283.38171861080866
0.16882033167003618,114.26272100324002
0.17544748908334581,32.20257187926211
0.1823348000868439,11.303120644124817
0.189492477187382,19.062671077446208
0.19693113379074215,63.293372888149534
0.20466179993919872,149.53944993978877
0.21269593866686892,222.31877726128738
0.22104546299710207,209.90779540747698
0.22972275360711503,123.78370415488376
0.23874067718606454,44.50674879583352
0.2481126055137766,13.70997622202929
0.25785243528842716,14.557503876297858
0.26797460873256895,41.56194569960555
0.27849413500806414,83.84842783660781
0.28942661247167484,90.48790995953013
0.3007882518043098,51.36827417179107
0.31259590004822796,18.068279338109342
0.324867065587837,11.315130850650329
0.3376199441111335,23.90300077483984
0.35087344559027084,43.14087891562361
0.36464722232127456,37.73169919123475
0.37896169806447155,17.22166533925417
0.3938380983288488,9.820635536807966
0.4092984818452433,16.23336107775863
0.4253657732750382,23.886210379477394
0.44206379720285277,16.715002625892406
0.45941731346364734,8.735595633558198
0.47745205385661277,10.158123525583537
0.4961947603002895,14.042326307374738
0.5156732244854959,10.176792525106027
0.5359163290848509,6.993403704185724
0.556954090580013,7.552493151312676
0.5788177037701272,7.319298009032195
0.6015395880274836,6.4948773608973305
0.6251534353689703,5.618747086747464
0.6496942604146115,4.969312897874289
0.6751984523072497,4.4977749153020135
0.7017038286703824,4.1340524548415685
0.7292496916841444,3.8288073341772235
0.7578768863625915,3.5456240463770627
0.7876278611187046,3.2580718454085322
0.8185467307069019,2.962101153727475
0.850679341636415,2.6713874215871685
0.8840733401525058,2.396819175331757
0.9187782428863317,2.1456491353865523
0.9548455102782278,1.9220771790804476
0.9923286228832539,1.727423157974753
1.0312831606721837,1.5577831833097024
1.0717668854455022,1.4081929214331326
1.1138398264826193,1.2747582513627567
1.1575643695533022,1.1544302359910898
1.2030053494233226,1.0448299285141414
1.2502301459914542,0.9444087108128654
1.299308784200415,0.8526592961377886
1.3503140378698726,0.769163531829202
1.4033215376054824,0.693451168521376
1.4584098829439835,0.6250195022536084
1.5156607589006013,0.5633461948682286
1.575159057091621,0.5078230359958315
1.6369930016117014,0.45780301914648414
1.7012542798525885,0.41270941530207067
1.7680381784572046,0.3720315890001463
1.8374437246107238,0.33531672868358803
1.9095738328780953,0.3021652461223989
1.9845354578058014,0.2722368604938393
2.0624397525140905,0.24522929801655083
2.143402233514853,0.22086694186142716
2.227542951999554,0.1988986983548199
2.314986671851158,0.1790960215002825
2.405863054644063,0.16124985787239463
2.5003068519063225,0.14516795888736056
2.598458104929248,0.13067654823416916
2.7004623524206774,0.11761898232633951
2.806470846309834,0.10585405171105233
2.916640776023701,0.09525447544067028
3.031135501567576,0.08570593573353448
3.150124795755327,0.07710560494669355
3.2737850959485697,0.06936055357425873
3.4022997656780634,0.062386801901310365
3.5358593665351745,0.05610847740552775
3.6746619407366854,0.05045701664638693
3.8189133047818515,0.04537033706610875
3.968827354637162,0.040792392538586776
4.1246263829013445,0.03667266468586616
4.286541408420921,0.03296562058258982
4.4548125188449825,0.029630223508158117
4.629689226627261,0.026629523261442262
4.811430839003257,0.02393027581706057
5.000306842491082,0.021502505826634464
5.196597302486189,0.019319180894730628
5.400593278542364,0.017355927107144634
5.612597255954967,0.015590770219510657
5.8329235942862,0.014003882985342078
6.06189899349756,0.012577387677973182
6.29986297838068,0.011295186277084781
6.547168402004727,0.010142785168255739
6.804181968927091,0.009107136358103205
7.071284778942991,0.008176496158205282
7.348872892180382,0.007340302532080035
7.637357916378006,0.006589048859036894
7.937167617217536,0.005914176236012006
8.248746552614573,0.005307980053541461
8.572556731909314,0.00476352560535353
8.909078300934132,0.004274565378140732
9.258810253973934,0.003835467996618919
9.622271173675122,0.0034411709518633723
9.999999999999984,0.0030871246420249784
