k [1/Mpc],P(k) [Mpc^3]
0.0001,251.92272243252117
0.00010392556829367125,261.0555482899282
0.00010800523745162529,270.51932965518216
0.00011224505680853065,280.32602720516746
0.00011665131316981963,290.48803654632354
0.00012123054013376525,301.01823215060887
0.00012598952777950273,311.929967312875
0.00013093533273536104,323.2370555590854
0.00013607528864243335,334.9537641097005
0.00014141701702890234,347.09486925275763
0.00014696843861124463,359.675706945331
0.00015273778503907136,372.712183893962
0.00015873361110102093,386.2207745464326
0.00016496480740980205,400.2185270635915
0.0001714406135851971,414.7230982554279
0.00017817063195457305,429.7527754708279
0.00018516484179121546,445.32649881510514
0.000192433614111598,461.4638862734856
0.00019998772705352857,478.18525469780514
0.0002078383818579757,495.51164677293093
0.00021599721947827182,513.464852588847
0.0002244763378413224,532.0674327776238
0.0002332883097864157,551.3427508569132
0.00024244620170823283,571.314991715378
0.0002519635929317015,592.0091949392773
0.0002618545958474233,613.451285842392
0.0002721338768375308,635.668100084845
0.0002828166780230032,658.6874210617228
0.0002939188398646886,682.5379862465196
0.0003054568246515432,707.2495227590401
0.00031744774091091926,732.8527962336639
0.00032990936877709396,759.3796283206717
0.00034286018635565856,786.862948549702
0.00035631939712285854,815.3368562503042
0.000370306958400514,844.8366675966494
0.00038484361094874304,875.3989137264965
0.0003999509097203664,907.061244730299
0.00041565125582259895,939.8625409557505
0.00043196792973341727,973.8430335827509
0.0004489251258218605,1009.0443735876737
0.0004665479882234472,1045.5096375729308
0.000484862648123908,1083.2833022126151
0.000503896262506515,1122.411305053818
0.0005236770544204653,1162.9411033995218
0.0005442343548300266,1204.9216487691808
0.0005655986461065005,1248.403500350652
0.0005878016072274912,1293.4388263895275
0.0006108761607505036,1340.0814407948878
0.0006348565216305217,1388.3869024987953
0.0006597782479539537,1438.4125130679874
0.0006856782936641739,1490.2174032133946
0.0007125950633568407,1543.862514764158
0.0007405684692262436,1599.4105780184625
0.0007696399902471156,1656.9262711636857
0.0007998527336796708,1716.476158891899
0.000831251498989063,1778.1287873991105
0.0008638828442740447,1841.9547367320063
0.000897795155303332,1908.0265467161094
0.0009330387172620361,1976.418886341477
0.0009696657893145519,2047.2084068127153
0.001007730682094461,2120.473783725069
0.0010472898382363582,2196.2958828482606
0.0010884019160690055,2274.757598200559
0.0011311278765939214,2355.9440424797813
0.001175531073878369,2439.9423362225893
0.0012216773489967915,2526.8414692261726
0.0012696351276599736,2616.7326415322964
0.0013194755216767058,2709.708946285026
0.0013712724343984,2805.86555990649
0.0014251026703029975,2905.29962116522
0.0014810460488806749,3008.1098105512547
0.0015391855229902056,3114.39682494237
0.001599607301861487,3224.262833650564
0.0016624009789266115,3337.8115438508767
0.0017276596646690358,3455.1483563946776
0.0017954801246878305,3576.3796411807866
0.0018659629231817451,3701.6132578293227
0.001939212572065829,3830.9580699640733
0.0020153376859417325,3964.5236791907873
0.002094451143151469,4102.420707189763
0.002176670253153458,4244.759380454707
0.002262116930469025,4391.650168861737
0.002350917875457286,4543.203535177143
0.002443204762186487,4699.529125929716
0.0025391144336803463,4860.736431830818
0.002638789104828933,5026.933586747653
0.002742376573264949,5198.227456824785
0.0028500304385181063,5374.723221337988
0.0029619103297725525,5556.522266565066
0.0030781821425650787,5743.723630023301
0.003199018284775064,5936.42299712569
0.0033245979322709396,6134.712226379398
0.003455107294592217,6338.679330476305
0.0035907398910610534,6548.405458503255
0.0037316968377327513,6763.966235599852
0.0038781871456107214,6985.430400803512
0.0040304280305680515,7212.858056636808
0.00418864523543527,7446.301963723527
0.004353073364731888,7685.803507010138
0.00452395623253805,7931.393561767928
0.004701547224022131,8183.091860031356
0.004886109671160325,8440.903254465069
0.005077917243205399,8704.820212164674
0.005277254352483535,8974.818312836354
0.005484416576121017,9250.855737053686
0.005699711094326071,9532.872964033819
0.005923457145875801,9820.782647713193
0.006155986501483508,10114.476344029663
0.006397643955748424,10413.830882346243
0.0066487878384172625,10718.70945505573
0.0069097905457156435,11028.947959636098
0.007181039092537346,11344.304532004708
0.007462935686310132,11664.48449598081
0.007755898323389004,11989.179216078506
0.00806036140886134,12318.08694377639
0.008376776400682916,12650.878158191146
0.008705612479099857,12987.13521773683
0.009047357242349292,13326.363840254053
0.00940251742967013,13668.038481049742
0.009771619672696168,14011.626337969044
0.010155211276345676,14356.563149617321
0.010553861030365234,14702.199854824681
0.010968160052731372,15047.793738433063
0.011398722666160517,15392.547858929436
0.011846187309026826,15735.581160339714
0.012311217482038896,16075.951482144306
0.012794502732078732,16412.656371549623
0.013296759674662111,16744.62416385566
0.013818733056536317,17070.73070610489
0.014361196859990781,17389.75345999537
0.014924955450518284,17700.39543620112
0.015510844769528393,18001.300239373137
0.016119733573881575,18291.021387515095
0.01675252472408214,18568.069427511266
0.017410156523040152,18830.887260287447
0.018093604107387147,19077.86075328073
0.01880388089340914,19307.35435940768
0.019542040079740527,19517.68363449177
0.02030917620904734,19707.161490293296
0.021106426791015535,19874.109122758593
0.021934973989050584,20016.863028655618
0.02279604637318978,20133.815984909896
0.023690920741826323,20223.45456229311
0.02462092401494623,20284.365402296244
0.02558743520168586,20315.27510954511
0.02659188744512693,20315.108783919786
0.027635770147361564,20282.95766759151
0.028720631177978267,20218.300172242576
0.029848079169243254,20120.95213046142
0.03101978590138095,19990.93348441489
0.03223748878149028,19828.557726624345
0.0335029934197723,19634.365116124467
0.03481817630688963,19410.048806305454
0.03618498759642746,19158.566913532915
0.037605453996581675,18882.79644769185
0.03908168177536263,18584.5630581749
0.04061585988376978,18265.33774607299
0.04221026320156896,17927.729858173687
0.04386725591048496,17576.30976477299
0.0455892949998106,17215.65131898998
0.047378933909631396,16850.269499057158
0.049238826317067365,16484.49939830233
0.05117173007114603,16122.40392681155
0.05318051128214196,15767.842416963074
0.05526814857144601,15424.076032243036
0.057437737488265785,15092.766868426876
0.0596924950997073,14774.76411358232
0.0620357647610427,14469.203300891819
0.06447102107323864,14174.344399142257
0.06700187503509585,13887.007763940275
0.06963207939763882,13603.20751405099
0.0723655342286965,13317.743249943638
0.07520629269592405,13024.692629534073
0.07815856707684081,12717.538128513184
0.08122673500479707,12389.501375803253
0.08441534596012978,12034.544086060008
0.0877291280161335,11648.324938604184
0.09117299484984914,11229.628437252146
0.09475205302806537,10781.127116899323
0.09847160957933764,10309.868885163158
0.1023371798632519,9826.254078313194
0.10635449574860109,9343.315475960384
0.11052951411260206,8874.748820080224
0.1148684256737553,8433.924973869465
0.1193776641714435,8032.953272441825
0.1240639159058831,7679.823164868698
0.12893412965257148,7374.194598723321
0.13399552696593373,7108.149065629717
0.1392556128874462,6867.699623870409
0.14472218707411338,6634.4191482486785
0.15040335536380234,6389.720084548364
0.15630754179458153,6119.144482813757
0.16244350109588662,5816.450521812247
0.16882033167003618,5486.2413264741435
0.17544748908334581,5143.510441061256
0.1823348000868439,4809.866294670771
0.189492477187382,4507.600154714001
0.19693113379074215,4252.008813840829
0.20466179993919872,4044.050400941279
0.21269593866686892,3868.844087555257
0.22104546299710207,3702.3242503356787
0.22972275360711503,3521.091077624927
0.23874067718606454,3313.16454403582
0.2481126055137766,3086.8228358297392
0.25785243528842716,2865.8760237153883
0.26797460873256895,2673.5272602455348
0.27849413500806414,2518.6590917644353
0.28942661247167484,2389.9778131308217
0.3007882518043098,2264.219757738247
0.31259590004822796,2124.2157795431863
0.324867065587837,1972.5750681121006
0.3376199441111335,1827.9381879528155
0.35087344559027084,1706.186412205604
0.36464722232127456,1605.8764455030996
0.37896169806447155,1510.1600809117635
0.3938380983288488,1406.8130872179158
0.4092984818452433,1301.9477603309251
0.4253657732750382,1209.600248928111
0.44206379720285277,1131.4583136851522
0.45941731346364734,1056.9249076732935
0.47745205385661277,980.1148597845665
0.4961947603002895,907.2445195670797
0.5156732244854959,843.9068483806892
0.5359163290848509,785.4468827867476
0.556954090580013,727.2599913059599
0.5788177037701272,672.9851459497675
0.6015395880274836,624.4336431557755
0.6251534353689703,578.4252284862794
0.6496942604146115,534.5063114922211
0.6751984523072497,494.5929268503214
0.7017038286703824,457.3521909461778
0.7292496916841444,422.25585992136587
0.7578768863625915,390.00773058293845
0.7876278611187046,359.9564742602499
0.8185467307069019,332.00415238964257
0.850679341636415,306.0845204979692
0.8840733401525058,282.06022876495354
0.9187782428863317,259.80365075831565
0.9548455102782278,239.19488080898034
0.9923286228832539,220.1213028308489
1.0312831606721837,202.47721486776263
1.0717668854455022,186.16384693245428
1.1138398264826193,171.08962255681539
1.1575643695533022,157.16857806446853
1.2030053494233226,144.31986286084904
1.2502301459914542,132.46752249935665
1.299308784200415,121.54026518220178
1.3503140378698726,111.47100656616583
1.4033215376054824,102.1968010507468
1.4584098829439835,93.65887739813816
1.5156607589006013,85.80241124543689
1.575159057091621,78.5762986114292
1.6369930016117014,71.93294659644478
1.7012542798525885,65.82807955952298
1.7680381784572046,60.22051262527066
1.8374437246107238,55.071957810708604
1.9095738328780953,50.346845610628385
1.9845354578058014,46.01215365785499
2.0624397525140905,42.037222578392175
2.143402233514853,38.39361531642488
2.227542951999554,35.05499610838271
2.314986671851158,31.996990575605036
2.405863054644063,29.197052891369978
2.5003068519063225,26.63433710070803
2.598458104929248,24.289572340207805
2.7004623524206774,22.144965367687885
2.806470846309834,20.18409880601355
2.916640776023701,18.391832486260252
3.031135501567576,16.75421105260064
3.150124795755327,15.2583767127169
3.2737850959485697,13.892489000579145
3.4022997656780634,12.645650445466135
3.5358593665351745,11.50783619068818
3.6746619407366854,10.469828358857892
3.8189133047818515,9.523153403231067
3.968827354637162,8.66002187231916
4.1246263829013445,7.873281589105014
4.286541408420921,7.1563696090411915
4.4548125188449825,6.503266033450348
4.629689226627261,5.908451217392159
4.811430839003257,5.366866324964076
5.000306842491082,4.873876540641918
5.196597302486189,4.4252368824015775
5.400593278542364,4.0170608339775775
5.612597255954967,3.6457913650810916
5.8329235942862,3.3081734022783924
6.06189899349756,3.0012272620908975
6.29986297838068,2.722229066424157
6.547168402004727,2.468690359325705
6.804181968927091,2.2383384175190235
7.071284778942991,2.029098245004695
7.348872892180382,1.839078235972074
7.637357916378006,1.66655390100982
7.937167617217536,1.5099508525610865
8.248746552614573,1.3678321390183725
8.572556731909314,1.2388867227297806
8.909078300934132,1.1219169372807343
9.258810253973934,1.0158235094479133
9.622271173675122,0.9196052758008528
9.999999999999984,0.8323528644812854
