k [1/Mpc],P(k) [Mpc^3]
0.0001,208.25434291992258
0.00010392556829367125,216.42619899040466
0.00010800523745162529,224.91845419963613
0.00011224505680853065,233.74362882621827
0.00011665131316981963,242.91472933296527
0.00012123054013376525,252.4452699532836
0.00012598952777950273,262.34929092797364
0.00013093533273536104,272.6413806548398
0.00013607528864243335,283.3366996729872
0.00014141701702890234,294.4509959812699
0.00014696843861124463,306.0005993824469
0.00015273778503907136,318.00245097062503
0.00015873361110102093,330.47415042741767
0.00016496480740980205,343.4339977834112
0.0001714406135851971,356.9010037228025
0.00017817063195457305,370.8948960919408
0.00018516484179121546,385.4361442117189
0.000192433614111598,400.5459990043878
0.00019998772705352857,416.2465079387664
0.0002078383818579757,432.5605544962091
0.00021599721947827182,449.511887411971
0.0002244763378413224,467.12514635432893
0.0002332883097864157,485.4259034452916
0.00024244620170823283,504.44067989102524
0.0002519635929317015,524.196986939939
0.0002618545958474233,544.7233617481255
0.0002721338768375308,566.0493821586751
0.0002828166780230032,588.2057257711651
0.0002939188398646886,611.2241850012468
0.0003054568246515432,635.1377041091804
0.00031744774091091926,659.9804379751462
0.00032990936877709396,685.7877644108382
0.00034286018635565856,712.596347378147
0.00035631939712285854,740.4441442493674
0.000370306958400514,769.3704157559398
0.00038484361094874304,799.4158256679477
0.0003999509097203664,830.6224462395389
0.00041565125582259895,863.0338222379297
0.00043196792973341727,896.6950111826983
0.0004489251258218605,931.6525743960993
0.0004665479882234472,967.9546802576733
0.000484862648123908,1005.6510556298128
0.000503896262506515,1044.7930318403214
0.0005236770544204653,1085.4336614643378
0.0005442343548300266,1127.627700328619
0.0005655986461065005,1171.431705744345
0.0005878016072274912,1216.9040100187665
0.0006108761607505036,1264.1047102972657
0.0006348565216305217,1313.0958046315882
0.0006597782479539537,1363.94104465171
0.0006856782936641739,1416.706065242925
0.0007125950633568407,1471.4584559189723
0.0007405684692262436,1528.2676939888393
0.0007696399902471156,1587.205291143004
0.0007998527336796708,1648.3445784491892
0.000831251498989063,1711.7607544329476
0.0008638828442740447,1777.5310489328401
0.000897795155303332,1845.7345302681226
0.0009330387172620361,1916.4522902112924
0.0009696657893145519,1989.7670502569033
0.001007730682094461,2065.762941242271
0.0010472898382363582,2144.525978156999
0.0010884019160690055,2226.1437792554875
0.0011311278765939214,2310.7057004981
0.001175531073878369,2398.302555383291
0.0012216773489967915,2489.0260425515326
0.0012696351276599736,2582.969299211054
0.0013194755216767058,2680.2261973054838
0.0013712724343984,2780.8913650898685
0.0014251026703029975,2885.060407899548
0.0014810460488806749,2992.829225887496
0.0015391855229902056,3104.294360598994
0.001599607301861487,3219.552087278355
0.0016624009789266115,3338.6979196662805
0.0017276596646690358,3461.8272059053807
0.0017954801246878305,3589.0338933778958
0.0018659629231817451,3720.4108911893054
0.001939212572065829,3856.0496081152223
0.0020153376859417325,3996.0389066607004
0.002094451143151469,4140.465728131513
0.002176670253153458,4289.413365656472
0.002262116930469025,4442.961433914373
0.002350917875457286,4601.185933237049
0.002443204762186487,4764.157439904601
0.0025391144336803463,4931.941885123154
0.002638789104828933,5104.598646838778
0.002742376573264949,5282.179598811832
0.0028500304385181063,5464.729918476693
0.0029619103297725525,5652.285483781464
0.0030781821425650787,5844.873549728542
0.003199018284775064,6042.511132630736
0.0033245979322709396,6245.2025860195
0.003455107294592217,6452.941210513668
0.0035907398910610534,6665.7050037078625
0.0037316968377327513,6883.4570027927775
0.0038781871456107214,7106.144827951097
0.0040304280305680515,7333.695442494904
0.00418864523543527,7566.018535750783
0.004353073364731888,7803.002939310536
0.00452395623253805,8044.515257586628
0.004701547224022131,8290.399249535636
0.004886109671160325,8540.460124303801
0.005077917243205399,8794.473700239843
0.005277254352483535,9052.198809399975
0.005484416576121017,9313.38282940061
0.005699711094326071,9577.74302072485
0.005923457145875801,9844.896796927453
0.006155986501483508,10114.385108728105
0.006397643955748424,10385.719792603257
0.0066487878384172625,10658.402911903862
0.0069097905457156435,10931.905704792425
0.007181039092537346,11205.654400711224
0.007462935686310132,11479.030242145342
0.007755898323389004,11751.36318597273
0.00806036140886134,12021.871925514337
0.008376776400682916,12289.71019176002
0.008705612479099857,12553.961017108886
0.009047357242349292,12813.621475962107
0.00940251742967013,13067.636016149954
0.009771619672696168,13314.850539118048
0.010155211276345676,13554.04122793944
0.010553861030365234,13783.914450828624
0.010968160052731372,14003.058683093035
0.011398722666160517,14210.015331251952
0.011846187309026826,14403.208634675873
0.012311217482038896,14580.966452072651
0.012794502732078732,14741.576646553818
0.013296759674662111,14883.189324877192
0.013818733056536317,15003.93455116316
0.014361196859990781,15101.872089257586
0.014924955450518284,15174.969405071328
0.015510844769528393,15221.242334065078
0.016119733573881575,15238.610376659295
0.01675252472408214,15225.04277918971
0.017410156523040152,15178.584649499871
0.018093604107387147,15097.258710132308
0.01880388089340914,14979.315901097165
0.019542040079740527,14823.096330116887
0.02030917620904734,14627.144965361638
0.021106426791015535,14390.369362461475
0.021934973989050584,14111.871434535376
0.02279604637318978,13791.25042628198
0.023690920741826323,13428.568596878687
0.02462092401494623,13024.370655154147
0.02558743520168586,12579.898323336385
0.02659188744512693,12096.950306730136
0.027635770147361564,11578.037357363888
0.028720631177978267,11026.538135866751
0.029848079169243254,10446.715627144931
0.03101978590138095,9843.476942652193
0.03223748878149028,9222.221560127544
0.0335029934197723,8588.745496746104
0.03481817630688963,7949.805026062199
0.03618498759642746,7314.277481951057
0.037605453996581675,6690.483571276654
0.03908168177536263,6084.777873933589
0.04061585988376978,5501.765276429285
0.04221026320156896,4946.563963540757
0.04386725591048496,4427.91369813332
0.0455892949998106,3952.5592132256124
0.047378933909631396,3524.7604724309945
0.049238826317067365,3146.3967903113135
0.05117173007114603,2818.3917101303014
0.05318051128214196,2540.4959358091237
0.05526814857144601,2311.2393786283174
0.057437737488265785,2128.4268932351847
0.0596924950997073,1989.1736827258876
0.0620357647610427,1890.2816021694068
0.06447102107323864,1827.9485704664917
0.06700187503509585,1797.3622005389361
0.06963207939763882,1792.8209362555788
0.0723655342286965,1807.2687018071422
0.07520629269592405,1831.548270342188
0.07815856707684081,1854.7166043899213
0.08122673500479707,1864.9834711744377
0.08441534596012978,1851.0459921199727
0.0877291280161335,1803.539888325735
0.09117299484984914,1716.6372075994582
0.09475205302806537,1589.6301583899917
0.09847160957933764,1428.0359156006637
0.1023371798632519,1243.5091628309851
0.10635449574860109,1052.056934372829
0.11052951411260206,870.8076437703816
0.1148684256737553,714.4480189994886
0.1193776641714435,592.7538570964169
0.1240639159058831,509.97774227692304
0.12893412965257148,465.79992265102504
0.13399552696593373,456.70465647833925
0.1392556128874462,476.4440584936391
0.14472218707411338,514.9590470703978
0.15040335536380234,556.8601133369114
0.15630754179458153,582.4354480435169
0.16244350109588662,573.8325866782108
0.16882033167003618,524.1727472444275
0.17544748908334581,442.4612134387051
0.1823348000868439,350.12472305713555
0.189492477187382,270.78620329661203
0.19693113379074215,219.6531681938554
0.20466179993919872,200.37623312418495
0.21269593866686892,208.80134993942627
0.22104546299710207,234.0687149487062
0.22972275360711503,256.6116557661527
0.23874067718606454,254.9679115709282
0.2481126055137766,222.1363515257626
0.25785243528842716,173.29751668499728
0.26797460873256895,132.38942126957764
0.27849413500806414,113.64174930078536
0.28942661247167484,117.20312949382672
0.3007882518043098,131.46209533231107
0.31259590004822796,136.7296576428621
0.324867065587837,120.68592742091691
0.3376199441111335,93.63044781562719
0.35087344559027084,75.1877166338041
0.36464722232127456,73.06297424639386
0.37896169806447155,79.82679687919047
0.3938380983288488,79.46118057585052
0.4092984818452433,66.29522797990393
0.4253657732750382,52.907491569742575
0.44206379720285277,49.766648051075464
0.45941731346364734,52.42716325517112
0.47745205385661277,49.3227092168664
0.4961947603002895,40.435227712111605
0.5156732244854959,35.76222677752809
0.5359163290848509,36.22091537894622
0.556954090580013,33.95441271712123
0.5788177037701272,28.601156254317583
0.6015395880274836,26.43301651911642
0.6251534353689703,25.70862713381496
0.6496942604146115,23.052270961804503
0.6751984523072497,20.780059058857177
0.7017038286703824,18.891927434382644
0.7292496916841444,17.254913039185286
0.7578768863625915,15.810882156757032
0.7876278611187046,14.515443044781655
0.8185467307069019,13.33396787407655
0.850679341636415,12.239617578355107
0.8840733401525058,11.216553650124812
0.9187782428863317,10.263707477205381
0.9548455102782278,9.380958468597854
0.9923286228832539,8.567086682106364
1.0312831606721837,7.820004273745937
1.0717668854455022,7.13683482342612
1.1138398264826193,6.512900514928769
1.1575643695533022,5.942920109446235
1.2030053494233226,5.422100048688438
1.2502301459914542,4.946099936781594
1.299308784200415,4.510986524649805
1.3503140378698726,4.113234971105698
1.4033215376054824,3.7497234221124343
1.4584098829439835,3.417594193692803
1.5156607589006013,3.1142186977884525
1.575159057091621,2.837180035232634
1.6369930016117014,2.584256677239749
1.7012542798525885,2.353406380388813
1.7680381784572046,2.1427532665042945
1.8374437246107238,1.9505756380360983
1.9095738328780953,1.775293843780659
1.9845354578058014,1.6154590336831531
2.0624397525140905,1.4697421203435945
2.143402233514853,1.336923856090853
2.227542951999554,1.2158873834392896
2.314986671851158,1.105610064616807
2.405863054644063,1.0051557766518004
2.5003068519063225,0.9136678671685328
2.598458104929248,0.8303629595007413
2.7004623524206774,0.7545245608867407
2.806470846309834,0.685497302625266
2.916640776023701,0.6226818889563803
3.031135501567576,0.5655304463958927
3.150124795755327,0.5135420796932979
3.2737850959485697,0.4662588931203592
3.4022997656780634,0.42326270531681176
3.5358593665351745,0.3841717224918564
3.6746619407366854,0.3486374501315028
3.8189133047818515,0.31634187880021447
3.968827354637162,0.28699498800884493
4.1246263829013445,0.2603322374596436
4.286541408420921,0.23611232179160863
4.4548125188449825,0.21411518151800735
4.629689226627261,0.19414017825511878
4.811430839003257,0.17600436970044606
5.000306842491082,0.15954097383896665
5.196597302486189,0.14459806091585897
5.400593278542364,0.1310372653908389
5.612597255954967,0.11873259919571154
5.8329235942862,0.10756936429002996
6.06189899349756,0.09744315111826139
6.29986297838068,0.08825894358836558
6.547168402004727,0.07993029468255923
6.804181968927091,0.0723785676137093
7.071284778942991,0.06553224350145431
7.348872892180382,0.059326318527632455
7.637357916378006,0.05370172295915228
7.937167617217536,0.04860474500093143
8.248746552614573,0.043986551777896954
8.572556731909314,0.039802755348587154
8.909078300934132,0.036012984996739696
9.258810253973934,0.032580411852561574
9.622271173675122,0.029471583573525046
9.999999999999984,0.026656173779378043
