k [1/Mpc],P(k) [Mpc^3]
0.0001,645.7750419716315
0.00010392556829367125,671.0572738729188
0.00010800523745162529,697.3237269337084
0.00011224505680853065,724.6120613310464
0.00011665131316981963,752.9612885803006
0.00012123054013376525,782.4118081327076
0.00012598952777950273,813.0054856932007
0.00013093533273536104,844.7856389060207
0.00013607528864243335,877.7971268256493
0.00014141701702890234,912.0863761811548
0.00014696843861124463,947.701386127433
0.00015273778503907136,984.6918393700066
0.00015873361110102093,1023.1090410776842
0.00016496480740980205,1063.0060068931132
0.0001714406135851971,1104.4375319939575
0.00017817063195457305,1147.460131319745
0.00018516484179121546,1192.1321963821736
0.000192433614111598,1238.5139351774615
0.00019998772705352857,1286.667408546381
0.0002078383818579757,1336.6566320078728
0.00021599721947827182,1388.5473507216625
0.0002244763378413224,1442.4072696813698
0.0002332883097864157,1498.3060709451481
0.00024244620170823283,1556.315372281218
0.0002519635929317015,1616.5088607462915
0.0002618545958474233,1678.9618899637544
0.0002721338768375308,1743.751681755337
0.0002828166780230032,1810.9574661290299
0.0002939188398646886,1880.6603133728092
0.0003054568246515432,1952.943327762122
0.00031744774091091926,2027.891172761791
0.00032990936877709396,2105.590083457051
0.00034286018635565856,2186.128152612
0.00035631939712285854,2269.59497549979
0.000370306958400514,2356.081884647732
0.00038484361094874304,2445.6815609105697
0.0003999509097203664,2538.4877612101322
0.00041565125582259895,2634.595684325219
0.00043196792973341727,2734.1013210652363
0.0004489251258218605,2837.1016674531
0.0004665479882234472,2943.6945357277596
0.000484862648123908,3053.977949021997
0.000503896262506515,3168.0505608033
0.0005236770544204653,3286.010702101805
0.0005442343548300266,3407.9563505391698
0.0005655986461065005,3533.985162109248
0.0005878016072274912,3664.193169533671
0.0006108761607505036,3798.675448694142
0.0006348565216305217,3937.524778436891
0.0006597782479539537,4080.8309250955654
0.0006856782936641739,4228.681395453126
0.0007125950633568407,4381.159501465491
0.0007405684692262436,4538.344921833843
0.0007696399902471156,4700.312269701122
0.0007998527336796708,4867.128910148258
0.000831251498989063,5038.856788601617
0.0008638828442740447,5215.550405090839
0.000897795155303332,5397.256747294205
0.0009330387172620361,5584.014999327928
0.0009696657893145519,5775.854108538358
0.001007730682094461,5972.793885061367
0.0010472898382363582,6174.843980713339
0.0010884019160690055,6382.003106795203
0.0011311278765939214,6594.2578821788275
0.001175531073878369,6811.576783277369
0.0012216773489967915,7033.912900966373
0.0012696351276599736,7261.204117666182
0.0013194755216767058,7493.371622059294
0.0013712724343984,7730.320126075679
0.0014251026703029975,7971.934989783004
0.0014810460488806749,8218.082295415206
0.0015391855229902056,8468.608304599791
0.001599607301861487,8723.336954563985
0.0016624009789266115,8982.070994811033
0.0017276596646690358,9244.589314365638
0.0017954801246878305,9510.646357304404
0.0018659629231817451,9779.973286957127
0.001939212572065829,10052.276714617485
0.0020153376859417325,10327.238869951196
0.002094451143151469,10604.513102263945
0.002176670253153458,10883.721318174841
0.002262116930469025,11164.458866558782
0.002350917875457286,11446.292904264339
0.002443204762186487,11728.763507278489
0.0025391144336803463,12011.379909668794
0.002638789104828933,12293.613964696706
0.002742376573264949,12574.909547422383
0.0028500304385181063,12854.683659238317
0.0029619103297725525,13132.327582402962
0.0030781821425650787,13407.19069032686
0.003199018284775064,13678.528811968292
0.0033245979322709396,13945.556783916514
0.003455107294592217,14207.571807618231
0.0035907398910610534,14463.987533393141
0.0037316968377327513,14714.152262260242
0.0038781871456107214,14956.955473723796
0.0040304280305680515,15191.0723812237
0.00418864523543527,15415.288534684256
0.004353073364731888,15628.658097977801
0.00452395623253805,15830.265159663326
0.004701547224022131,16019.165771580612
0.004886109671160325,16194.403294726684
0.005077917243205399,16354.961500827427
0.005277254352483535,16499.603445915945
0.005484416576121017,16627.05861932586
0.005699711094326071,16735.999263065347
0.005923457145875801,16825.04577214976
0.006155986501483508,16892.838877988113
0.006397643955748424,16937.95461981586
0.0066487878384172625,16959.000133346606
0.0069097905457156435,16954.552396248597
0.007181039092537346,16923.095167618394
0.007462935686310132,16863.20493911036
0.007755898323389004,16773.3908110375
0.00806036140886134,16652.225235440168
0.008376776400682916,16498.338036143516
0.008705612479099857,16310.171116184501
0.009047357242349292,16086.391045486149
0.00940251742967013,15825.698140334165
0.009771619672696168,15526.92550349689
0.010155211276345676,15189.242673934637
0.010553861030365234,14811.705897405283
0.010968160052731372,14393.836432846052
0.011398722666160517,13935.339707515957
0.011846187309026826,13436.002954373786
0.012311217482038896,12896.489814532995
0.012794502732078732,12317.914153987938
0.013296759674662111,11702.30582769741
0.013818733056536317,11051.768308576568
0.014361196859990781,10367.280280543398
0.014924955450518284,9651.789336409818
0.015510844769528393,8912.487900429443
0.016119733573881575,8159.361463153077
0.01675252472408214,7398.705875351906
0.017410156523040152,6623.704668506971
0.018093604107387147,5833.1082544830415
0.01880388089340914,5054.697403110179
0.019542040079740527,4333.254233686865
0.02030917620904734,3681.7421985118012
0.021106426791015535,3024.799362679445
0.021934973989050584,2319.024012815766
0.02279604637318978,1670.440203932774
0.023690920741826323,1240.873811205869
0.02462092401494623,1027.887500051339
0.02558743520168586,743.320269290132
0.02659188744512693,294.312376869785
0.027635770147361564,54.36677733863156
0.028720631177978267,11.506073832504516
0.029848079169243254,8.274588235546124
0.03101978590138095,22.195808613318203
0.03223748878149028,81.89985374990185
0.0335029934197723,180.80092639239052
0.03481817630688963,258.54255533612746
0.03618498759642746,320.8926284817936
0.037605453996581675,375.80448359684874
0.03908168177536263,402.7803347947854
0.04061585988376978,381.89228724030625
0.04221026320156896,312.93943752736277
0.04386725591048496,242.80197343622643
0.0455892949998106,179.8957561231562
0.047378933909631396,63.69268016838117
0.049238826317067365,11.887488369593015
0.05117173007114603,7.383643040256285
0.05318051128214196,18.95811844882667
0.05526814857144601,74.47236737985695
0.057437737488265785,161.30136293603218
0.0596924950997073,224.60806034232542
0.0620357647610427,276.1482533716328
0.06447102107323864,282.6066032955785
0.06700187503509585,245.30274520955876
0.06963207939763882,171.70040709890586
0.0723655342286965,92.44049808629048
0.07520629269592405,31.57900682945854
0.07815856707684081,2.78868880026344
0.08122673500479707,3.4073334296653113
0.08441534596012978,44.29364038058785
0.0877291280161335,60.14489559086197
0.09117299484984914,63.81286094545978
0.09475205302806537,45.02874181060532
0.09847160957933764,10.843207070092742
0.1023371798632519,0.28348386758352295
0.10635449574860109,16.340433240456854
0.11052951411260206,39.605447150411
0.1148684256737553,61.37689419975885
0.1193776641714435,54.12564017725039
0.1240639159058831,27.022320488697265
0.12893412965257148,1.3027168131296005
0.13399552696593373,1.4530851499145536
0.1392556128874462,11.435367565775609
0.14472218707411338,14.213742975989138
0.15040335536380234,4.964621920867964
0.15630754179458153,0.2782973572967645
0.16244350109588662,9.412754190764824
0.16882033167003618,16.351199214250766
0.17544748908334581,11.118657538670659
0.1823348000868439,1.762874543498732
0.189492477187382,0.6350488843173645
0.19693113379074215,3.1840232703864606
0.20466179993919872,1.001520998941197
0.21269593866686892,0.3719110084314769
0.22104546299710207,4.027998507115272
0.22972275360711503,3.635913038422566
0.23874067718606454,0.26530202656791474
0.2481126055137766,0.342198272932685
0.25785243528842716,0.39324961962731686
0.26797460873256895,0.2003875632042299
0.27849413500806414,1.4054069565912324
0.28942661247167484,0.6594031607667618
0.3007882518043098,0.004715703372621156
0.31259590004822796,0.08271105895096911
0.324867065587837,0.1514709604306521
0.3376199441111335,0.48892934514864433
0.35087344559027084,0.10089338784260729
0.36464722232127456,0.00013516183180304592
0.37896169806447155,0.04894558553064983
0.3938380983288488,0.19188518121581866
0.4092984818452433,0.04403602519608206
0.4253657732750382,0.009894253304895049
0.44206379720285277,0.07522239771871207
0.45941731346364734,0.2539334210090842
0.47745205385661277,0.2995427945159613
0.4961947603002895,0.173335834083016
0.5156732244854959,0.06907683608711822
0.5359163290848509,0.02661431342436542
0.556954090580013,0.013674828424080862
0.5788177037701272,0.010133754783444771
0.6015395880274836,0.00980706019921757
0.6251534353689703,0.011177617929101808
0.6496942604146115,0.013530806189729338
0.6751984523072497,0.01568904065226371
0.7017038286703824,0.01620058918249412
0.7292496916841444,0.015131956889146314
0.7578768863625915,0.013194325980492
0.7876278611187046,0.011084219439572818
0.8185467307069019,0.009258630982294036
0.850679341636415,0.007924823541790934
0.8840733401525058,0.007009213997168831
0.9187782428863317,0.0063514458639639575
0.9548455102782278,0.0058437596065842754
0.9923286228832539,0.005410301173257656
1.0312831606721837,0.004995204631357923
1.0717668854455022,0.004569196485378195
1.1138398264826193,0.0041450839737849415
1.1575643695533022,0.0037387580812960532
1.2030053494233226,0.003361363749363988
1.2502301459914542,0.003019891631084623
1.299308784200415,0.002717722356482531
1.3503140378698726,0.002451760273861887
1.4033215376054824,0.002215780207910362
1.4584098829439835,0.0020046999543715054
1.5156607589006013,0.0018144473787501789
1.575159057091621,0.0016417610671602533
1.6369930016117014,0.0014843017519698767
1.7012542798525885,0.001340966426815444
1.7680381784572046,0.0012108445239133064
1.8374437246107238,0.0010930120432481585
1.9095738328780953,0.000986549579374825
1.9845354578058014,0.0008905497945591436
2.0624397525140905,0.0008040213101933557
2.143402233514853,0.0007259652611644407
2.227542951999554,0.0006554959153256377
2.314986671851158,0.0005918299697684254
2.405863054644063,0.0005342735500448008
2.5003068519063225,0.00048222149536261623
2.598458104929248,0.00043516720035879187
2.7004623524206774,0.00039265456018024283
2.806470846309834,0.00035426499804754323
2.916640776023701,0.0003196150043231228
3.031135501567576,0.0002883532378368183
3.150124795755327,0.00026014949108581876
3.2737850959485697,0.00023469751846911973
3.4022997656780634,0.0002117228345244432
3.5358593665351745,0.00019097956628075154
3.6746619407366854,0.0001722473000236814
3.8189133047818515,0.0001553298970464408
3.968827354637162,0.00014005639300253002
4.1246263829013445,0.00012627239365006182
4.286541408420921,0.00011383709978946598
4.4548125188449825,0.00010262224409300679
4.629689226627261,9.251099705002264e-05
4.811430839003257,8.339517796638387e-05
5.000306842491082,7.517534233374598e-05
5.196597302486189,6.77622009519109e-05
5.400593278542364,6.107562577831744e-05
5.612597255954967,5.504367194112646e-05
5.8329235942862,4.960199146759197e-05
6.06189899349756,4.469372754458644e-05
6.29986297838068,4.0267621787668506e-05
6.547168402004727,3.62771796554725e-05
6.804181968927091,3.2680250238874786e-05
7.071284778942991,2.9438628334742606e-05
7.348872892180382,2.65174391176768e-05
7.637357916378006,2.3884932298188425e-05
7.937167617217536,2.1512518018150344e-05
8.248746552614573,1.9374462003784284e-05
8.572556731909314,1.7447596234054554e-05
8.909078300934132,1.5711083882907665e-05
9.258810253973934,1.4146250957769368e-05
9.622271173675122,1.2736266969834567e-05
9.999999999999984,1.1465934405325053e-05
