k [1/Mpc],P(k) [Mpc^3]
0.0001,2451.4203803876153
0.00010392556829367125,2532.9417148464954
0.00010800523745162529,2617.1709622365174
0.00011224505680853065,2704.197605772948
0.00011665131316981963,2794.1140557599906
0.00012123054013376525,2887.015776855447
0.00012598952777950273,2983.001371006019
0.00013093533273536104,3082.172699828561
0.00013607528864243335,3184.6350214073514
0.00014141701702890234,3290.497023472202
0.00014696843861124463,3399.8706202583426
0.00015273778503907136,3512.8711424376384
0.00015873361110102093,3629.6177140024597
0.00016496480740980205,3750.233553501457
0.0001714406135851971,3874.845920952145
0.00017817063195457305,4003.586023055085
0.00018516484179121546,4136.589110210735
0.000192433614111598,4273.99473641245
0.00019998772705352857,4415.946740424491
0.0002078383818579757,4562.5934835215185
0.00021599721947827182,4714.087969046263
0.0002244763378413224,4870.587917816074
0.0002332883097864157,5032.256002191967
0.00024244620170823283,5199.259812501421
0.0002519635929317015,5371.77207077038
0.0002618545958474233,5549.970782026285
0.0002721338768375308,5734.0391634873
0.0002828166780230032,5924.166018888314
0.0002939188398646886,6120.545655804849
0.0003054568246515432,6323.378020975011
0.00031744774091091926,6532.869042644415
0.00032990936877709396,6749.2305001505065
0.00034286018635565856,6972.680392283616
0.00035631939712285854,7203.4427447132775
0.000370306958400514,7441.747446052666
0.00038484361094874304,7687.830948558704
0.0003999509097203664,7941.936039709557
0.00041565125582259895,8204.312174318846
0.00043196792973341727,8475.215566134095
0.0004489251258218605,8754.908809650091
0.0004665479882234472,9043.661558864482
0.000484862648123908,9341.749767900963
0.000503896262506515,9649.455826511517
0.0005236770544204653,9967.069336696433
0.0005442343548300266,10294.886627594737
0.0005655986461065005,10633.211337323897
0.0005878016072274912,10982.35384450343
0.0006108761607505036,11342.63086100857
0.0006348565216305217,11714.366338612132
0.0006597782479539537,12097.889826105018
0.0006856782936641739,12493.53732101397
0.0007125950633568407,12901.651576463977
0.0007405684692262436,13322.581187961565
0.0007696399902471156,13756.68155663666
0.0007998527336796708,14204.312698828231
0.000831251498989063,14665.839380449519
0.0008638828442740447,15141.632229037732
0.000897795155303332,15632.06578251469
0.0009330387172620361,16137.519782133902
0.0009696657893145519,16658.375572221532
0.001007730682094461,17195.014062997063
0.0010472898382363582,17747.819514571835
0.0010884019160690055,18317.17697065262
0.0011311278765939214,18903.47317525636
0.001175531073878369,19507.094083300814
0.0012216773489967915,20128.420091400152
0.0012696351276599736,20767.830484015554
0.0013194755216767058,21425.697676453838
0.0013712724343984,22102.387421097086
0.0014251026703029975,22798.2605822163
0.0014810460488806749,23513.66775620712
0.0015391855229902056,24248.9521151074
0.001599607301861487,25004.44241406135
0.0016624009789266115,25780.44942755003
0.0017276596646690358,26577.270890974498
0.0017954801246878305,27395.182302234374
0.0018659629231817451,28234.440170728383
0.001939212572065829,29095.278942219746
0.0020153376859417325,29977.903657712453
0.002094451143151469,30882.49533919164
0.002176670253153458,31809.198760415027
0.002262116930469025,32758.123160922194
0.002350917875457286,33729.34364415172
0.002443204762186487,34722.888886991714
0.0025391144336803463,35738.748048774025
0.002638789104828933,36776.85810385875
0.002742376573264949,37837.09848808882
0.0028500304385181063,38919.29848173648
0.0029619103297725525,40023.220212732725
0.0030781821425650787,41148.565361678215
0.003199018284775064,42294.96562382097
0.0033245979322709396,43461.96790569198
0.003455107294592217,44649.047980508905
0.0035907398910610534,45855.5834021807
0.0037316968377327513,47080.858804941236
0.0038781871456107214,48324.065635356936
0.0040304280305680515,49584.26960145943
0.00418864523543527,50860.43725938286
0.004353073364731888,52151.415185062026
0.00452395623253805,53455.92463228166
0.004701547224022131,54772.561401399
0.004886109671160325,56099.69668316568
0.005077917243205399,57435.54377519755
0.005277254352483535,58778.243683741784
0.005484416576121017,60125.90348316206
0.005699711094326071,61476.47809542347
0.005923457145875801,62827.33028269162
0.006155986501483508,64175.39673104067
0.006397643955748424,65517.49987567844
0.0066487878384172625,66850.47350775579
0.0069097905457156435,68171.03221874284
0.007181039092537346,69475.68794783889
0.007462935686310132,70760.75705088477
0.007755898323389004,72022.32850162606
0.00806036140886134,73255.9062049174
0.008376776400682916,74456.70768503628
0.008705612479099857,75619.63930794648
0.009047357242349292,76739.21548676006
0.00940251742967013,77809.77018115252
0.009771619672696168,78825.19212854283
0.010155211276345676,79779.1093013393
0.010553861030365234,80664.8979650236
0.010968160052731372,81475.41240110157
0.011398722666160517,82203.41195601434
0.011846187309026826,82841.16309310592
0.012311217482038896,83380.57499180951
0.012794502732078732,83813.53313181168
0.013296759674662111,84131.35020706883
0.013818733056536317,84325.44707175696
0.014361196859990781,84387.0718745241
0.014924955450518284,84307.18588222472
0.015510844769528393,84077.2518795198
0.016119733573881575,83688.42827837265
0.01675252472408214,83132.37862050768
0.017410156523040152,82401.40202717627
0.018093604107387147,81487.8876766231
0.01880388089340914,80385.65993175295
0.019542040079740527,79089.19796913645
0.02030917620904734,77594.23305189789
0.021106426791015535,75898.54656474583
0.021934973989050584,74001.0305937699
0.02279604637318978,71903.23667654447
0.023690920741826323,69609.12209274979
0.02462092401494623,67125.08063487693
0.02558743520168586,64460.97097947501
0.02659188744512693,61629.30177953184
0.027635770147361564,58645.93790257781
0.028720631177978267,55530.784932304305
0.029848079169243254,52307.7500821124
0.03101978590138095,49003.42490203043
0.03223748878149028,45646.24916917956
0.0335029934197723,42265.9774982798
0.03481817630688963,38896.390345306005
0.03618498759642746,35580.81514423034
0.037605453996581675,32358.88947577372
0.03908168177536263,29259.875082214166
0.04061585988376978,26303.978182191924
0.04221026320156896,23513.3574308559
0.04386725591048496,20926.750812493283
0.0455892949998106,18572.598864233194
0.047378933909631396,16467.040072554468
0.049238826317067365,14614.738937632785
0.05117173007114603,13015.79090510621
0.05318051128214196,11664.855242163634
0.05526814857144601,10551.092157497273
0.057437737488265785,9660.572508612267
0.0596924950997073,8976.529663189427
0.0620357647610427,8481.133742219034
0.06447102107323864,8154.23110279234
0.06700187503509585,7971.614454821739
0.06963207939763882,7905.680084113688
0.0723655342286965,7923.493156046756
0.07520629269592405,7983.695551825163
0.07815856707684081,8038.125769997179
0.08122673500479707,8036.072812142516
0.08441534596012978,7930.082844626084
0.0877291280161335,7682.063725348483
0.09117299484984914,7269.797501224808
0.09475205302806537,6693.164897784215
0.09847160957933764,5978.141634724536
0.1023371798632519,5175.683353188226
0.10635449574860109,4353.610689658431
0.11052951411260206,3582.813639398721
0.1148684256737553,2922.565555323175
0.1193776641714435,2410.791505599248
0.1240639159058831,2062.1873794783082
0.12893412965257148,1872.6988922491228
0.13399552696593373,1825.5579344340308
0.1392556128874462,1893.493133464484
0.14472218707411338,2034.773862753144
0.15040335536380234,2187.6669618696305
0.15630754179458153,2274.9640311003827
0.16244350109588662,2228.45352667983
0.16882033167003618,2023.8785635032807
0.17544748908334581,1698.5442204732344
0.1823348000868439,1336.3372333250377
0.189492477187382,1027.5701088291466
0.19693113379074215,828.7318689829973
0.20466179993919872,751.6478422945611
0.21269593866686892,778.7411927366228
0.22104546299710207,867.950295781445
0.22972275360711503,946.0617900792632
0.23874067718606454,934.5881904541528
0.2481126055137766,809.5543962982999
0.25785243528842716,627.9287664408853
0.26797460873256895,476.93913786464356
0.27849413500806414,407.0420038759582
0.28942661247167484,417.3805090083043
0.3007882518043098,465.46297942639757
0.31259590004822796,481.32559924230435
0.324867065587837,422.4005789398829
0.3376199441111335,325.8191541933635
0.35087344559027084,260.13455537037333
0.36464722232127456,251.3275724745736
0.37896169806447155,273.01287661783516
0.3938380983288488,270.19734657130823
0.4092984818452433,224.12999106510645
0.4253657732750382,177.83879851715483
0.44206379720285277,166.31804581757234
0.45941731346364734,174.20033312965805
0.47745205385661277,162.94130274384304
0.4961947603002895,132.8115338924182
0.5156732244854959,116.78635151450091
0.5359163290848509,117.60305363728605
0.556954090580013,109.60920781866375
0.5788177037701272,91.79648359205962
0.6015395880274836,84.34917140883346
0.6251534353689703,81.56514595297591
0.6496942604146115,72.71618513429749
0.6751984523072497,65.17121043144276
0.7017038286703824,58.908357974352974
0.7292496916841444,53.49399862671873
0.7578768863625915,48.7348942338408
0.7876278611187046,44.484207815296024
0.8185467307069019,40.628108926260694
0.850679341636415,37.07888715142337
0.8840733401525058,33.783910607895926
0.9187782428863317,30.73593194805493
0.9548455102782278,27.930645464104547
0.9923286228832539,25.360543627581762
1.0312831606721837,23.015691458633896
1.0717668854455022,20.884030593609907
1.1138398264826193,18.94849661234466
1.1575643695533022,17.19063205909179
1.2030053494233226,15.593769795019833
1.2502301459914542,14.142888503014463
1.299308784200415,12.824439675404525
1.3503140378698726,11.626313452583313
1.4033215376054824,10.537786186289603
1.4584098829439835,9.549096425873547
1.5156607589006013,8.651323109293296
1.575159057091621,7.836316320207642
1.6369930016117014,7.096633044326226
1.7012542798525885,6.425475431993018
1.7680381784572046,5.8166394633694765
1.8374437246107238,5.264467078653163
1.9095738328780953,4.763799826817796
1.9845354578058014,4.309936238983323
2.0624397525140905,3.8985909950750335
2.143402233514853,3.525858234976911
2.227542951999554,3.1881824330074733
2.314986671851158,2.882328226183099
2.405863054644063,2.6053523317154426
2.5003068519063225,2.3545779912484033
2.598458104929248,2.1275723407837845
2.7004623524206774,1.9221239390678917
2.806470846309834,1.736222561519543
2.916640776023701,1.5680413757963931
3.031135501567576,1.4159206438504164
3.150124795755327,1.2783524175880756
3.2737850959485697,1.1539668385665078
3.4022997656780634,1.0415205482675118
3.5358593665351745,0.9398853337660705
3.6746619407366854,0.8480376879555233
3.8189133047818515,0.7650493406419387
3.968827354637162,0.690078833646851
4.1246263829013445,0.6223633132055135
4.286541408420921,0.5612111924825391
4.4548125188449825,0.5059956370275498
4.629689226627261,0.4561486286826191
4.811430839003257,0.4111554379384741
5.000306842491082,0.3705496998235993
5.196597302486189,0.3339091614696766
5.400593278542364,0.30085160031200225
5.612597255954967,0.2710310943365711
5.8329235942862,0.24413462819630927
6.06189899349756,0.21987899377303305
6.29986297838068,0.19800802171091775
6.547168402004727,0.17829005247709218
6.804181968927091,0.16051562775321826
7.071284778942991,0.14449539701476394
7.348872892180382,0.1300582824098217
7.637357916378006,0.11704974547411194
7.937167617217536,0.10533011580706116
8.248746552614573,0.09477317917010293
8.572556731909314,0.08526490400641366
8.909078300934132,0.07670221915222585
9.258810253973934,0.06899172723821091
9.622271173675122,0.0620491103080866
9.999999999999984,0.055798373098006476
