k [1/Mpc],P(k) [Mpc^3]
0.0001,44.360171075120576
0.00010392556829367125,46.36839542119075
0.00010800523745162529,48.467517512613
0.00011224505680853065,50.661648011987666
0.00011665131316981963,52.95508397644995
0.00012123054013376525,55.35231801110317
0.00012598952777950273,57.85804587261337
0.00013093533273536104,60.47717430031717
0.00013607528864243335,63.21483085819905
0.00014141701702890234,66.07637437827925
0.00014696843861124463,69.06740488712016
0.00015273778503907136,72.19377501685142
0.00015873361110102093,75.46160350674604
0.00016496480740980205,78.877287566126
0.0001714406135851971,82.44751225342262
0.00017817063195457305,86.17925682119986
0.00018516484179121546,90.07981201391141
0.000192433614111598,94.15680058391901
0.00019998772705352857,98.41819594145194
0.0002078383818579757,102.87233107811821
0.00021599721947827182,107.5279036093692
0.0002244763378413224,112.39399513441523
0.0002332883097864157,117.48009827149848
0.00024244620170823283,122.79614361079697
0.0002519635929317015,128.35251062692888
0.0002618545958474233,134.1600347723197
0.0002721338768375308,140.230026171208
0.0002828166780230032,146.57430187831153
0.0002939188398646886,153.20521542938576
0.0003054568246515432,160.13567636099035
0.00031744774091091926,167.3791645355146
0.00032990936877709396,174.94974864740772
0.00034286018635565856,182.86212376357815
0.00035631939712285854,191.1316470555753
0.000370306958400514,199.77436481070336
0.00038484361094874304,208.8070325353818
0.0003999509097203664,218.24713285850663
0.00041565125582259895,228.11292009107828
0.00043196792973341727,238.42345026328223
0.0004489251258218605,249.1986151965354
0.0004665479882234472,260.4591845700783
0.000484862648123908,272.226844871391
0.000503896262506515,284.52423824873586
0.0005236770544204653,297.37498163554454
0.0005442343548300266,310.8036913292867
0.0005655986461065005,324.83605580546174
0.0005878016072274912,339.4988999129657
0.0006108761607505036,354.82022778127237
0.0006348565216305217,370.82924089266646
0.0006597782479539537,387.55634244761643
0.0006856782936641739,405.03323361792013
0.0007125950633568407,423.2929768343335
0.0007405684692262436,442.3700518063666
0.0007696399902471156,462.30040770990905
0.0007998527336796708,483.12149629218874
0.000831251498989063,504.87235018152285
0.0008638828442740447,527.5936066438665
0.000897795155303332,551.3275354625595
0.0009330387172620361,576.118163664389
0.0009696657893145519,602.011336837199
0.001007730682094461,629.05479418385
0.0010472898382363582,657.2982175929913
0.0010884019160690055,686.7932481624857
0.0011311278765939214,717.5936146930001
0.001175531073878369,749.7551453050595
0.0012216773489967915,783.3358393058514
0.0012696351276599736,818.3959775088894
0.0013194755216767058,854.9980814485365
0.0013712724343984,893.207073583449
0.0014251026703029975,933.090304961451
0.0014810460488806749,974.7175709198214
0.0015391855229902056,1018.1612858642384
0.001599607301861487,1063.496428159858
0.0016624009789266115,1110.8006718205277
0.0017276596646690358,1160.1544134898547
0.0017954801246878305,1211.640623236205
0.0018659629231817451,1265.3451395478455
0.001939212572065829,1321.356637615404
0.0020153376859417325,1379.7666915555935
0.002094451143151469,1440.6698749812392
0.002176670253153458,1504.1635088331625
0.002262116930469025,1570.3479275241193
0.002350917875457286,1639.3262797154734
0.002443204762186487,1711.2043404633457
0.0025391144336803463,1786.0909311297467
0.002638789104828933,1864.0978242287665
0.002742376573264949,1945.3398215564382
0.0028500304385181063,2029.9344665881151
0.0029619103297725525,2118.0013983468275
0.0030781821425650787,2209.6629737950425
0.003199018284775064,2305.0439749767543
0.0033245979322709396,2404.2715519253106
0.003455107294592217,2507.4752208428217
0.0035907398910610534,2614.7859515348077
0.0037316968377327513,2726.336633429584
0.0038781871456107214,2842.2616488461317
0.0040304280305680515,2962.696387386324
0.00418864523543527,3087.7775244495533
0.004353073364731888,3217.6415892388322
0.00452395623253805,3352.425228896428
0.004701547224022131,3492.2650326514254
0.004886109671160325,3637.2964117537913
0.005077917243205399,3787.654036493781
0.005277254352483535,3943.4698656185337
0.005484416576121017,4104.872749530171
0.005699711094326071,4271.988914713471
0.005923457145875801,4444.940310518478
0.006155986501483508,4623.844868531116
0.006397643955748424,4808.813626172888
0.0066487878384172625,4999.948612176379
0.0069097905457156435,5197.345384230426
0.007181039092537346,5401.094668231765
0.007462935686310132,5611.28067487682
0.007755898323389004,5827.97164878364
0.00806036140886134,6051.207261148709
0.008376776400682916,6281.010935918521
0.008705612479099857,6517.395659263488
0.009047357242349292,6760.3626171727
0.00940251742967013,7009.8965174210525
0.009771619672696168,7265.963621666275
0.010155211276345676,7528.510951573556
0.010553861030365234,7797.4556689202955
0.010968160052731372,8072.679070783768
0.011398722666160517,8354.035163382472
0.011846187309026826,8641.344573633076
0.012311217482038896,8934.395844407809
0.012794502732078732,9232.943183601634
0.013296759674662111,9536.700249107898
0.013818733056536317,9845.344446370718
0.014361196859990781,10158.508872716651
0.014924955450518284,10475.782173024569
0.015510844769528393,10796.710372044092
0.016119733573881575,11120.78691316235
0.01675252472408214,11447.459665946417
0.017410156523040152,11776.12833962449
0.018093604107387147,12106.142339388465
0.01880388089340914,12436.80541845181
0.019542040079740527,12767.369851629204
0.02030917620904734,13097.040803531729
0.021106426791015535,13424.981576879114
0.021934973989050584,13750.316484157123
0.02279604637318978,14072.131880635978
0.023690920741826323,14389.48650402777
0.02462092401494623,14701.412947562801
0.02558743520168586,15006.923066418349
0.02659188744512693,15305.034766635452
0.027635770147361564,15594.755895077193
0.028720631177978267,15875.107521178175
0.029848079169243254,16145.136834958868
0.03101978590138095,16403.907824375707
0.03223748878149028,16650.59324933326
0.0335029934197723,16884.42565978234
0.03481817630688963,17104.639504400486
0.03618498759642746,17310.450984297775
0.037605453996581675,17501.128713325765
0.03908168177536263,17676.386443521988
0.04061585988376978,17836.285820389265
0.04221026320156896,17980.725066646053
0.04386725591048496,18108.8088592484
0.0455892949998106,18219.496099375752
0.047378933909631396,18312.354373760434
0.049238826317067365,18387.688436611188
0.05117173007114603,18445.870226522165
0.05318051128214196,18487.104909101312
0.05526814857144601,18511.554107556793
0.057437737488265785,18518.90761492483
0.0596924950997073,18507.862881041372
0.0620357647610427,18477.047252907352
0.06447102107323864,18425.133368221548
0.06700187503509585,18350.86299745131
0.06963207939763882,18253.364367775248
0.0723655342286965,18132.57202584395
0.07520629269592405,17988.68457284565
0.07815856707684081,17822.31339773233
0.08122673500479707,17634.23846992932
0.08441534596012978,17425.197334332137
0.0877291280161335,17196.071030435854
0.09117299484984914,16948.425908184727
0.09475205302806537,16684.400905371993
0.09847160957933764,16407.087627584606
0.1023371798632519,16119.448307689454
0.10635449574860109,15823.8302327788
0.11052951411260206,15520.867467599772
0.1148684256737553,15210.047557737083
0.1193776641714435,14890.183889744187
0.1240639159058831,14560.226839092222
0.12893412965257148,14219.631150540688
0.13399552696593373,13867.291452623334
0.1392556128874462,13502.087816747362
0.14472218707411338,13128.9007115284
0.15040335536380234,12750.90606503677
0.15630754179458153,12368.70174098145
0.16244350109588662,11986.43852702441
0.16882033167003618,11606.496886128125
0.17544748908334581,11229.337618334033
0.1823348000868439,10854.136353814383
0.189492477187382,10479.823709760285
0.19693113379074215,10106.370030385424
0.20466179993919872,9734.245763126162
0.21269593866686892,9363.698596790706
0.22104546299710207,8996.542059030719
0.22972275360711503,8636.050952484724
0.23874067718606454,8283.52633302477
0.2481126055137766,7938.769782356594
0.25785243528842716,7601.80340878712
0.26797460873256895,7271.494558225568
0.27849413500806414,6947.39534948513
0.28942661247167484,6630.62135418799
0.3007882518043098,6322.230490333957
0.31259590004822796,6023.292629709822
0.324867065587837,5733.910189404691
0.3376199441111335,5453.499374338743
0.35087344559027084,5181.457121568367
0.36464722232127456,4918.566561177203
0.37896169806447155,4665.525506358553
0.3938380983288488,4422.100108186701
0.4092984818452433,4187.325748622776
0.4253657732750382,3961.463065969894
0.44206379720285277,3745.2424030462757
0.45941731346364734,3538.2794242873315
0.47745205385661277,3339.7351457247273
0.4961947603002895,3149.9686460192956
0.5156732244854959,2969.015697916772
0.5359163290848509,2796.0824578325633
0.556954090580013,2631.3301490232006
0.5788177037701272,2474.7279001041607
0.6015395880274836,2325.5354878656713
0.6251534353689703,2183.9824848370117
0.6496942604146115,2049.6671509842113
0.6751984523072497,1922.2687786367158
0.7017038286703824,1801.7672185515783
0.7292496916841444,1687.5859371349757
0.7578768863625915,1579.7852478461716
0.7876278611187046,1477.8227114054203
0.8185467307069019,1381.702947844798
0.850679341636415,1290.974719697766
0.8840733401525058,1205.599048603699
0.9187782428863317,1125.140047527864
0.9548455102782278,1049.4773050246567
0.9923286228832539,978.3857983631337
1.0312831606721837,911.6323012852722
1.0717668854455022,848.9920065323344
1.1138398264826193,790.2485089009386
1.1575643695533022,735.1938512667839
1.2030053494233226,683.6303192036692
1.2502301459914542,635.3696576984854
1.299308784200415,590.2307427291804
1.3503140378698726,548.0395171441583
1.4033215376054824,508.6289909230619
1.4584098829439835,471.839145444668
1.5156607589006013,437.5163902474148
1.575159057091621,405.51390641826504
1.6369930016117014,375.691877955179
1.7012542798525885,347.91732196828457
1.7680381784572046,322.0639028263461
1.8374437246107238,298.011699510922
1.9095738328780953,275.64688726137746
1.9845354578058014,254.86169264214593
2.0624397525140905,235.5542271107574
2.143402233514853,217.62825829757412
2.227542951999554,200.99298112933496
2.314986671851158,185.5627481759541
2.405863054644063,171.25680290494913
2.5003068519063225,157.9991670299589
2.598458104929248,145.71843149097842
2.7004623524206774,134.34753429388147
2.806470846309834,123.82354315162917
2.916640776023701,114.0874050078711
3.031135501567576,105.08374541172327
3.150124795755327,96.76073425659091
3.2737850959485697,89.06989501329507
3.4022997656780634,81.96591706797142
3.5358593665351745,75.40647425839597
3.6746619407366854,69.3520335570152
3.8189133047818515,63.76570379194789
3.968827354637162,58.61309644407888
4.1246263829013445,53.862174319842985
4.286541408420921,49.48310729101999
4.4548125188449825,45.44813344997761
4.629689226627261,41.73142000087377
4.811430839003257,38.308951315654646
5.000306842491082,35.15841760564835
5.196597302486189,32.259103893188836
5.400593278542364,29.591785248593325
5.612597255954967,27.138621008732105
5.8329235942862,24.88304897264335
6.06189899349756,22.809722638093334
6.29986297838068,20.904432862119144
6.547168402004727,19.154028678988293
6.804181968927091,17.54634332427012
7.071284778942991,16.07013916091233
7.348872892180382,14.715047689078043
7.637357916378006,13.471479805551422
7.937167617217536,12.330568543979208
8.248746552614573,11.284118505837696
8.572556731909314,10.324555855773035
8.909078300934132,9.444831257915691
9.258810253973934,8.638401289421806
9.622271173675122,7.899253252294917
9.999999999999984,7.221864496217533
