k [1/Mpc],P(k) [Mpc^3]
0.0001,612.727850609813
0.00010392556829367125,633.093921249261
0.00010800523745162529,654.1352950606037
0.00011224505680853065,675.8741806545457
0.00011665131316981963,698.3335066223472
0.00012123054013376525,721.5369375577038
0.00012598952777950273,745.5088661242274
0.00013093533273536104,770.2744566166457
0.00013607528864243335,795.8596656031274
0.00014141701702890234,822.2912547412811
0.00014696843861124463,849.5968323583776
0.00015273778503907136,877.8048482119713
0.00015873361110102093,906.9446313906043
0.00016496480740980205,937.0464291109574
0.0001714406135851971,968.1414228101924
0.00017817063195457305,1000.2617645640223
0.00018516484179121546,1033.440533157847
0.000192433614111598,1067.7117605468059
0.00019998772705352857,1103.1105069856767
0.0002078383818579757,1139.6728379360839
0.00021599721947827182,1177.4358923328593
0.0002244763378413224,1216.4378850709797
0.0002332883097864157,1256.7181111950451
0.00024244620170823283,1298.3170119484414
0.0002519635929317015,1341.2760856787625
0.0002618545958474233,1385.6379719401452
0.0002721338768375308,1431.446470371137
0.0002828166780230032,1478.746467056632
0.0002939188398646886,1527.584075213162
0.0003054568246515432,1578.0065537723458
0.00031744774091091926,1630.0623472618327
0.00032990936877709396,1683.801149720985
0.00034286018635565856,1739.2737633189608
0.00035631939712285854,1796.5322539036395
0.000370306958400514,1855.6298171049634
0.00038484361094874304,1916.6207206756872
0.0003999509097203664,1979.5605099522002
0.00041565125582259895,2044.5058808378872
0.00043196792973341727,2111.5147759652073
0.0004489251258218605,2180.64616893297
0.0004665479882234472,2251.9597358839205
0.000484862648123908,2325.5163058151625
0.000503896262506515,2401.3778436371604
0.0005236770544204653,2479.607464748324
0.0005442343548300266,2560.269271256908
0.0005655986461065005,2643.427827548696
0.0005878016072274912,2729.1485969715895
0.0006108761607505036,2817.497656001621
0.0006348565216305217,2908.541582998286
0.0006597782479539537,3002.3476746101937
0.0006856782936641739,3098.9833707523994
0.0007125950633568407,3198.5165419258014
0.0007405684692262436,3301.01512220177
0.0007696399902471156,3406.546599803561
0.0007998527336796708,3515.178548364943
0.000831251498989063,3626.9777135881354
0.0008638828442740447,3742.0102081365762
0.000897795155303332,3860.3413324964336
0.0009330387172620361,3982.034328213328
0.0009696657893145519,4107.151345451749
0.001007730682094461,4235.752594758794
0.0010472898382363582,4367.896125998192
0.0010884019160690055,4503.638029777558
0.0011311278765939214,4643.030671402405
0.001175531073878369,4786.1235936279145
0.0012216773489967915,4932.962578241525
0.0012696351276599736,5083.588635555045
0.0013194755216767058,5238.0390367899345
0.0013712724343984,5396.345636997691
0.0014251026703029975,5558.535225247323
0.0014810460488806749,5724.628728684206
0.0015391855229902056,5894.638978275651
0.001599607301861487,6068.572479329188
0.0016624009789266115,6246.427978289969
0.0017276596646690358,6428.196202235963
0.0017954801246878305,6613.8597565013015
0.0018659629231817451,6803.3902410615365
0.001939212572065829,6996.749828738502
0.0020153376859417325,7193.889988649185
0.002094451143151469,7394.750413135958
0.002176670253153458,7599.259874312195
0.002262116930469025,7807.333259968297
0.002350917875457286,8018.872541579704
0.002443204762186487,8233.766137184914
0.0025391144336803463,8451.886873557094
0.002638789104828933,8673.09360444957
0.002742376573264949,8897.228937531283
0.0028500304385181063,9124.119344994982
0.0029619103297725525,9353.57526425068
0.0030781821425650787,9585.388240809096
0.003199018284775064,9819.332947703602
0.0033245979322709396,10055.164651872388
0.003455107294592217,10292.618404953784
0.0035907398910610534,10531.41165985721
0.0037316968377327513,10771.243408726637
0.0038781871456107214,11011.794660375868
0.0040304280305680515,11252.71643181536
0.00418864523543527,11493.61907509875
0.004353073364731888,11734.095345954702
0.00452395623253805,11973.766844531363
0.004701547224022131,12212.268936248693
0.004886109671160325,12449.173369087353
0.005077917243205399,12683.885552534515
0.005277254352483535,12915.761546777114
0.005484416576121017,13144.209562942086
0.005699711094326071,13368.693401850764
0.005923457145875801,13588.669606282816
0.006155986501483508,13803.596345018692
0.006397643955748424,14012.926328916861
0.0066487878384172625,14216.058744122782
0.0069097905457156435,14412.314132793823
0.007181039092537346,14600.99735970855
0.007462935686310132,14781.399103796322
0.007755898323389004,14952.802302966442
0.00806036140886134,15114.483746711052
0.008376776400682916,15265.709386691491
0.008705612479099857,15405.748217863333
0.009047357242349292,15533.86551676509
0.00940251742967013,15649.329138080755
0.009771619672696168,15751.414847478574
0.010155211276345676,15839.38074116342
0.010553861030365234,15912.50094930385
0.010968160052731372,15970.071233169403
0.011398722666160517,16011.411431008828
0.011846187309026826,16035.880874671107
0.012311217482038896,16042.868037229047
0.012794502732078732,16031.807827374261
0.013296759674662111,16002.195331195673
0.013818733056536317,15953.590774522821
0.014361196859990781,15885.628248508861
0.014924955450518284,15798.03574679036
0.015510844769528393,15690.635099512807
0.016119733573881575,15563.352529633325
0.01675252472408214,15416.263663989672
0.017410156523040152,15249.549893644245
0.018093604107387147,15063.556700177165
0.01880388089340914,14858.79792221538
0.019542040079740527,14635.902802942896
0.02030917620904734,14395.75053935265
0.021106426791015535,14139.345245908637
0.021934973989050584,13867.85567079443
0.02279604637318978,13582.685791419188
0.023690920741826323,13285.291717607448
0.02462092401494623,12977.378234825748
0.02558743520168586,12660.760000704211
0.02659188744512693,12337.2382819146
0.027635770147361564,12008.681344215953
0.028720631177978267,11676.891064340658
0.029848079169243254,11343.847391812591
0.03101978590138095,11011.651841937573
0.03223748878149028,10681.988599919776
0.0335029934197723,10355.225441030518
0.03481817630688963,10031.381362413746
0.03618498759642746,9711.668459373332
0.037605453996581675,9398.921184547826
0.03908168177536263,9095.275479738464
0.04061585988376978,8798.372046699564
0.04221026320156896,8504.013804897328
0.04386725591048496,8209.60950153859
0.0455892949998106,7915.55984404546
0.047378933909631396,7622.583950858751
0.049238826317067365,7330.44886121534
0.05117173007114603,7038.465272283057
0.05318051128214196,6745.519702899959
0.05526814857144601,6450.096998887415
0.057437737488265785,6152.111745544652
0.0596924950997073,5853.258567671951
0.0620357647610427,5556.802998431238
0.06447102107323864,5267.383935317916
0.06700187503509585,4989.051108558549
0.06963207939763882,4724.759008092594
0.0723655342286965,4475.184223076589
0.07520629269592405,4240.29697469735
0.07815856707684081,4019.9892102229865
0.08122673500479707,3814.2904081630236
0.08441534596012978,3621.832320229991
0.0877291280161335,3439.076851902553
0.09117299484984914,3260.761745037787
0.09475205302806537,3082.827022209066
0.09847160957933764,2904.029859766319
0.1023371798632519,2726.191881968031
0.10635449574860109,2552.9401098729
0.11052951411260206,2387.9967056767914
0.1148684256737553,2233.8005135307903
0.1193776641714435,2091.1065227907247
0.1240639159058831,1959.945139384625
0.12893412965257148,1839.8467122737738
0.13399552696593373,1727.6095825489388
0.1392556128874462,1618.8165356632808
0.14472218707411338,1512.3534485701857
0.15040335536380234,1409.610689386782
0.15630754179458153,1311.3468674040053
0.16244350109588662,1219.3552379013688
0.16882033167003618,1135.2601474959995
0.17544748908334581,1057.5969023869302
0.1823348000868439,984.6667753831451
0.189492477187382,915.5405557553348
0.19693113379074215,849.7594394668189
0.20466179993919872,787.7616724517942
0.21269593866686892,730.1167709298869
0.22104546299710207,676.7908556394005
0.22972275360711503,627.0565929426516
0.23874067718606454,580.4283464819039
0.2481126055137766,536.7252268272788
0.25785243528842716,496.0494855372977
0.26797460873256895,458.2705729912263
0.27849413500806414,423.167854681552
0.28942661247167484,390.4678662302394
0.3007882518043098,360.0625626823438
0.31259590004822796,331.8790811779706
0.324867065587837,305.72952530313216
0.3376199441111335,281.4880686773713
0.35087344559027084,259.03505582098313
0.36464722232127456,238.2526992250311
0.37896169806447155,219.0346063983789
0.3938380983288488,201.27171667141263
0.4092984818452433,184.860018794008
0.4253657732750382,169.7054197683049
0.44206379720285277,155.72076167044028
0.45941731346364734,142.8233112930895
0.47745205385661277,130.9343674289282
0.4961947603002895,119.98096269178538
0.5156732244854959,109.89586506827837
0.5359163290848509,100.61762754003206
0.556954090580013,92.08441580989106
0.5788177037701272,84.24345209317478
0.6015395880274836,77.04113048560183
0.6251534353689703,70.42688375344181
0.6496942604146115,64.35508774676724
0.6751984523072497,58.784048615471335
0.7017038286703824,53.675067319222634
0.7292496916841444,48.992151773690274
0.7578768863625915,44.70185642105197
0.7876278611187046,40.77312963561337
0.8185467307069019,37.177138328714
0.850679341636415,33.887073836841395
0.8840733401525058,30.878123572666354
0.9187782428863317,28.127359976783357
0.9548455102782278,25.61361034973872
0.9923286228832539,23.317333952080993
1.0312831606721837,21.220494385108147
1.0717668854455022,19.30645452824568
1.1138398264826193,17.55989326962626
1.1575643695533022,15.966709605504796
1.2030053494233226,14.513931979269495
1.2502301459914542,13.189634983645558
1.299308784200415,11.982867480140586
1.3503140378698726,10.88357099817743
1.4033215376054824,9.88250732358219
1.4584098829439835,8.971195897298438
1.5156607589006013,8.141855551580235
1.575159057091621,7.3873466360881075
1.6369930016117014,6.701117622415101
1.7012542798525885,6.07716812037574
1.7680381784572046,5.510006054556178
1.8374437246107238,4.994606577806738
1.9095738328780953,4.526374160305237
1.9845354578058014,4.101108381810055
2.0624397525140905,3.7149710337098054
2.143402233514853,3.364455346088331
2.227542951999554,3.046358563428196
2.314986671851158,2.7577566902360733
2.405863054644063,2.4959807978504736
2.5003068519063225,2.2585942615467136
2.598458104929248,2.0433750919349287
2.7004623524206774,1.8482983298232847
2.806470846309834,1.6715191438064783
2.916640776023701,1.5113573222370655
3.031135501567576,1.3662832667809082
3.150124795755327,1.2349049782387154
3.2737850959485697,1.1159556706860738
3.4022997656780634,1.0082828228109684
3.5358593665351745,0.9108381868584569
3.6746619407366854,0.8226686009267187
3.8189133047818515,0.7429072923235572
3.968827354637162,0.6707665109800658
4.1246263829013445,0.6055307653068005
4.286541408420921,0.5465503628268601
4.4548125188449825,0.49323550723622905
4.629689226627261,0.4450509082740315
4.811430839003257,0.4015108616446682
5.000306842491082,0.3621747659015626
5.196597302486189,0.3266430305101492
5.400593278542364,0.2945533441537419
5.612597255954967,0.2655772706275834
5.8329235942862,0.23941707078135427
6.06189899349756,0.21580290539395358
6.29986297838068,0.1944903761718169
6.547168402004727,0.17525817690414927
6.804181968927091,0.15790595095070545
7.071284778942991,0.14225236800371763
7.348872892180382,0.12813347909663708
7.637357916378006,0.11540094980556632
7.937167617217536,0.10392052813758977
8.248746552614573,0.09357073692427699
8.572556731909314,0.08424168384769948
8.909078300934132,0.0758338106920253
9.258810253973934,0.06825679117085705
9.622271173675122,0.06142907473832141
9.999999999999984,0.05527708979167226
