k [1/Mpc],P(k) [Mpc^3]
0.0001,1064.703086523688
0.00010392556829367125,1106.3864708731965
0.00010800523745162529,1149.6925532944836
0.00011224505680853065,1194.6833968001824
0.00011665131316981963,1241.4233199555097
0.00012123054013376525,1289.9790008330076
0.00012598952777950273,1340.4194640374446
0.00013093533273536104,1392.8161199174278
0.00013607528864243335,1447.2429335297404
0.00014141701702890234,1503.7763758076712
0.00014696843861124463,1562.495584800057
0.00015273778503907136,1623.4824243369671
0.00015873361110102093,1686.8214872823387
0.00016496480740980205,1752.6002824811856
0.0001714406135851971,1820.9091150611348
0.00017817063195457305,1891.8412411609904
0.00018516484179121546,1965.4929450323918
0.000192433614111598,2041.963371478134
0.00019998772705352857,2121.354854146967
0.0002078383818579757,2203.7727629173305
0.00021599721947827182,2289.32558488415
0.0002244763378413224,2378.1251004625688
0.0002332883097864157,2470.286053142652
0.00024244620170823283,2565.9265245904526
0.0002519635929317015,2665.167759263443
0.0002618545958474233,2768.134081642623
0.0002721338768375308,2874.9531857831385
0.0002828166780230032,2985.7554455933105
0.0002939188398646886,3100.674360030402
0.0003054568246515432,3219.8465626088546
0.00031744774091091926,3343.411530986835
0.00032990936877709396,3471.511947806043
0.00034286018635565856,3604.292875010288
0.00035631939712285854,3741.902000035608
0.000370306958400514,3884.4896944791485
0.00038484361094874304,4032.2082546426036
0.0003999509097203664,4185.212518948183
0.00041565125582259895,4343.659117838388
0.00043196792973341727,4507.70637895968
0.0004489251258218605,4677.514449389763
0.0004665479882234472,4853.243972453295
0.000484862648123908,5035.056807390833
0.000503896262506515,5223.1151826939185
0.0005236770544204653,5417.581095298998
0.0005442343548300266,5618.6167153441265
0.0005655986461065005,5826.382269619429
0.0005878016072274912,6041.036748681034
0.0006108761607505036,6262.7368006977085
0.0006348565216305217,6491.634931143389
0.0006597782479539537,6727.880800829297
0.0006856782936641739,6971.618063133618
0.0007125950633568407,7222.984746045074
0.0007405684692262436,7482.112593244991
0.0007696399902471156,7749.123467828012
0.0007998527336796708,8024.131537688028
0.000831251498989063,8307.2395567155
0.0008638828442740447,8598.538162611752
0.000897795155303332,8898.106218782597
0.0009330387172620361,9206.005305549483
0.0009696657893145519,9522.2824593338
0.001007730682094461,9846.97139505361
0.0010472898382363582,10180.091794773776
0.0010884019160690055,10521.64521930144
0.0011311278765939214,10871.602901730617
0.001175531073878369,11229.910904484525
0.0012216773489967915,11596.492858885054
0.0012696351276599736,11971.248427905291
0.0013194755216767058,12354.05215106891
0.0013712724343984,12744.748833525751
0.0014251026703029975,13143.153496816001
0.0014810460488806749,13549.050827754843
0.0015391855229902056,13962.19192475875
0.001599607301861487,14382.295205070603
0.0016624009789266115,14809.042108724849
0.0017276596646690358,15242.076299017777
0.0017954801246878305,15681.00422149961
0.0018659629231817451,16125.390571256343
0.001939212572065829,16574.760542517364
0.0020153376859417325,17028.597449280547
0.002094451143151469,17486.34134985269
0.002176670253153458,17947.39103277359
0.002262116930469025,18411.10130575992
0.002350917875457286,18876.78457514916
0.002443204762186487,19343.70687950923
0.0025391144336803463,19811.083926440024
0.002638789104828933,20278.08967790669
0.002742376573264949,20743.86297323656
0.0028500304385181063,21207.50665665479
0.0029619103297725525,21668.045129689053
0.0030781821425650787,22124.358452122055
0.003199018284775064,22575.281284582703
0.0033245979322709396,23019.87046284126
0.003455107294592217,23457.37738630049
0.0035907398910610534,23886.835585393943
0.0037316968377327513,24306.405476002954
0.0038781871456107214,24713.990654865076
0.0040304280305680515,25107.999632802443
0.00418864523543527,25487.48590985792
0.004353073364731888,25851.433957989128
0.00452395623253805,26198.115237863713
0.004701547224022131,26525.52314279089
0.004886109671160325,26831.938931149612
0.005077917243205399,27116.168230085346
0.005277254352483535,27377.045975878
0.005484416576121017,27612.91514868129
0.005699711094326071,27821.863727151405
0.005923457145875801,28001.986917466733
0.006155986501483508,28151.361352012143
0.006397643955748424,28268.11376568284
0.0066487878384172625,28350.325777834423
0.0069097905457156435,28396.08044617416
0.007181039092537346,28403.563708983602
0.007462935686310132,28371.033666542313
0.007755898323389004,28296.891582669807
0.00806036140886134,28179.410709697822
0.008376776400682916,28016.72618586986
0.008705612479099857,27807.17254169706
0.009047357242349292,27549.12028992297
0.00940251742967013,27241.189031227506
0.009771619672696168,26882.186407998786
0.010155211276345676,26471.0317883109
0.010553861030365234,26007.051397312378
0.010968160052731372,25489.651764365444
0.011398722666160517,24918.606533878305
0.011846187309026826,24294.18306181547
0.012311217482038896,23616.972795968573
0.012794502732078732,22888.25858808368
0.013296759674662111,22109.781865899695
0.013818733056536317,21283.881205979906
0.014361196859990781,20413.703275562533
0.014924955450518284,19503.032611068156
0.015510844769528393,18556.4755289777
0.016119733573881575,17579.495066710213
0.01675252472408214,16578.31815038773
0.017410156523040152,15559.881477018178
0.018093604107387147,14532.113906065846
0.01880388089340914,13503.271975917984
0.019542040079740527,12482.18177721436
0.02030917620904734,11478.190532002254
0.021106426791015535,10500.085591048666
0.021934973989050584,9557.751537805547
0.02279604637318978,8660.09425587479
0.023690920741826323,7814.987883573002
0.02462092401494623,7030.478973554196
0.02558743520168586,6311.6358374096235
0.02659188744512693,5662.6062097490085
0.027635770147361564,5085.726441101354
0.028720631177978267,4581.4088618313735
0.029848079169243254,4151.084402972845
0.03101978590138095,3794.2570734963865
0.03223748878149028,3508.445974260139
0.0335029934197723,3290.583454508465
0.03481817630688963,3137.118012697041
0.03618498759642746,3040.384449715317
0.037605453996581675,2993.7930639762894
0.03908168177536263,2990.0199156844283
0.04061585988376978,3021.5896271683782
0.04221026320156896,3078.337622335243
0.04386725591048496,3147.031737549063
0.0455892949998106,3209.095965195889
0.047378933909631396,3242.7862000749196
0.049238826317067365,3229.2394287634093
0.05117173007114603,3154.4499063841595
0.05318051128214196,3012.30965896551
0.05526814857144601,2802.9165935007686
0.057437737488265785,2534.3212258358726
0.0596924950997073,2223.346111317026
0.0620357647610427,1892.293850373797
0.06447102107323864,1571.605376361008
0.06700187503509585,1290.897887751334
0.06963207939763882,1067.0841169154191
0.0723655342286965,907.5671299951849
0.07520629269592405,811.5603394290678
0.07815856707684081,773.09101882845
0.08122673500479707,782.2659890788171
0.08441534596012978,825.6836565314451
0.0877291280161335,884.1330650067047
0.09117299484984914,932.1481544468711
0.09475205302806537,942.0436027493345
0.09847160957933764,893.8339440163285
0.1023371798632519,790.0582496783579
0.10635449574860109,656.5951603353619
0.11052951411260206,524.9137894333088
0.1148684256737553,420.7875316063721
0.1193776641714435,359.09137488793823
0.1240639159058831,339.78017351884785
0.12893412965257148,351.3412735250135
0.13399552696593373,375.4763145353502
0.1392556128874462,388.1433480338779
0.14472218707411338,369.6587511512235
0.15040335536380234,320.65759877005127
0.15630754179458153,260.9602681776097
0.16244350109588662,214.66766862232555
0.16882033167003618,192.3845389249609
0.17544748908334581,190.69737321730432
0.1823348000868439,196.04724008875132
0.189492477187382,191.33610948632446
0.19693113379074215,170.70493830869106
0.20466179993919872,143.78634601383246
0.21269593866686892,124.63499818974049
0.22104546299710207,117.27817093411393
0.22972275360711503,115.37827744231451
0.23874067718606454,109.22027077313467
0.2481126055137766,96.78354335412737
0.25785243528842716,84.71191398892535
0.26797460873256895,77.95252463847793
0.27849413500806414,74.18915977694566
0.28942661247167484,68.63985963950928
0.3007882518043098,61.29527086403534
0.31259590004822796,55.47876472295181
0.324867065587837,51.667474113385076
0.3376199441111335,47.6196137644761
0.35087344559027084,43.027846947881706
0.36464722232127456,39.27111629024397
0.37896169806447155,36.20760932511187
0.3938380983288488,33.02292527761031
0.4092984818452433,30.060733414808944
0.4253657732750382,27.56746474637233
0.44206379720285277,25.165013325014495
0.45941731346364734,22.941408416920254
0.47745205385661277,20.926299203105035
0.4961947603002895,19.095931086303533
0.5156732244854959,17.429391944686312
0.5359163290848509,15.908658466049303
0.556954090580013,14.518165409542853
0.5788177037701272,13.244456142026372
0.6015395880274836,12.076891234965878
0.6251534353689703,11.007665275001429
0.6496942604146115,10.029551346512488
0.6751984523072497,9.135687291242988
0.7017038286703824,8.319583217603933
0.7292496916841444,7.575113863101928
0.7578768863625915,6.896290773337117
0.7876278611187046,6.277346490668998
0.8185467307069019,5.71301421242439
0.850679341636415,5.198495890751719
0.8840733401525058,4.729419446891555
0.9187782428863317,4.301804078285085
0.9548455102782278,3.9120632818388077
0.9923286228832539,3.556939834108713
1.0312831606721837,3.233445745250638
1.0717668854455022,2.9388407730985135
1.1138398264826193,2.670613020738822
1.1575643695533022,2.4264594572042166
1.2030053494233226,2.2042628212810564
1.2502301459914542,2.0020845597927255
1.299308784200415,1.8181537471233333
1.3503140378698726,1.6508529359433874
1.4033215376054824,1.4987051629921353
1.4584098829439835,1.3603624370082852
1.5156607589006013,1.2345955585659578
1.575159057091621,1.1202825784639896
1.6369930016117014,1.0163993767297856
1.7012542798525885,0.922011368597467
1.7680381784572046,0.8362658882586801
1.8374437246107238,0.7583850332063601
1.9095738328780953,0.6876591699812308
1.9845354578058014,0.6234414327778781
2.0624397525140905,0.5651423396931103
2.143402233514853,0.5122248151971669
2.227542951999554,0.4641996320213372
2.314986671851158,0.4206212129181224
2.405863054644063,0.3810838209723595
2.5003068519063225,0.3452181068719175
2.598458104929248,0.31268791298746695
2.7004623524206774,0.2831873493411606
2.806470846309834,0.2564381173680006
2.916640776023701,0.23218702362367052
3.031135501567576,0.2102037835420494
3.150124795755327,0.19027902529975052
3.2737850959485697,0.17222242389364206
3.4022997656780634,0.15586099751952245
3.5358593665351745,0.14103755756550246
3.6746619407366854,0.12760931328858482
3.8189133047818515,0.11544655214515448
3.968827354637162,0.10443144835307108
4.1246263829013445,0.0944569918179633
4.286541408420921,0.08542601172832794
4.4548125188449825,0.07725027866369293
4.629689226627261,0.06984967495027697
4.811430839003257,0.06315148907893788
5.000306842491082,0.0570897489288318
5.196597302486189,0.05160460552474387
5.400593278542364,0.046641772272606935
5.612597255954967,0.042152011694122936
5.8329235942862,0.03809066900437911
6.06189899349756,0.03441725810027339
6.29986297838068,0.03109507810850125
6.547168402004727,0.028090863660785587
6.804181968927091,0.02537446734271726
7.071284778942991,0.02291858261483848
7.348872892180382,0.02069848006820004
7.637357916378006,0.018691749806782898
7.937167617217536,0.01687808584908032
8.248746552614573,0.015239091516890017
8.572556731909314,0.013758100020936432
8.909078300934132,0.012419977272916423
9.258810253973934,0.011210999965218625
9.622271173675122,0.010118760849908934
9.999999999999984,0.009132043296084517
