k [1/Mpc],P(k) [Mpc^3]
0.0001,2894.1630528015994
0.00010392556829367125,3007.470239027542
0.00010800523745162529,3125.1883759350767
0.00011224505680853065,3247.4861682836627
0.00011665131316981963,3374.5384520603607
0.00012123054013376525,3506.52647705812
0.00012598952777950273,3643.637871605798
0.00013093533273536104,3786.066749156378
0.00013607528864243335,3934.0141675796544
0.00014141701702890234,4087.687996423992
0.00014696843861124463,4247.303355209484
0.00015273778503907136,4413.082772897815
0.00015873361110102093,4585.2561967338415
0.00016496480740980205,4764.061500420796
0.0001714406135851971,4949.744158746123
0.00017817063195457305,5142.557668177326
0.00018516484179121546,5342.763756446004
0.000192433614111598,5550.631927067978
0.00019998772705352857,5766.440351741088
0.0002078383818579757,5990.475455491162
0.00021599721947827182,6223.032136816959
0.0002244763378413224,6464.4142463897415
0.0002332883097864157,6714.933689353485
0.00024244620170823283,6974.911444955297
0.0002519635929317015,7244.677089800727
0.0002618545958474233,7524.568572867308
0.0002721338768375308,7814.933002584746
0.0002828166780230032,8116.1247719789335
0.0002939188398646886,8428.50676883952
0.0003054568246515432,8752.450401565968
0.00031744774091091926,9088.334809741948
0.00032990936877709396,9436.54784499963
0.00034286018635565856,9797.483826584874
0.00035631939712285854,10171.54421057135
0.000370306958400514,10559.137749339096
0.00038484361094874304,10960.67842715755
0.0003999509097203664,11376.587138496152
0.00041565125582259895,11807.289649040533
0.00043196792973341727,12253.216337955017
0.0004489251258218605,12714.802530130808
0.0004665479882234472,13192.484899398181
0.000484862648123908,13686.703424789514
0.000503896262506515,14197.899089065422
0.0005236770544204653,14726.512245554515
0.0005442343548300266,15272.983718396186
0.0005655986461065005,15837.749049162461
0.0005878016072274912,16421.240418992966
0.0006108761607505036,17023.883641758315
0.0006348565216305217,17646.09327031706
0.0006597782479539537,18288.276124932763
0.0006856782936641739,18950.822695972958
0.0007125950633568407,19634.108182411193
0.0007405684692262436,20338.49070070244
0.0007696399902471156,21064.301509082423
0.0007998527336796708,21811.8509480625
0.000831251498989063,22581.418331675915
0.0008638828442740447,23373.250038739152
0.000897795155303332,24187.56044221516
0.0009330387172620361,25024.516934772717
0.0009696657893145519,25884.24737466137
0.001007730682094461,26766.84340853024
0.0010472898382363582,27672.358537778582
0.0010884019160690055,28600.797005120086
0.0011311278765939214,29552.08061399696
0.001175531073878369,30526.06274687436
0.0012216773489967915,31522.53581216232
0.0012696351276599736,32541.227065543862
0.0013194755216767058,33581.795470086
0.0013712724343984,34643.81916244766
0.0014251026703029975,35726.79531904289
0.0014810460488806749,36830.13865795397
0.0015391855229902056,37953.17259452933
0.001599607301861487,39095.13170747707
0.0016624009789266115,40255.15006103157
0.0017276596646690358,41432.259031606314
0.0017954801246878305,42625.388827291965
0.0018659629231817451,43833.356166650934
0.001939212572065829,45054.870393784935
0.0020153376859417325,46288.52701052336
0.002094451143151469,47532.80393753657
0.002176670253153458,48786.06691263727
0.002262116930469025,50046.56212136578
0.002350917875457286,51312.42049036395
0.002443204762186487,52581.646905608155
0.0025391144336803463,53852.10943931898
0.002638789104828933,55121.56268731668
0.002742376573264949,56387.66577219335
0.0028500304385181063,57647.97997170895
0.0029619103297725525,58899.85333426426
0.0030781821425650787,60140.24154671766
0.003199018284775064,61365.976888232726
0.0033245979322709396,62574.495572622494
0.003455107294592217,63763.76269248675
0.0035907398910610534,64931.15111116523
0.0037316968377327513,66071.66032057625
0.0038781871456107214,67179.59170582639
0.0040304280305680515,68250.61915080325
0.00418864523543527,69282.16980187273
0.004353073364731888,70271.48316761093
0.00452395623253805,71213.86059096093
0.004701547224022131,72103.84754941834
0.004886109671160325,72936.7720188668
0.005077917243205399,73709.38735727945
0.005277254352483535,74418.526593117
0.005484416576121017,75059.68547944185
0.005699711094326071,75627.66660337949
0.005923457145875801,76117.29219849773
0.006155986501483508,76523.33400955886
0.006397643955748424,76840.69997406864
0.0066487878384172625,77064.17539278136
0.0069097905457156435,77188.54947629644
0.007181039092537346,77208.89109360892
0.007462935686310132,77120.46527036176
0.007755898323389004,76918.92619104704
0.00806036140886134,76599.5800688558
0.008376776400682916,76157.35768396272
0.008705612479099857,75587.73182092042
0.009047357242349292,74886.27307412999
0.00940251742967013,74049.22912920358
0.009771619672696168,73073.35882211183
0.010155211276345676,71955.72469072725
0.010553861030365234,70694.49522511465
0.010968160052731372,69288.05720482362
0.011398722666160517,67735.79533156223
0.011846187309026826,66038.43635419052
0.012311217482038896,64197.58799449298
0.012794502732078732,62216.737405059546
0.013296759674662111,60100.618277268455
0.013818733056536317,57855.58752129616
0.014361196859990781,55490.198665516524
0.014924955450518284,53014.73914651073
0.015510844769528393,50441.730230665016
0.016119733573881575,47786.021993323804
0.01675252472408214,45064.54097461174
0.017410156523040152,42296.143071955
0.018093604107387147,39502.38115995578
0.01880388089340914,36705.69883687812
0.019542040079740527,33930.08790452442
0.02030917620904734,31200.956746732383
0.021106426791015535,28542.191859412236
0.021934973989050584,25980.66232614331
0.02279604637318978,23540.576848486995
0.023690920741826323,21243.3395535441
0.02462092401494623,19110.82323917577
0.02558743520168586,17156.805004681468
0.02659188744512693,15392.559561680077
0.027635770147361564,13824.4377693595
0.028720631177978267,12453.560457857458
0.029848079169243254,11283.817301000849
0.03101978590138095,10313.860055387422
0.03223748878149028,9536.944937961625
0.0335029934197723,8944.73320941835
0.03481817630688963,8527.570887645918
0.03618498759642746,8264.621801190598
0.037605453996581675,8137.973283973474
0.03908168177536263,8127.716803535627
0.04061585988376978,8213.532176592142
0.04221026320156896,8367.789220655712
0.04386725591048496,8554.519185763513
0.0455892949998106,8723.227247973226
0.047378933909631396,8814.80680124141
0.049238826317067365,8777.982858951042
0.05117173007114603,8574.683859308396
0.05318051128214196,8188.306607657609
0.05526814857144601,7619.117242799467
0.057437737488265785,6888.999335667704
0.0596924950997073,6043.681332768153
0.0620357647610427,5143.787987575892
0.06447102107323864,4272.066336070666
0.06700187503509585,3509.024270670616
0.06963207939763882,2900.6353644484507
0.0723655342286965,2467.0232375726387
0.07520629269592405,2206.0497233680894
0.07815856707684081,2101.479268226265
0.08122673500479707,2126.4194231344904
0.08441534596012978,2244.4408796050466
0.0877291280161335,2403.3228445475247
0.09117299484984914,2533.8413896645648
0.09475205302806537,2560.740006969607
0.09847160957933764,2429.692567679465
0.1023371798632519,2147.6009835248396
0.10635449574860109,1784.8106929937674
0.11052951411260206,1426.863615324141
0.1148684256737553,1143.8191008077374
0.1193776641714435,976.1115591142571
0.1240639159058831,923.6182713469452
0.12893412965257148,955.0445994107031
0.13399552696593373,1020.6504428182151
0.1392556128874462,1055.083009797745
0.14472218707411338,1004.836665985235
0.15040335536380234,871.6377238939417
0.15630754179458153,709.3635549369956
0.16244350109588662,583.5272227737355
0.16882033167003618,522.955396236193
0.17544748908334581,518.3692043514709
0.1823348000868439,532.9116502528003
0.189492477187382,520.105469544726
0.19693113379074215,464.02413183273717
0.20466179993919872,390.85181154992534
0.21269593866686892,338.7930507691975
0.22104546299710207,318.7951209251156
0.22972275360711503,313.6306749703497
0.23874067718606454,296.8914773419885
0.2481126055137766,263.0849471934026
0.25785243528842716,230.2708564500813
0.26797460873256895,211.89693120728052
0.27849413500806414,201.66704489031608
0.28942661247167484,186.5824831660575
0.3007882518043098,166.6178209601824
0.31259590004822796,150.8069180117546
0.324867065587837,140.44675600479275
0.3376199441111335,129.4435307742136
0.35087344559027084,116.96181447614381
0.36464722232127456,106.74996179507214
0.37896169806447155,98.42248648039585
0.3938380983288488,89.76561770468898
0.4092984818452433,81.71354539162677
0.4253657732750382,74.93613847674924
0.44206379720285277,68.40559843431663
0.45941731346364734,62.36121361897172
0.47745205385661277,56.883578860697405
0.4961947603002895,51.908122469405086
0.5156732244854959,47.377999404331256
0.5359163290848509,43.244217223422964
0.556954090580013,39.464465215323
0.5788177037701272,36.00216445869307
0.6015395880274836,32.828393988284056
0.6251534353689703,29.92193649079602
0.6496942604146115,27.26314717282184
0.6751984523072497,24.833372754270048
0.7017038286703824,22.614971880765605
0.7292496916841444,20.591294362578168
0.7578768863625915,18.746061892932058
0.7876278611187046,17.063596896526693
0.8185467307069019,15.529582719361482
0.850679341636415,14.130976915149413
0.8840733401525058,12.855894941646142
0.9187782428863317,11.693515855593356
0.9548455102782278,10.634090530804286
0.9923286228832539,9.668764915979844
1.0312831606721837,8.789416812623024
1.0717668854455022,7.98859747024822
1.1138398264826193,7.259478845120459
1.1575643695533022,6.595800650010819
1.2030053494233226,5.991807572236163
1.2502301459914542,5.442230077922992
1.299308784200415,4.9422542921500785
1.3503140378698726,4.487483537233174
1.4033215376054824,4.073903010779272
1.4584098829439835,3.697848492637884
1.5156607589006013,3.3559786723460876
1.575159057091621,3.045243775777907
1.6369930016117014,2.7628599562216754
1.7012542798525885,2.506286748891149
1.7680381784572046,2.2732063678137324
1.8374437246107238,2.0615042547401576
1.9095738328780953,1.8692514259332091
1.9845354578058014,1.6946895178285772
2.0624397525140905,1.5362161524806108
2.143402233514853,1.3923714072362512
2.227542951999554,1.2618254245009763
2.314986671851158,1.1433669997397349
2.405863054644063,1.0358932256689046
2.5003068519063225,0.9384001067649659
2.598458104929248,0.8499738718526144
2.7004623524206774,0.7697830257635603
2.806470846309834,0.6970710745656838
2.916640776023701,0.6311497671202145
3.031135501567576,0.5713931250756914
3.150124795755327,0.5172320168092107
3.2737850959485697,0.46814908532325805
3.4022997656780634,0.4236741173228182
3.5358593665351745,0.38337982986055186
3.6746619407366854,0.3468780774544975
3.8189133047818515,0.313816264854423
3.968827354637162,0.28387410837781235
4.1246263829013445,0.2567607244296743
4.286541408420921,0.23221197535884305
4.4548125188449825,0.20998802873491396
4.629689226627261,0.1898711021411088
4.811430839003257,0.17166354520340665
5.000306842491082,0.1551860271045327
5.196597302486189,0.1402758614627085
5.400593278542364,0.12678548201575238
5.612597255954967,0.11458104742112754
5.8329235942862,0.10354117338845191
6.06189899349756,0.09355580727935803
6.29986297838068,0.0845251857768536
6.547168402004727,0.07635888423483399
6.804181968927091,0.06897495348453579
7.071284778942991,0.062299166655952816
7.348872892180382,0.056264302246109905
7.637357916378006,0.05080944384188082
7.937167617217536,0.045879394062726786
8.248746552614573,0.041424145552586514
8.572556731909314,0.03739839328103351
8.909078300934132,0.03376099853084304
9.258810253973934,0.030474657484308772
9.622271173675122,0.027505643744830256
9.999999999999984,0.024823467348447783
