k [1/Mpc],P(k) [Mpc^3]
0.0001,355.3479504836077
0.00010392556829367125,371.43081265117297
0.00010800523745162529,388.24112164939055
0.00011224505680853065,405.8117104536579
0.00011665131316981963,424.17688765425294
0.00012123054013376525,443.37250683637427
0.00012598952777950273,463.43603450270444
0.00013093533273536104,484.40661672957157
0.00013607528864243335,506.3251484921991
0.00014141701702890234,529.2343583811072
0.00014696843861124463,553.1788848800223
0.00015273778503907136,578.2053623830365
0.00015873361110102093,604.3625095230589
0.00016496480740980205,631.70120819947
0.0001714406135851971,660.2746101581122
0.00017817063195457305,690.1382171920669
0.00018516484179121546,721.3499766334313
0.000192433614111598,753.9704179150837
0.00019998772705352857,788.0627952110417
0.0002078383818579757,823.6931920068762
0.00021599721947827182,860.9305728411808
0.0002244763378413224,899.8468392059253
0.0002332883097864157,940.5170530367175
0.00024244620170823283,983.0196127867308
0.0002519635929317015,1027.4363923334115
0.0002618545958474233,1073.852843154171
0.0002721338768375308,1122.3580676056451
0.0002828166780230032,1173.0450454522352
0.0002939188398646886,1226.0108075424523
0.0003054568246515432,1281.3566047330512
0.00031744774091091926,1339.1880624148112
0.00032990936877709396,1399.615178598628
0.00034286018635565856,1462.752613216771
0.00035631939712285854,1528.7199460174047
0.000370306958400514,1597.6418722666679
0.00038484361094874304,1669.6484058047424
0.0003999509097203664,1744.8749225873173
0.00041565125582259895,1823.4624200494866
0.00043196792973341727,1905.5577806187976
0.0004489251258218605,1991.3138523413645
0.0004665479882234472,2080.889818448661
0.000484862648123908,2174.4513291252656
0.000503896262506515,2272.1707196358093
0.0005236770544204653,2374.227353150779
0.0005442343548300266,2480.8076565779857
0.0005655986461065005,2592.105522892207
0.0005878016072274912,2708.322452765018
0.0006108761607505036,2829.6676331110284
0.0006348565216305217,2956.358474280749
0.0006597782479539537,3088.620631710349
0.0006856782936641739,3226.6883724569066
0.0007125950633568407,3370.804792104494
0.0007405684692262436,3521.2215958418465
0.0007696399902471156,3678.1998445838403
0.0007998527336796708,3842.0100652797846
0.000831251498989063,4012.9324943464594
0.0008638828442740447,4191.257350453644
0.000897795155303332,4377.283965430699
0.0009330387172620361,4571.32175490292
0.0009696657893145519,4773.690348733349
0.001007730682094461,4984.719420382937
0.0010472898382363582,5204.74940067388
0.0010884019160690055,5434.130309901488
0.0011311278765939214,5673.222391335088
0.001175531073878369,5922.39636093238
0.0012216773489967915,6182.032249097536
0.0012696351276599736,6452.520672304594
0.0013194755216767058,6734.261420662443
0.0013712724343984,7027.663315197283
0.0014251026703029975,7333.14506806794
0.0014810460488806749,7651.133180326674
0.0015391855229902056,7982.063152869208
0.001599607301861487,8326.378281184503
0.0016624009789266115,8684.528220077522
0.0017276596646690358,9056.970261767176
0.0017954801246878305,9444.16568619793
0.0018659629231817451,9846.580495831198
0.001939212572065829,10264.685336133154
0.0020153376859417325,10698.952729080693
0.002094451143151469,11149.85823606059
0.002176670253153458,11617.875453256614
0.002262116930469025,12103.474891068716
0.002350917875457286,12607.125356939137
0.002443204762186487,13129.289245969601
0.0025391144336803463,13670.423599854934
0.002638789104828933,14230.975143324938
0.002742376573264949,14811.375892665628
0.0028500304385181063,15412.045689785298
0.0029619103297725525,16033.384251408173
0.0030781821425650787,16675.771623560362
0.003199018284775064,17339.564535953552
0.0033245979322709396,18025.087076915326
0.003455107294592217,18732.635012786286
0.0035907398910610534,19462.465557130945
0.0037316968377327513,20214.794691151183
0.0038781871456107214,20989.79525324333
0.0040304280305680515,21787.57674306099
0.00418864523543527,22608.194217730234
0.004353073364731888,23451.640434865203
0.00452395623253805,24317.83746734506
0.004701547224022131,25206.635642666803
0.004886109671160325,26117.76440539443
0.005077917243205399,27050.848800767362
0.005277254352483535,28005.443995736456
0.005484416576121017,28981.057045717407
0.005699711094326071,29977.097476698753
0.005923457145875801,30992.67316904365
0.006155986501483508,32026.606943526444
0.006397643955748424,33077.589015869395
0.0066487878384172625,34144.24445896736
0.0069097905457156435,35225.07207124633
0.007181039092537346,36318.39964684307
0.007462935686310132,37422.37262037159
0.007755898323389004,38534.94236012141
0.00806036140886134,39653.66406680296
0.008376776400682916,40775.80307063162
0.008705612479099857,41898.35025123929
0.009047357242349292,43017.93658737335
0.00940251742967013,44130.94424249486
0.009771619672696168,45233.37674905258
0.010155211276345676,46320.90004752749
0.010553861030365234,47388.88021546227
0.010968160052731372,48432.1869623603
0.011398722666160517,49445.40548098918
0.011846187309026826,50422.66635150391
0.012311217482038896,51357.61294532475
0.012794502732078732,52243.64009646325
0.013296759674662111,53073.57056475574
0.013818733056536317,53839.957108102586
0.014361196859990781,54535.044402857384
0.014924955450518284,55150.57704507417
0.015510844769528393,55678.28821327937
0.016119733573881575,56109.51746424423
0.01675252472408214,56435.51123343313
0.017410156523040152,56647.69545083786
0.018093604107387147,56737.29007168412
0.01880388089340914,56696.054420456894
0.019542040079740527,56516.1013869774
0.02030917620904734,56190.04856716487
0.021106426791015535,55711.656333469604
0.021934973989050584,55075.49546950967
0.02279604637318978,54277.60932704253
0.023690920741826323,53315.80192493412
0.02462092401494623,52189.69908806836
0.02558743520168586,50901.17891370195
0.02659188744512693,49454.67406359641
0.027635770147361564,47857.122087110256
0.028720631177978267,46118.42479205677
0.029848079169243254,44252.43003565127
0.03101978590138095,42275.102214366954
0.03223748878149028,40205.370540302785
0.0335029934197723,38064.43475640107
0.03481817630688963,35875.36832912807
0.03618498759642746,33669.29448379112
0.037605453996581675,31476.71542009067
0.03908168177536263,29323.669156472897
0.04061585988376978,27231.668467068266
0.04221026320156896,25220.87109343821
0.04386725591048496,23324.475624040744
0.0455892949998106,21572.638781949903
0.047378933909631396,19985.296763406506
0.049238826317067365,18574.34672103271
0.05117173007114603,17346.99289304471
0.05318051128214196,16307.303271591121
0.05526814857144601,15453.686439641551
0.057437737488265785,14781.17301614917
0.0596924950997073,14279.518101532676
0.0620357647610427,13935.162200272325
0.06447102107323864,13727.256342361834
0.06700187503509585,13626.975622734039
0.06963207939763882,13597.06318466183
0.0723655342286965,13593.776317664708
0.07520629269592405,13563.644605862628
0.07815856707684081,13448.461521527168
0.08122673500479707,13195.425133151055
0.08441534596012978,12764.465628693752
0.0877291280161335,12135.010089828063
0.09117299484984914,11311.503536414559
0.09475205302806537,10326.705477586645
0.09847160957933764,9240.721626925613
0.1023371798632519,8132.857399062058
0.10635449574860109,7087.956967525469
0.11052951411260206,6181.003879505619
0.1148684256737553,5465.598964627019
0.1193776641714435,4969.725166059793
0.1240639159058831,4696.680775965487
0.12893412965257148,4625.99451567267
0.13399552696593373,4711.306939673321
0.1392556128874462,4877.234516674227
0.14472218707411338,5022.258866658887
0.15040335536380234,5036.105447937926
0.15630754179458153,4836.377435703166
0.16244350109588662,4410.767768808289
0.16882033167003618,3831.2640609341074
0.17544748908334581,3223.274429381827
0.1823348000868439,2714.285967646081
0.189492477187382,2390.3584019930686
0.19693113379074215,2273.1770006885813
0.20466179993919872,2321.4538508031474
0.21269593866686892,2441.133765558792
0.22104546299710207,2499.9686476635848
0.22972275360711503,2386.79561217659
0.23874067718606454,2096.771520016775
0.2481126055137766,1743.5993860308379
0.25785243528842716,1470.7403639212453
0.26797460873256895,1353.3611388070615
0.27849413500806414,1373.5384385891045
0.28942661247167484,1431.2613896659836
0.3007882518043098,1398.034222890246
0.31259590004822796,1233.9979835674283
0.324867065587837,1030.9615590676246
0.3376199441111335,907.2344834910056
0.35087344559027084,891.844672155414
0.36464722232127456,910.4531864906975
0.37896169806447155,861.8526531213145
0.3938380983288488,742.8042915030026
0.4092984818452433,646.2900527025607
0.4253657732750382,621.5797022594527
0.44206379720285277,617.7736798689862
0.45941731346364734,566.306495888478
0.47745205385661277,492.18158523900547
0.4961947603002895,456.3641846900566
0.5156732244854959,445.0530420121437
0.5359163290848509,408.69136740280504
0.556954090580013,362.5531421414722
0.5788177037701272,341.3087555425092
0.6015395880274836,322.80297468423163
0.6251534353689703,290.99833633453505
0.6496942604146115,265.95976092663284
0.6751984523072497,246.01751702973053
0.7017038286703824,228.52306960113486
0.7292496916841444,211.8350697387131
0.7578768863625915,195.77964000704614
0.7876278611187046,180.5272258719869
0.8185467307069019,166.19855711406507
0.850679341636415,152.87095816342122
0.8840733401525058,140.58523912406022
0.9187782428863317,129.3289454068306
0.9548455102782278,119.00679078190394
0.9923286228832539,109.52145779009831
1.0312831606721837,100.78818421346779
1.0717668854455022,92.73302532487969
1.1138398264826193,85.29141415552381
1.1575643695533022,78.41182031187606
1.2030053494233226,72.05717484429901
1.2502301459914542,66.19314772841348
1.299308784200415,60.786841841265925
1.3503140378698726,55.806849384305295
1.4033215376054824,51.22325897167726
1.4584098829439835,47.0066884424219
1.5156607589006013,43.128408628396656
1.575159057091621,39.56182062071083
1.6369930016117014,36.28239082356616
1.7012542798525885,33.26749110730045
1.7680381784572046,30.49626028567474
1.8374437246107238,27.9496060557219
1.9095738328780953,25.610000927511745
1.9845354578058014,23.461220096001853
2.0624397525140905,21.488247032124363
2.143402233514853,19.677189836306813
2.227542951999554,18.01519994771097
2.314986671851158,16.490376101750098
2.405863054644063,15.091716348539414
2.5003068519063225,13.80907017766025
2.598458104929248,12.633075737747433
2.7004623524206774,11.555101218381793
2.806470846309834,10.5671900137188
2.916640776023701,9.662008652524703
3.031135501567576,8.832801543288687
3.150124795755327,8.073347969955583
3.2737850959485697,7.377921342096581
3.4022997656780634,6.7412513991978
3.5358593665351745,6.158489289318355
3.6746619407366854,5.625175354691007
3.8189133047818515,5.137208582759368
3.968827354637162,4.6908186605024165
4.1246263829013445,4.28254022348301
4.286541408420921,3.909189022343548
4.4548125188449825,3.5678397240505517
4.629689226627261,3.2558053864264567
4.811430839003257,2.9706189999464274
5.000306842491082,2.7100160915415166
5.196597302486189,2.4719185954165463
5.400593278542364,2.2544199457530922
5.612597255954967,2.055770474659353
5.8329235942862,1.874364631523311
6.06189899349756,1.7087308409309454
6.29986297838068,1.5575207002703038
6.547168402004727,1.4194988970161024
6.804181968927091,1.2935339864878168
7.071284778942991,1.1785911071061457
7.348872892180382,1.0737236238596999
7.637357916378006,0.978064320938122
7.937167617217536,0.8908188750732602
8.248746552614573,0.8112599142569669
8.572556731909314,0.7387212851325524
8.909078300934132,0.6725902361576183
9.258810253973934,0.6123049641092736
9.622271173675122,0.5573527824030107
9.999999999999984,0.5072658583522566
