k [1/Mpc],P(k) [Mpc^3]
0.0001,120.5834469408348
0.00010392556829367125,126.0423666882264
0.00010800523745162529,131.74837212505645
0.00011224505680853065,137.7126371907744
0.00011665131316981963,143.94684249770665
0.00012123054013376525,150.46320021266806
0.00012598952777950273,157.27447472567476
0.00013093533273536104,164.39400393710253
0.00013607528864243335,171.83572601095457
0.00014141701702890234,179.61420776293332
0.00014696843861124463,187.74467164348218
0.00015273778503907136,196.2430267561678
0.00015873361110102093,205.12590555876912
0.00016496480740980205,214.4106974691389
0.0001714406135851971,224.11557436013314
0.00017817063195457305,234.25950780717278
0.00018516484179121546,244.86231610842216
0.000192433614111598,255.94472005310905
0.00019998772705352857,267.52839361737057
0.0002078383818579757,279.63598822087135
0.00021599721947827182,292.29114643364403
0.0002244763378413224,305.51855460179524
0.0002332883097864157,319.34401633699713
0.00024244620170823283,333.7945257820767
0.0002519635929317015,348.89829727427724
0.0002618545958474233,364.68478462703024
0.0002721338768375308,381.1847319455311
0.0002828166780230032,398.4302613148847
0.0002939188398646886,416.4549531268526
0.0003054568246515432,435.29389914007874
0.00031744774091091926,454.98374141954594
0.00032990936877709396,475.56272264172577
0.00034286018635565856,497.0707881399634
0.00035631939712285854,519.5496830346182
0.000370306958400514,543.043025656883
0.00038484361094874304,567.596362195385
0.0003999509097203664,593.2572153625655
0.00041565125582259895,620.0752055203083
0.00043196792973341727,648.102132329189
0.0004489251258218605,677.3920673659002
0.0004665479882234472,708.0014684721044
0.000484862648123908,739.9892856326416
0.000503896262506515,773.4170665876906
0.0005236770544204653,808.349008818243
0.0005442343548300266,844.852026358394
0.0005655986461065005,882.9959477242949
0.0005878016072274912,922.8536904152509
0.0006108761607505036,964.5013775475319
0.0006348565216305217,1008.018386979797
0.0006597782479539537,1053.4873631794064
0.0006856782936641739,1100.9944788655994
0.0007125950633568407,1150.6296070431042
0.0007405684692262436,1202.4864732797328
0.0007696399902471156,1256.6627975670535
0.0007998527336796708,1313.2603843090005
0.000831251498989063,1372.3853351898451
0.0008638828442740447,1434.1481137511917
0.000897795155303332,1498.6636211769849
0.0009330387172620361,1566.0515353341027
0.0009696657893145519,1636.4364774508952
0.001007730682094461,1709.9482161350043
0.0010472898382363582,1786.7218007615475
0.0010884019160690055,1866.8976063884481
0.0011311278765939214,1950.6216830382234
0.001175531073878369,2038.045787276414
0.0012216773489967915,2129.3275775658103
0.0012696351276599736,2224.630914146391
0.0013194755216767058,2324.125748168903
0.0013712724343984,2427.9885571729706
0.0014251026703029975,2536.402420288021
0.0014810460488806749,2649.557060911091
0.0015391855229902056,2767.649321805254
0.001599607301861487,2890.883015298042
0.0016624009789266115,3019.4692812498397
0.0017276596646690358,3153.626660396033
0.0017954801246878305,3293.5806887657686
0.0018659629231817451,3439.564699561883
0.001939212572065829,3591.8197369436966
0.0020153376859417325,3750.5947251686257
0.002094451143151469,3916.146741969867
0.002176670253153458,4088.740333092382
0.002262116930469025,4268.648235747135
0.002350917875457286,4456.15083706594
0.002443204762186487,4651.535663461757
0.0025391144336803463,4855.098522065486
0.002638789104828933,5067.143242071099
0.002742376573264949,5287.981887114627
0.0028500304385181063,5517.933973489178
0.0029619103297725525,5757.324713777029
0.0030781821425650787,6006.4867086858385
0.003199018284775064,6265.759150978318
0.0033245979322709396,6535.4876702796
0.003455107294592217,6816.024328128372
0.0035907398910610534,7107.72513736706
0.0037316968377327513,7410.951328913846
0.0038781871456107214,7726.068191784483
0.0040304280305680515,8053.443753073505
0.00418864523543527,8393.449535035475
0.004353073364731888,8746.456662522
0.00452395623253805,9112.836580976815
0.004701547224022131,9492.960578419305
0.004886109671160325,9887.196740789617
0.005077917243205399,10295.911139890597
0.005277254352483535,10719.462476786694
0.005484416576121017,11158.20100318458
0.005699711094326071,11612.469838244106
0.005923457145875801,12082.600474667486
0.006155986501483508,12568.913483741735
0.006397643955748424,13071.71069647201
0.0066487878384172625,13591.269455708072
0.0069097905457156435,14127.849514179063
0.007181039092537346,14681.697490441444
0.007462935686310132,15253.042292901066
0.007755898323389004,15842.06942966307
0.00806036140886134,16448.886738219964
0.008376776400682916,17073.55789145985
0.008705612479099857,17716.118189453795
0.009047357242349292,18376.57085605438
0.00940251742967013,19054.87432268399
0.009771619672696168,19750.936879019904
0.010155211276345676,20464.61451501731
0.010553861030365234,21195.682053041004
0.010968160052731372,21943.816825093167
0.011398722666160517,22708.621978930463
0.011846187309026826,23489.609927959966
0.012311217482038896,24286.20587211375
0.012794502732078732,25097.741679179126
0.013296759674662111,25923.438990610844
0.013818733056536317,26762.4209034897
0.014361196859990781,27613.69007294565
0.014924955450518284,28476.12831982789
0.015510844769528393,29348.50161146275
0.016119733573881575,30229.432984214367
0.01675252472408214,31117.421591959996
0.017410156523040152,32010.835675202838
0.018093604107387147,32907.90673389833
0.01880388089340914,33806.74217305855
0.019542040079740527,34705.30946489951
0.02030917620904734,35601.448022826946
0.021106426791015535,36492.88346782795
0.021934973989050584,37377.235434445174
0.02279604637318978,38252.02037881198
0.023690920741826323,39114.67968475535
0.02462092401494623,39962.583668032494
0.02558743520168586,40793.046272527885
0.02659188744512693,41603.39789007907
0.027635770147361564,42390.9415688429
0.028720631177978267,43153.01629965215
0.029848079169243254,43887.03207645347
0.03101978590138095,44590.44455471763
0.03223748878149028,45261.00506272544
0.0335029934197723,45896.62745495397
0.03481817630688963,46495.23074715457
0.03618498759642746,47054.68435304763
0.037605453996581675,47573.00015895626
0.03908168177536263,48049.40006224562
0.04061585988376978,48484.05163276587
0.04221026320156896,48876.67821118202
0.04386725591048496,49224.84605713308
0.0455892949998106,49525.725170613565
0.047378933909631396,49778.1401304955
0.049238826317067365,49982.9193446067
0.05117173007114603,50141.07384686892
0.05318051128214196,50253.161335226105
0.05526814857144601,50319.621147108024
0.057437737488265785,50339.61005256199
0.0596924950997073,50309.58735314644
0.0620357647610427,50225.82179115718
0.06447102107323864,50084.70522177102
0.06700187503509585,49882.81742251338
0.06963207939763882,49617.788669165275
0.0723655342286965,49289.44104107642
0.07520629269592405,48898.31439224789
0.07815856707684081,48446.07065015798
0.08122673500479707,47934.829991522296
0.08441534596012978,47366.597271228035
0.0877291280161335,46743.76740292479
0.09117299484984914,46070.59816720303
0.09475205302806537,45352.90379979833
0.09847160957933764,44599.088155998455
0.1023371798632519,43817.20341957714
0.10635449574860109,43013.63017838348
0.11052951411260206,42190.09199909762
0.1148684256737553,41345.19588619459
0.1193776641714435,40475.71628990524
0.1240639159058831,39578.80003494606
0.12893412965257148,38652.96496390494
0.13399552696593373,37695.20636561145
0.1392556128874462,36702.479958522614
0.14472218707411338,35688.05223179068
0.15040335536380234,34660.55625297768
0.15630754179458153,33621.61718413963
0.16244350109588662,32582.518035951856
0.16882033167003618,31549.72957762857
0.17544748908334581,30524.504393548974
0.1823348000868439,29504.601614190353
0.189492477187382,28487.114355695638
0.19693113379074215,27471.96200527978
0.20466179993919872,26460.423371660298
0.21269593866686892,25453.171742823633
0.22104546299710207,24455.136798030726
0.22972275360711503,23475.220373785654
0.23874067718606454,22516.959106623224
0.2481126055137766,21579.813639699696
0.25785243528842716,20663.844069624054
0.26797460873256895,19765.971523363394
0.27849413500806414,18884.978533626305
0.28942661247167484,18023.89753848172
0.3007882518043098,17185.604257204515
0.31259590004822796,16373.006902831503
0.324867065587837,15586.383873874931
0.3376199441111335,14824.148250777776
0.35087344559027084,14084.660738499002
0.36464722232127456,13370.050105314283
0.37896169806447155,12682.213204146638
0.3938380983288488,12020.514367710684
0.4092984818452433,11382.331492319958
0.4253657732750382,10768.37306633762
0.44206379720285277,10180.62436737498
0.45941731346364734,9618.040663050784
0.47745205385661277,9078.341358489546
0.4961947603002895,8562.502530689993
0.5156732244854959,8070.621420056811
0.5359163290848509,7600.540135999362
0.556954090580013,7152.696928766197
0.5788177037701272,6727.007881233751
0.6015395880274836,6321.460858101895
0.6251534353689703,5936.67990220528
0.6496942604146115,5571.572970909803
0.6751984523072497,5225.268290382346
0.7017038286703824,4897.711089301953
0.7292496916841444,4587.334186877033
0.7578768863625915,4294.301532087917
0.7876278611187046,4017.1386220974296
0.8185467307069019,3755.85801545481
0.850679341636415,3509.2331215544464
0.8840733401525058,3277.1579862269477
0.9187782428863317,3058.447745666539
0.9548455102782278,2852.7750876286955
0.9923286228832539,2659.5283369129015
1.0312831606721837,2478.0735188200565
1.0717668854455022,2307.7995438638272
1.1138398264826193,2148.1181617122775
1.1575643695533022,1998.4640862933206
1.2030053494233226,1858.2998740749906
1.2502301459914542,1727.1137948760363
1.299308784200415,1604.4135025586165
1.3503140378698726,1489.725860730435
1.4033215376054824,1382.5969434536198
1.4584098829439835,1282.5917750178853
1.5156607589006013,1189.292853262544
1.575159057091621,1102.3010830042115
1.6369930016117014,1021.2364049452163
1.7012542798525885,945.7373341125228
1.7680381784572046,875.4604546554564
1.8374437246107238,810.0797874487365
1.9095738328780953,749.2859247139013
1.9845354578058014,692.7859078794596
2.0624397525140905,640.3027751718868
2.143402233514853,591.5749398894872
2.227542951999554,546.355568251683
2.314986671851158,504.4118464056179
2.405863054644063,465.5242553365154
2.5003068519063225,429.4862646492028
2.598458104929248,396.10376439348096
2.7004623524206774,365.19446116933636
2.806470846309834,336.58728728448796
2.916640776023701,310.12171988894346
3.031135501567576,285.64723561910387
3.150124795755327,263.0229456380457
3.2737850959485697,242.1170770773949
3.4022997656780634,222.80646291884779
3.5358593665351745,204.9760487247625
3.6746619407366854,188.51837258471633
3.8189133047818515,173.333153896554
3.968827354637162,159.32691497365707
4.1246263829013445,146.4125696949226
4.286541408420921,134.50903136486895
4.4548125188449825,123.54083529445582
4.629689226627261,113.43776066416753
4.811430839003257,104.13452622866625
5.000306842491082,95.57048769480848
5.196597302486189,87.68933591522764
5.400593278542364,80.43881211291367
5.612597255954967,73.77042033747335
5.8329235942862,67.63913985899293
6.06189899349756,62.00325455932002
6.29986297838068,56.82413998334057
6.547168402004727,52.06604809987728
6.804181968927091,47.69590621426714
7.071284778942991,43.68316726191607
7.348872892180382,39.99964673812911
7.637357916378006,36.61927875788342
7.937167617217536,33.51796040766738
8.248746552614573,30.67341428459704
8.572556731909314,28.065052569658263
8.909078300934132,25.673713181254204
9.258810253973934,23.481609251972476
9.622271173675122,21.472396574109286
9.999999999999984,19.631063027661654
