k [1/Mpc],P(k) [Mpc^3]
0.0001,233.28437760693208
0.00010392556829367125,242.43455326501635
0.00010800523745162529,251.94299651294853
0.00011224505680853065,261.82366916632066
0.00011665131316981963,272.0910752824124
0.00012123054013376525,282.76026544257644
0.00012598952777950273,293.84683252477805
0.00013093533273536104,305.3669608983835
0.00013607528864243335,317.33747607659905
0.00014141701702890234,329.7758679057358
0.00014696843861124463,342.70028491715817
0.00015273778503907136,356.129513330978
0.00015873361110102093,370.0830368197086
0.00016496480740980205,384.58108253562295
0.0001714406135851971,399.6446512663146
0.00017817063195457305,415.2955319885309
0.00018516484179121546,431.55629410333756
0.000192433614111598,448.4503351286439
0.00019998772705352857,466.0019224598728
0.0002078383818579757,484.2362209625764
0.00021599721947827182,503.1793224079006
0.0002244763378413224,522.8582000008785
0.0002332883097864157,543.3007594270048
0.00024244620170823283,564.5359293342897
0.0002519635929317015,586.5937202330815
0.0002618545958474233,609.5052328706441
0.0002721338768375308,633.3025768728437
0.0002828166780230032,658.0188925884695
0.0002939188398646886,683.6884797203782
0.0003054568246515432,710.3468321152413
0.00031744774091091926,738.0306774132374
0.00032990936877709396,766.7779332790271
0.00034286018635565856,796.6276917148632
0.00035631939712285854,827.6203409808429
0.000370306958400514,859.797510256698
0.00038484361094874304,893.2021483017678
0.0003999509097203664,927.8785718987033
0.00041565125582259895,963.8724520798224
0.00043196792973341727,1001.2308933662996
0.0004489251258218605,1040.0022844739506
0.0004665479882234472,1080.2363544577358
0.000484862648123908,1121.984285124447
0.000503896262506515,1165.2986109341134
0.0005236770544204653,1210.2333522649994
0.0005442343548300266,1256.8439396729266
0.0005655986461065005,1305.1871994335356
0.0005878016072274912,1355.321455970797
0.0006108761607505036,1407.3063245307621
0.0006348565216305217,1461.2028584042796
0.0006597782479539537,1517.073400189028
0.0006856782936641739,1574.981374292308
0.0007125950633568407,1634.991580321888
0.0007405684692262436,1697.1699500257105
0.0007696399902471156,1761.5836232992053
0.0007998527336796708,1828.3008385442038
0.000831251498989063,1897.3904804189224
0.0008638828442740447,1968.9224464581541
0.000897795155303332,2042.9670458908115
0.0009330387172620361,2119.5949423486736
0.0009696657893145519,2198.877369988987
0.001007730682094461,2280.885377760497
0.0010472898382363582,2365.6902374815645
0.0010884019160690055,2453.3629928070172
0.0011311278765939214,2543.9740915582106
0.001175531073878369,2637.593653097303
0.0012216773489967915,2734.2902965722046
0.0012696351276599736,2834.1314994374698
0.0013194755216767058,2937.1833111064407
0.0013712724343984,3043.50953200386
0.0014251026703029975,3153.172182765347
0.0014810460488806749,3266.230102769528
0.0015391855229902056,3382.738970989728
0.001599607301861487,3502.751294903963
0.0016624009789266115,3626.3150177266302
0.0017276596646690358,3753.474151581422
0.0017954801246878305,3884.26746812958
0.0018659629231817451,4018.7279672985505
0.001939212572065829,4156.883104605451
0.0020153376859417325,4298.752687501791
0.002094451143151469,4444.349590687666
0.002176670253153458,4593.678790898026
0.002262116930469025,4746.736198831126
0.002350917875457286,4903.509195786624
0.002443204762186487,5063.974127339176
0.0025391144336803463,5228.096692740054
0.002638789104828933,5395.831008670418
0.002742376573264949,5567.117017961612
0.0028500304385181063,5741.882185426071
0.0029619103297725525,5920.038407175401
0.0030781821425650787,6101.48186735952
0.003199018284775064,6286.092935393646
0.0033245979322709396,6473.731213129614
0.003455107294592217,6664.238810907004
0.0035907398910610534,6857.438481879578
0.0037316968377327513,7053.132498298506
0.0038781871456107214,7251.101126072606
0.0040304280305680515,7451.084118583942
0.00418864523543527,7652.792003331546
0.004353073364731888,7855.931472154427
0.00452395623253805,8060.220971129371
0.004701547224022131,8265.35231681399
0.004886109671160325,8470.878567969597
0.005077917243205399,8676.25450014703
0.005277254352483535,8880.939372952831
0.005484416576121017,9084.47144431567
0.005699711094326071,9286.380388730176
0.005923457145875801,9486.068610313694
0.006155986501483508,9682.818079304772
0.006397643955748424,9875.89313778617
0.0066487878384172625,10064.605246681287
0.0069097905457156435,10248.263518675918
0.007181039092537346,10426.07629115364
0.007462935686310132,10597.123064499367
0.007755898323389004,10760.44381684745
0.00806036140886134,10914.98750721143
0.008376776400682916,11059.656686056214
0.008705612479099857,11193.31589249702
0.009047357242349292,11314.770698776318
0.00940251742967013,11422.81518468652
0.009771619672696168,11516.136472915288
0.010155211276345676,11593.366898328823
0.010553861030365234,11653.121371
0.010968160052731372,11693.901009370466
0.011398722666160517,11714.239435190822
0.011846187309026826,11712.611022500143
0.012311217482038896,11687.45964164634
0.012794502732078732,11637.316005367265
0.013296759674662111,11560.61718587912
0.013818733056536317,11455.935484406948
0.014361196859990781,11321.908709846673
0.014924955450518284,11157.19819477662
0.015510844769528393,10960.768056679284
0.016119733573881575,10731.607127538542
0.01675252472408214,10469.0215128487
0.017410156523040152,10172.669939588539
0.018093604107387147,9842.36458054122
0.01880388089340914,9478.570985775928
0.019542040079740527,9082.03870203266
0.02030917620904734,8654.067355047891
0.021106426791015535,8196.742454025767
0.021934973989050584,7712.464352393692
0.02279604637318978,7204.636167395819
0.023690920741826323,6677.206311889358
0.02462092401494623,6134.707765301167
0.02558743520168586,5582.733459276443
0.02659188744512693,5027.106850090141
0.027635770147361564,4474.498807432098
0.028720631177978267,3931.838602298324
0.029848079169243254,3405.86155585763
0.03101978590138095,2903.847648316384
0.03223748878149028,2432.7176973754326
0.0335029934197723,1998.898131936986
0.03481817630688963,1607.4037757568901
0.03618498759642746,1261.0548530956912
0.037605453996581675,962.1189405905141
0.03908168177536263,712.3620017254233
0.04061585988376978,511.1674224131138
0.04221026320156896,355.23358273069204
0.04386725591048496,239.13800763438323
0.0455892949998106,156.8216419618183
0.047378933909631396,101.64854346977457
0.049238826317067365,67.17937214393552
0.05117173007114603,47.69971029512383
0.05318051128214196,38.71179836356984
0.05526814857144601,37.96384651427143
0.057437737488265785,44.67863602339548
0.0596924950997073,60.213275003680344
0.0620357647610427,86.32410028719377
0.06447102107323864,124.56541194476308
0.06700187503509585,174.61024877209275
0.06963207939763882,233.27825976111342
0.0723655342286965,294.10090916631987
0.07520629269592405,347.8444246547192
0.07815856707684081,384.0694765137078
0.08122673500479707,393.7943842457644
0.08441534596012978,372.3478993600192
0.0877291280161335,321.6752578201823
0.09117299484984914,250.70854984637853
0.09475205302806537,173.2032736754791
0.09847160957933764,103.49662640085107
0.1023371798632519,51.778689145670555
0.10635449574860109,21.019469785438087
0.11052951411260206,7.111710098192297
0.1148684256737553,2.8880849640704715
0.1193776641714435,3.256437177936448
0.1240639159058831,8.517354336096533
0.12893412965257148,22.903518460584696
0.13399552696593373,48.2873940850172
0.1392556128874462,78.28195536857295
0.14472218707411338,99.42735999414172
0.15040335536380234,99.42523672979762
0.15630754179458153,76.89335744259706
0.16244350109588662,44.25947056646986
0.16882033167003618,17.949291387159025
0.17544748908334581,5.087936300842761
0.1823348000868439,1.796212984299127
0.189492477187382,3.0468535774780396
0.19693113379074215,10.175000295712644
0.20466179993919872,24.179111100982507
0.21269593866686892,36.155057651089926
0.22104546299710207,34.33442999285019
0.22972275360711503,20.364469925704547
0.23874067718606454,7.364510185642413
0.2481126055137766,2.2817237324965123
0.25785243528842716,2.436809805924274
0.26797460873256895,6.9974362581773715
0.27849413500806414,14.198627497907644
0.28942661247167484,15.411693381380289
0.3007882518043098,8.799604212252216
0.31259590004822796,3.113101791839156
0.324867065587837,1.9608504267033544
0.3376199441111335,4.1662533242847894
0.35087344559027084,7.562939001780323
0.36464722232127456,6.652981771084432
0.37896169806447155,3.054171897796124
0.3938380983288488,1.7517264446272864
0.4092984818452433,2.9123495711318146
0.4253657732750382,4.31013296337814
0.44206379720285277,3.033599368294877
0.45941731346364734,1.5946033047580044
0.47745205385661277,1.8650135357301403
0.4961947603002895,2.5930800288521487
0.5156732244854959,1.8901494380429318
0.5359163290848509,1.3064180775540024
0.556954090580013,1.4190323079602463
0.5788177037701272,1.3831832927987235
0.6015395880274836,1.234495811181103
0.6251534353689703,1.0741539029626255
0.6496942604146115,0.9555022883896164
0.6751984523072497,0.8698441906087683
0.7017038286703824,0.8041333857308937
0.7292496916841444,0.7490727265973468
0.7578768863625915,0.697688423632456
0.7876278611187046,0.6448190375752276
0.8185467307069019,0.5896379676790374
0.850679341636415,0.5348485136969933
0.8840733401525058,0.4826558209626101
0.9187782428863317,0.4345796090713898
0.9548455102782278,0.39155233886535334
0.9923286228832539,0.35393710870664336
1.0312831606721837,0.3210278674034708
1.0717668854455022,0.291881279033482
1.1138398264826193,0.26575428559343
1.1575643695533022,0.2420630488949414
1.2030053494233226,0.2203508710290642
1.2502301459914542,0.20032608920250344
1.299308784200415,0.18191203034406453
1.3503140378698726,0.1650490146569868
1.4033215376054824,0.14966439571211643
1.4584098829439835,0.13567647199770724
1.5156607589006013,0.12299705127442663
1.575159057091621,0.11151674725940935
1.6369930016117014,0.10111479587423619
1.7012542798525885,0.09168299563654822
1.7680381784572046,0.08312517958467303
1.8374437246107238,0.07535574384928923
1.9095738328780953,0.06829894791713914
1.9845354578058014,0.06189061393034809
2.0624397525140905,0.05607361806209954
2.143402233514853,0.05079550745815341
2.227542951999554,0.046008162406732445
2.314986671851158,0.04166748101668963
2.405863054644063,0.03773279790673456
2.5003068519063225,0.034166366937865074
2.598458104929248,0.030933855015960698
2.7004623524206774,0.0280041354836064
2.806470846309834,0.025348986479535842
2.916640776023701,0.022942823537696264
3.031135501567576,0.020762552191109132
3.150124795755327,0.01878729030919452
3.2737850959485697,0.016998050270869647
3.4022997656780634,0.015377567537259733
3.5358593665351745,0.013910148444451877
3.6746619407366854,0.012581522854835492
3.8189133047818515,0.011378683280481743
3.968827354637162,0.010289814434770296
4.1246263829013445,0.00930420334564483
4.286541408420921,0.008412137114830001
4.4548125188449825,0.007604810135913958
4.629689226627261,0.0068742480794878325
4.811430839003257,0.006213236358475448
5.000306842491082,0.005615230727455178
5.196597302486189,0.005074293718335595
5.400593278542364,0.0045850393980643245
5.612597255954967,0.0041425826925319785
5.8329235942862,0.0037424882882447254
6.06189899349756,0.003380732319916535
6.29986297838068,0.003053669959451649
6.547168402004727,0.0027580001613679997
6.804181968927091,0.0024907334927164646
7.071284778942991,0.0022491634623473503
7.348872892180382,0.0020308418469862704
7.637357916378006,0.0018335520081295626
7.937167617217536,0.0016552863290815033
8.248746552614573,0.0014942267595638016
8.572556731909314,0.0013487271276919404
8.909078300934132,0.0012172952121146394
9.258810253973934,0.0010985774355554262
9.622271173675122,0.000991349793813825
9.999999999999984,0.0008945058763911455
