k [1/Mpc],P(k) [Mpc^3]
0.0001,26.90580382715816
0.00010392556829367125,28.12385346463107
0.00010800523745162529,29.397035371558776
0.00011224505680853065,30.727842790840104
0.00011665131316981963,32.11888201937409
0.00012123054013376525,33.572877959897895
0.00012598952777950273,35.092678732799996
0.00013093533273536104,36.6812604259273
0.00013607528864243335,38.34173306404601
0.00014141701702890234,40.07734694307666
0.00014696843861124463,41.89149865082456
0.00015273778503907136,43.78773798811633
0.00015873361110102093,45.76977615791984
0.00016496480740980205,47.841493263825505
0.0001714406135851971,50.006943998733846
0.00017817063195457305,52.270361493306815
0.00018516484179121546,54.6361678075877
0.000192433614111598,57.10898637459527
0.00019998772705352857,59.69365331209607
0.0002078383818579757,62.39522283498748
0.00021599721947827182,65.21897031370715
0.0002244763378413224,68.17040401661538
0.0002332883097864157,71.25528150771697
0.00024244620170823283,74.47962599442397
0.0002519635929317015,77.84973294632397
0.0002618545958474233,81.37217439752492
0.0002721338768375308,85.05381028514266
0.0002828166780230032,88.90180801517097
0.0002939188398646886,92.92366038580148
0.0003054568246515432,97.12719742676022
0.00031744774091091926,101.52059508787508
0.00032990936877709396,106.1123864636716
0.00034286018635565856,110.9114845627763
0.00035631939712285854,115.92720398058029
0.000370306958400514,121.1692772823082
0.00038484361094874304,126.64786719632245
0.0003999509097203664,132.37357747306078
0.00041565125582259895,138.35747991181694
0.00043196792973341727,144.61113257915082
0.0004489251258218605,151.14660047462928
0.0004665479882234472,157.97648104550416
0.000484862648123908,165.1139278113335
0.000503896262506515,172.57267392924024
0.0005236770544204653,180.36704379343908
0.0005442343548300266,188.51196794307393
0.0005655986461065005,197.02302722613652
0.0005878016072274912,205.91649173592444
0.0006108761607505036,215.20934683556197
0.0006348565216305217,224.91930411936406
0.0006597782479539537,235.06480406056806
0.0006856782936641739,245.66507439181825
0.0007125950633568407,256.74016849105277
0.0007405684692262436,268.31099935922737
0.0007696399902471156,280.3993712737105
0.0007998527336796708,293.02799986745583
0.000831251498989063,306.2205596262667
0.0008638828442740447,320.00169829787194
0.000897795155303332,334.3970538018465
0.0009330387172620361,349.4333298797928
0.0009696657893145519,365.1383332863507
0.001007730682094461,381.54101931172545
0.0010472898382363582,398.6715215446151
0.0010884019160690055,416.56116189417475
0.0011311278765939214,435.24252852531856
0.001175531073878369,454.7494829048191
0.0012216773489967915,475.1172033907274
0.0012696351276599736,496.38225214463216
0.0013194755216767058,518.5825503940167
0.0013712724343984,541.75747560056
0.0014251026703029975,565.9478782397312
0.0014810460488806749,591.1960913234949
0.0015391855229902056,617.5460364090997
0.001599607301861487,645.043190173828
0.0016624009789266115,673.7346642885411
0.0017276596646690358,703.6692217825249
0.0017954801246878305,734.8971865460818
0.0018659629231817451,767.4706222541289
0.001939212572065829,801.4433131285381
0.0020153376859417325,836.8708016787317
0.002094451143151469,873.8104497004882
0.002176670253153458,912.3212853282475
0.002262116930469025,952.4641644595707
0.002350917875457286,994.301649920083
0.002443204762186487,1037.8978975243547
0.0025391144336803463,1083.318910764877
0.002638789104828933,1130.6324830983583
0.002742376573264949,1179.908245333883
0.0028500304385181063,1231.2174911931022
0.0029619103297725525,1284.6327854115816
0.0030781821425650787,1340.2283412384863
0.003199018284775064,1398.0798428092817
0.0033245979322709396,1458.2644105175757
0.003455107294592217,1520.8605999108777
0.0035907398910610534,1585.9478481917326
0.0037316968377327513,1653.6067568727653
0.0038781871456107214,1723.9188329505616
0.0040304280305680515,1796.966194369663
0.00418864523543527,1872.8317389502297
0.004353073364731888,1951.5982758398352
0.00452395623253805,2033.3486857198268
0.004701547224022131,2118.1658141454304
0.004886109671160325,2206.131792191421
0.005077917243205399,2297.328301517792
0.005277254352483535,2391.835379150499
0.005484416576121017,2489.731176808946
0.005699711094326071,2591.0922547262185
0.005923457145875801,2695.9925789220506
0.006155986501483508,2804.5036785190528
0.006397643955748424,2916.6929011177426
0.0066487878384172625,3032.6221302726053
0.0069097905457156435,3152.349324651691
0.007181039092537346,3275.929512293
0.007462935686310132,3403.4137695657882
0.007755898323389004,3534.843488923266
0.00806036140886134,3670.2427321624036
0.008376776400682916,3809.625706624925
0.008705612479099857,3953.000288821336
0.009047357242349292,4100.367198090383
0.00940251742967013,4251.717159228682
0.009771619672696168,4407.029708897241
0.010155211276345676,4566.272714111695
0.010553861030365234,4729.395930950241
0.010968160052731372,4896.327362450847
0.011398722666160517,5066.978458908909
0.011846187309026826,5241.240425049855
0.012311217482038896,5418.985005642478
0.012794502732078732,5600.0631202391605
0.013296759674662111,5784.301093573049
0.013818733056536317,5971.503262155344
0.014361196859990781,6161.447088265471
0.014924955450518284,6353.883072410436
0.015510844769528393,6548.535864682135
0.016119733573881575,6745.09822296398
0.01675252472408214,6943.235263220243
0.017410156523040152,7142.582890693081
0.018093604107387147,7342.746499684328
0.01880388089340914,7543.303795171231
0.019542040079740527,7743.801258903847
0.02030917620904734,7943.756798849378
0.021106426791015535,8142.662932454439
0.021934973989050584,8339.988528393318
0.02279604637318978,8535.17943312532
0.023690920741826323,8727.664742213998
0.02462092401494623,8916.857693793118
0.02558743520168586,9102.158947731457
0.02659188744512693,9282.97283393219
0.027635770147361564,9458.697581098648
0.028720631177978267,9628.739437829186
0.029848079169243254,9792.52049565834
0.03101978590138095,9949.473034583825
0.03223748878149028,10099.09530812482
0.0335029934197723,10240.9218342967
0.03481817630688963,10374.488282750799
0.03618498759642746,10499.319255429335
0.037605453996581675,10614.97114420919
0.03908168177536263,10721.27033092484
0.04061585988376978,10818.254205463789
0.04221026320156896,10905.861036784316
0.04386725591048496,10983.547784009912
0.0455892949998106,11050.682988786128
0.047378933909631396,11107.004379208443
0.049238826317067365,11152.696798048144
0.05117173007114603,11187.98583746611
0.05318051128214196,11212.995936693884
0.05526814857144601,11227.825125162532
0.057437737488265785,11232.285252837666
0.0596924950997073,11225.586283108985
0.0620357647610427,11206.895659847398
0.06447102107323864,11175.40829712067
0.06700187503509585,11130.361040140297
0.06963207939763882,11071.225131961797
0.0723655342286965,10997.960873121972
0.07520629269592405,10910.688721330544
0.07815856707684081,10809.779502731897
0.08122673500479707,10695.70629269613
0.08441534596012978,10568.916434815292
0.0877291280161335,10429.944306555562
0.09117299484984914,10279.73994718197
0.09475205302806537,10119.600688045333
0.09847160957933764,9951.401682721875
0.1023371798632519,9776.939616266576
0.10635449574860109,9597.63819026804
0.11052951411260206,9413.881984435639
0.1148684256737553,9225.360179454801
0.1193776641714435,9031.353057888968
0.1240639159058831,8831.223990280196
0.12893412965257148,8624.642262607756
0.13399552696593373,8410.937433186995
0.1392556128874462,8189.430230989689
0.14472218707411338,7963.080809864982
0.15040335536380234,7733.815467560571
0.15630754179458153,7501.996826746276
0.16244350109588662,7270.142467401041
0.16882033167003618,7039.696213295916
0.17544748908334581,6810.937553784033
0.1823348000868439,6583.366483289915
0.189492477187382,6356.334388353002
0.19693113379074215,6129.823281829657
0.20466179993919872,5904.118504513819
0.21269593866686892,5679.370287261726
0.22104546299710207,5456.678590196356
0.22972275360711503,5238.029681522476
0.23874067718606454,5024.212691516486
0.2481126055137766,4815.107273399464
0.25785243528842716,4610.7268365373975
0.26797460873256895,4410.384391497378
0.27849413500806414,4213.808284607697
0.28942661247167484,4021.6751442603168
0.3007882518043098,3834.626630157581
0.31259590004822796,3653.3116523401404
0.324867065587837,3477.7923299126173
0.3376199441111335,3307.714573260111
0.35087344559027084,3142.7126062175844
0.36464722232127456,2983.2614211913074
0.37896169806447155,2829.784263277771
0.3938380983288488,2682.139295933787
0.4092984818452433,2539.7414487438687
0.4253657732750382,2402.7488068299517
0.44206379720285277,2271.6043455033864
0.45941731346364734,2146.0749534606316
0.47745205385661277,2025.6517612018868
0.4961947603002895,1910.552560944194
0.5156732244854959,1800.7990499546243
0.5359163290848509,1695.909737760106
0.556954090580013,1595.9824112087838
0.5788177037701272,1500.9983458594368
0.6015395880274836,1410.5085736403064
0.6251534353689703,1324.652337329029
0.6496942604146115,1243.1859692777675
0.6751984523072497,1165.9149504515253
0.7017038286703824,1092.8270597166852
0.7292496916841444,1023.5726117722395
0.7578768863625915,958.1881885804245
0.7876278611187046,896.3447840870423
0.8185467307069019,838.0452004831956
0.850679341636415,783.015748410618
0.8840733401525058,731.2327862985247
0.9187782428863317,682.4319352961791
0.9548455102782278,636.5401621700418
0.9923286228832539,593.420983734663
1.0312831606721837,552.9329411139023
1.0717668854455022,514.9396818128092
1.1138398264826193,479.30994944061115
1.1575643695533022,445.91761162551416
1.2030053494233226,414.6427485061597
1.2502301459914542,385.37117764525243
1.299308784200415,357.9930417702074
1.3503140378698726,332.4027698820395
1.4033215376054824,308.49907741353576
1.4584098829439835,286.1849081647997
1.5156607589006013,265.3671048118545
1.575159057091621,245.9566171825174
1.6369930016117014,227.86864258483286
1.7012542798525885,211.0225228188763
1.7680381784572046,195.3416314508892
1.8374437246107238,180.75323270644262
1.9095738328780953,167.18828837837714
1.9845354578058014,154.5814305737192
2.0624397525140905,142.87086076758715
2.143402233514853,131.998211077339
2.227542951999554,121.90840544198441
2.314986671851158,112.54949606925072
2.405863054644063,103.87250164621523
2.5003068519063225,95.83133901272754
2.598458104929248,88.38269638451332
2.7004623524206774,81.48589860603356
2.806470846309834,75.10277531571336
2.916640776023701,69.19750902432645
3.031135501567576,63.736513429646934
3.150124795755327,58.688351982928886
3.2737850959485697,54.023622182948856
3.4022997656780634,49.7148417531877
3.5358593665351745,45.73633857854862
3.6746619407366854,42.06413466574912
3.8189133047818515,38.675854387970524
3.968827354637162,35.55064005402737
4.1246263829013445,32.66906012377123
4.286541408420921,30.01302170985338
4.4548125188449825,27.565686364122723
4.629689226627261,25.311385703874954
4.811430839003257,23.235553514383167
5.000306842491082,21.32465822480616
5.196597302486189,19.566135566074205
5.400593278542364,17.94832502890388
5.612597255954967,16.460405704117417
5.8329235942862,15.092332109039138
6.06189899349756,13.834796119544938
6.29986297838068,12.679179454779579
6.547168402004727,11.61750565082147
6.804181968927091,10.642395192013916
7.071284778942991,9.74703210694198
7.348872892180382,8.925127582559368
7.637357916378006,8.170865533766523
7.937167617217536,7.478867873611554
8.248746552614573,6.844163841621273
8.572556731909314,6.262159674441951
8.909078300934132,5.728579733738104
9.258810253973934,5.23945523293547
9.622271173675122,4.7911392863516005
9.999999999999984,4.380282237246065
