k [1/Mpc],P(k) [Mpc^3]
0.0001,504.55035942372234
0.00010392556829367125,521.3347897810465
0.00010800523745162529,538.6773616390287
0.00011224505680853065,556.596579025898
0.00011665131316981963,575.1116048256338
0.00012123054013376525,594.2422762677268
0.00012598952777950273,614.0090745718989
0.00013093533273536104,634.4330888380641
0.00013607528864243335,655.5360865994983
0.00014141701702890234,677.340581273658
0.00014696843861124463,699.8698653195024
0.00015273778503907136,723.1480037267382
0.00015873361110102093,747.1998486504482
0.00016496480740980205,772.0510705914229
0.0001714406135851971,797.7281640261905
0.00017817063195457305,824.2584505163408
0.00018516484179121546,851.6701464831165
0.000192433614111598,879.9924322158324
0.00019998772705352857,909.2554720148787
0.0002078383818579757,939.4904162880174
0.00021599721947827182,970.7294153353972
0.0002244763378413224,1003.0056700942603
0.0002332883097864157,1036.3534549767674
0.00024244620170823283,1070.8081519149105
0.0002519635929317015,1106.4062939008086
0.0002618545958474233,1143.1855804267582
0.0002721338768375308,1181.1849311625942
0.0002828166780230032,1220.4445190570984
0.0002939188398646886,1261.0058027297828
0.0003054568246515432,1302.911582315362
0.00031744774091091926,1346.2060329759574
0.00032990936877709396,1390.93475332277
0.00034286018635565856,1437.1447997586938
0.00035631939712285854,1484.8847105342957
0.000370306958400514,1534.2045751722658
0.00038484361094874304,1585.1560247161058
0.0003999509097203664,1637.79228945178
0.00041565125582259895,1692.1682596435098
0.00043196792973341727,1748.3404458204402
0.0004489251258218605,1806.3671111690346
0.0004665479882234472,1866.3084165488694
0.000484862648123908,1928.2264953126528
0.000503896262506515,1992.1853932364538
0.0005236770544204653,2058.2508584986867
0.0005442343548300266,2126.4905543596096
0.0005655986461065005,2196.974263158989
0.0005878016072274912,2269.773987160524
0.0006108761607505036,2344.963905308356
0.0006348565216305217,2422.620030562421
0.0006597782479539537,2502.8203922243865
0.0006856782936641739,2585.6454409225425
0.0007125950633568407,2671.178353313299
0.0007405684692262436,2759.5048217403555
0.0007696399902471156,2850.712475209184
0.0007998527336796708,2944.8909140891924
0.000831251498989063,3042.1323196922717
0.0008638828442740447,3142.531794755525
0.000897795155303332,3246.187225076468
0.0009330387172620361,3353.1987620194564
0.0009696657893145519,3463.6686069265347
0.001007730682094461,3577.7016530406127
0.0010472898382363582,3695.405628298594
0.0010884019160690055,3816.8911290772844
0.0011311278765939214,3942.271290222209
0.001175531073878369,4071.6613431592373
0.0012216773489967915,4205.179246935367
0.0012696351276599736,4342.94556904898
0.0013194755216767058,4485.083562748294
0.0013712724343984,4631.719000562156
0.0014251026703029975,4782.979204321206
0.0014810460488806749,4938.993920871789
0.0015391855229902056,5099.895286695513
0.001599607301861487,5265.817752217112
0.0016624009789266115,5436.898076475289
0.0017276596646690358,5613.2738613454685
0.0017954801246878305,5795.084406740036
0.0018659629231817451,5982.47079891117
0.001939212572065829,6175.575489078727
0.0020153376859417325,6374.542610408435
0.002094451143151469,6579.516148232168
0.002176670253153458,6790.640441540143
0.002262116930469025,7008.060446624501
0.002350917875457286,7231.920446287201
0.002443204762186487,7462.365019491887
0.0025391144336803463,7699.53751971031
0.002638789104828933,7943.579851091568
0.002742376573264949,8194.63287792448
0.0028500304385181063,8452.833893834937
0.0029619103297725525,8718.31804817625
0.0030781821425650787,8991.217158858264
0.003199018284775064,9271.658569370818
0.0033245979322709396,9559.766149570316
0.003455107294592217,9855.657004225683
0.0035907398910610534,10159.442518331583
0.0037316968377327513,10471.227300436527
0.0038781871456107214,10791.106185877967
0.0040304280305680515,11119.166632891276
0.00418864523543527,11455.48511796722
0.004353073364731888,11800.127189834217
0.00452395623253805,12153.146976253704
0.004701547224022131,12514.580995372784
0.004886109671160325,12884.452262770592
0.005077917243205399,13262.766308105578
0.005277254352483535,13649.509381910251
0.005484416576121017,14044.650436794394
0.005699711094326071,14448.132991367078
0.005923457145875801,14859.878873668455
0.006155986501483508,15279.781328048995
0.006397643955748424,15707.697010022695
0.0066487878384172625,16143.457660980037
0.0069097905457156435,16586.87757846687
0.007181039092537346,17037.749875944133
0.007462935686310132,17495.812393945853
0.007755898323389004,17960.695102789825
0.00806036140886134,18431.978242101133
0.008376776400682916,18909.24053929438
0.008705612479099857,19392.05682334136
0.009047357242349292,19879.945384241266
0.00940251742967013,20372.2919104016
0.009771619672696168,20868.408911857445
0.010155211276345676,21367.580396268422
0.010553861030365234,21869.071129144606
0.010968160052731372,22372.08878688912
0.011398722666160517,22875.7062889857
0.011846187309026826,23378.90339267295
0.012311217482038896,23880.57857371367
0.012794502732078732,24379.5232777823
0.013296759674662111,24874.459492924947
0.013818733056536317,25364.017282358305
0.014361196859990781,25846.745391914912
0.014924955450518284,26321.109893375015
0.015510844769528393,26785.439515760023
0.016119733573881575,27237.988539718775
0.01675252472408214,27676.910060895432
0.017410156523040152,28100.25759490871
0.018093604107387147,28506.02780686395
0.01880388089340914,28892.11369420414
0.019542040079740527,29256.358710620934
0.02030917620904734,29596.55583247109
0.021106426791015535,29910.4373413843
0.021934973989050584,30195.739024087336
0.02279604637318978,30450.201284110506
0.023690920741826323,30671.597318493375
0.02462092401494623,30857.76504020078
0.02558743520168586,31006.628454420694
0.02659188744512693,31116.226290243954
0.027635770147361564,31184.883831833948
0.028720631177978267,31211.20571034398
0.029848079169243254,31193.957961032917
0.03101978590138095,31132.055540854573
0.03223748878149028,31024.630202133274
0.0335029934197723,30872.02665936189
0.03481817630688963,30676.044981809853
0.03618498759642746,30438.50465413797
0.037605453996581675,30159.91047039116
0.03908168177536263,29840.364798128834
0.04061585988376978,29481.57551947903
0.04221026320156896,29088.09885205602
0.04386725591048496,28664.746825802984
0.0455892949998106,28216.016497820496
0.047378933909631396,27746.14350463786
0.049238826317067365,27259.57131554906
0.05117173007114603,26761.641422598193
0.05318051128214196,26257.616275691118
0.05526814857144601,25752.559796771664
0.057437737488265785,25251.269379263256
0.0596924950997073,24757.304131902973
0.0620357647610427,24272.63507291263
0.06447102107323864,23797.931963954914
0.06700187503509585,23331.898752689172
0.06963207939763882,22872.00889568915
0.0723655342286965,22414.188816768175
0.07520629269592405,21953.156617238234
0.07815856707684081,21482.63826741264
0.08122673500479707,20995.49047286881
0.08441534596012978,20484.313736768265
0.0877291280161335,19941.817248985542
0.09117299484984914,19362.032734787033
0.09475205302806537,18741.664571133373
0.09847160957933764,18081.33400714551
0.1023371798632519,17386.6677703134
0.10635449574860109,16668.625759576822
0.11052951411260206,15941.64220726855
0.1148684256737553,15222.669682909012
0.1193776641714435,14528.860694412973
0.1240639159058831,13875.538876156039
0.12893412965257148,13274.462524010309
0.13399552696593373,12731.33768411572
0.1392556128874462,12243.347204180967
0.14472218707411338,11801.187291895709
0.15040335536380234,11384.677687970006
0.15630754179458153,10968.119893515148
0.16244350109588662,10529.11028379806
0.16882033167003618,10053.86234889117
0.17544748908334581,9541.371679003832
0.1823348000868439,9005.017357618039
0.189492477187382,8469.4255805316
0.19693113379074215,7963.216164555558
0.20466179993919872,7510.1952459401355
0.21269593866686892,7120.572588046008
0.22104546299710207,6784.797985077331
0.22972275360711503,6476.67617953657
0.23874067718606454,6165.9856216049875
0.2481126055137766,5831.887278547598
0.25785243528842716,5472.572966374366
0.26797460873256895,5108.338657075162
0.27849413500806414,4769.505992425153
0.28942661247167484,4476.418953051455
0.3007882518043098,4228.066275386116
0.31259590004822796,4002.1872295753697
0.324867065587837,3771.0920901263303
0.3376199441111335,3523.8008216895396
0.35087344559027084,3274.828153845572
0.36464722232127456,3049.3323074137006
0.37896169806447155,2857.5901795925733
0.3938380983288488,2686.171046107074
0.4092984818452433,2513.3895446228817
0.4253657732750382,2335.1948480939323
0.44206379720285277,2166.8643025158535
0.45941731346364734,2019.9548992322505
0.47745205385661277,1887.0770986777702
0.4961947603002895,1755.774304375294
0.5156732244854959,1626.8661758873443
0.5359163290848509,1509.5731142561588
0.556954090580013,1404.150534147104
0.5788177037701272,1302.9435094735138
0.6015395880274836,1205.3898426886763
0.6251534353689703,1116.6909899658262
0.6496942604146115,1034.9632869264221
0.6751984523072497,956.8054587472062
0.7017038286703824,884.2859069957897
0.7292496916841444,817.5936500809532
0.7578768863625915,754.9106530875819
0.7876278611187046,696.5941102733166
0.8185467307069019,642.7728869836368
0.850679341636415,592.4559104377529
0.8840733401525058,545.9638282703262
0.9187782428863317,502.8956577438013
0.9548455102782278,462.9377586757366
0.9923286228832539,425.90558077956166
1.0312831606721837,391.62098390019366
1.0717668854455022,359.9120314295812
1.1138398264826193,330.6134007097584
1.1575643695533022,303.5651337988658
1.2030053494233226,278.60836233088327
1.2502301459914542,255.59230608786848
1.299308784200415,234.37609995604686
1.3503140378698726,214.82822274234368
1.4033215376054824,196.82595273025075
1.4584098829439835,180.2552010645226
1.5156607589006013,165.01041495492456
1.575159057091621,150.99309700959245
1.6369930016117014,138.11126075418764
1.7012542798525885,126.27908375363765
1.7680381784572046,115.41656842146124
1.8374437246107238,105.44908807942862
1.9095738328780953,96.30705279646203
1.9845354578058014,87.92584062404923
2.0624397525140905,80.2455052492759
2.143402233514853,73.2104760994189
2.227542951999554,66.76927419044993
2.314986671851158,60.87424878644354
2.405863054644063,55.48131977963925
2.5003068519063225,50.54972957817814
2.598458104929248,46.04181654540994
2.7004623524206774,41.92280175347033
2.806470846309834,38.16058620297342
2.916640776023701,34.72554420998333
3.031135501567576,31.59036204718822
3.150124795755327,28.729885642376324
3.2737850959485697,26.120962443224112
3.4022997656780634,23.74229339649807
3.5358593665351745,21.57429328215271
3.6746619407366854,19.598955575044304
3.8189133047818515,17.799740477016627
3.968827354637162,16.16146609776745
4.1246263829013445,14.670203429785696
4.286541408420921,13.31317878276203
4.4548125188449825,12.07868263279071
4.629689226627261,10.955984510485568
4.811430839003257,9.935257323691335
5.000306842491082,9.007505563685818
5.196597302486189,8.164498340823078
5.400593278542364,7.398707443264153
5.612597255954967,6.703247418666239
5.8329235942862,6.071821213391254
6.06189899349756,5.498677761078735
6.29986297838068,4.978567165507623
6.547168402004727,4.50669862149634
6.804181968927091,4.07870182213568
7.071284778942991,3.690595360380795
7.348872892180382,3.3387532156345543
7.637357916378006,3.019868578918006
7.937167617217536,2.730926593153516
8.248746552614573,2.4691796646142175
8.572556731909314,2.232123894147084
8.909078300934132,2.0174667726692994
9.258810253973934,1.8231160268440418
9.622271173675122,1.6471734018577964
9.999999999999984,1.487916966219935
