k [1/Mpc],P(k) [Mpc^3]
0.0001,556.4578328717015
0.00010392556829367125,576.6255155265492
0.00010800523745162529,597.5234202915581
0.00011224505680853065,619.1778720735282
0.00011665131316981963,641.616154520067
0.00012123054013376525,664.8665625871316
0.00012598952777950273,688.9584060724874
0.00013093533273536104,713.9219776080193
0.00013607528864243335,739.7886049635123
0.00014141701702890234,766.5907571650155
0.00014696843861124463,794.362150086028
0.00015273778503907136,823.137720585003
0.00015873361110102093,852.953549982612
0.00016496480740980205,883.8468961946031
0.0001714406135851971,915.8563420160291
0.00017817063195457305,949.0219125406735
0.00018516484179121546,983.3850742955325
0.000192433614111598,1018.9886988549074
0.00019998772705352857,1055.877075065698
0.0002078383818579757,1094.0960360862052
0.00021599721947827182,1133.693026322284
0.0002244763378413224,1174.7171520319034
0.0002332883097864157,1217.219183785771
0.00024244620170823283,1261.2515463505035
0.0002519635929317015,1306.8684594574831
0.0002618545958474233,1354.1260244603523
0.0002721338768375308,1403.0822836306118
0.0002828166780230032,1453.7972099401588
0.0002939188398646886,1506.3326053842732
0.0003054568246515432,1560.7523100637989
0.00031744774091091926,1617.1223091323775
0.00032990936877709396,1675.5107999424583
0.00034286018635565856,1735.9882223117156
0.00035631939712285854,1798.627151491078
0.000370306958400514,1863.5024774247797
0.00038484361094874304,1930.6914411815405
0.0003999509097203664,2000.2736326991003
0.00041565125582259895,2072.331166252027
0.00043196792973341727,2146.9486140100203
0.0004489251258218605,2224.213134072194
0.0004665479882234472,2304.214502083092
0.000484862648123908,2387.0449963994784
0.000503896262506515,2472.7996611052768
0.0005236770544204653,2561.576210331328
0.0005442343548300266,2653.4751114868322
0.0005655986461065005,2748.5996939485854
0.0005878016072274912,2847.055906708712
0.0006108761607505036,2948.952622438878
0.0006348565216305217,3054.4014723533196
0.0006597782479539537,3163.5167980160995
0.0006856782936641739,3276.415953556482
0.0007125950633568407,3393.2190532711893
0.0007405684692262436,3514.0491934284964
0.0007696399902471156,3639.0322127011123
0.0007998527336796708,3768.2963447831885
0.000831251498989063,3901.972743226117
0.0008638828442740447,4040.1949576986126
0.000897795155303332,4183.099128931795
0.0009330387172620361,4330.823894653778
0.0009696657893145519,4483.509560598156
0.001007730682094461,4641.298863845724
0.0010472898382363582,4804.3362605412585
0.0010884019160690055,4972.767857312941
0.0011311278765939214,5146.74161192787
0.001175531073878369,5326.405874715351
0.0012216773489967915,5511.910294253517
0.0012696351276599736,5703.404962516578
0.0013194755216767058,5901.039729206856
0.0013712724343984,6104.965028919038
0.0014251026703029975,6315.330239682229
0.0014810460488806749,6532.284226769505
0.0015391855229902056,6755.974533430911
0.001599607301861487,6986.54571123412
0.0016624009789266115,7224.140664440685
0.0017276596646690358,7468.898383298018
0.0017954801246878305,7720.954075222217
0.0018659629231817451,7980.439137186705
0.001939212572065829,8247.47862495436
0.0020153376859417325,8522.192654302198
0.002094451143151469,8804.694164838093
0.002176670253153458,9095.088106794372
0.002262116930469025,9393.471880424428
0.002350917875457286,9699.931307269017
0.002443204762186487,10014.542309843842
0.0025391144336803463,10337.369230762728
0.002638789104828933,10668.462796952612
0.002742376573264949,11007.861261175714
0.0028500304385181063,11355.58564464416
0.0029619103297725525,11711.640723733924
0.0030781821425650787,12076.014038190568
0.003199018284775064,12448.672174238867
0.0033245979322709396,12829.562897823735
0.003455107294592217,13218.61024420099
0.0035907398910610534,13615.714261863472
0.0037316968377327513,14020.750797538793
0.0038781871456107214,14433.564767931364
0.0040304280305680515,14853.974254312978
0.00418864523543527,15281.769947600784
0.004353073364731888,15716.713929638574
0.00452395623253805,16158.534608535252
0.004701547224022131,16606.902240217038
0.004886109671160325,17061.44380870476
0.005077917243205399,17521.780006549972
0.005277254352483535,17987.54635611765
0.005484416576121017,18458.33600254478
0.005699711094326071,18933.552012492168
0.005923457145875801,19412.46523736098
0.006155986501483508,19894.354001742402
0.006397643955748424,20378.607430530832
0.0066487878384172625,20864.59535937849
0.0069097905457156435,21351.51823245516
0.007181039092537346,21838.421609338126
0.007462935686310132,22324.330784912378
0.007755898323389004,22808.367080782788
0.00806036140886134,23289.647679896265
0.008376776400682916,23767.160850960805
0.008705612479099857,24239.74062794147
0.009047357242349292,24706.163534070427
0.00940251742967013,25165.130015873925
0.009771619672696168,25615.28556126748
0.010155211276345676,26055.245691012864
0.010553861030365234,26483.608802638373
0.010968160052731372,26898.941569415027
0.011398722666160517,27299.732916983605
0.011846187309026826,27684.419431606504
0.012311217482038896,28051.409453373788
0.012794502732078732,28399.067499037
0.013296759674662111,28725.750003475834
0.013818733056536317,29029.809808803733
0.014361196859990781,29309.606691079094
0.014924955450518284,29563.52268524766
0.015510844769528393,29789.959597584213
0.016119733573881575,29987.362947329617
0.01675252472408214,30154.25700327026
0.017410156523040152,30289.263135787045
0.018093604107387147,30391.097881818056
0.01880388089340914,30458.638765920874
0.019542040079740527,30490.89887048806
0.02030917620904734,30487.07559337665
0.021106426791015535,30446.62499024894
0.021934973989050584,30369.1681929434
0.02279604637318978,30254.65143129692
0.023690920741826323,30103.280818962212
0.02462092401494623,29915.515796025637
0.02558743520168586,29692.294854597596
0.02659188744512693,29434.747741819403
0.027635770147361564,29144.256265880846
0.028720631177978267,28822.43329288801
0.029848079169243254,28471.156886057535
0.03101978590138095,28093.245895193268
0.03223748878149028,27691.75118896638
0.0335029934197723,27268.543711055798
0.03481817630688963,26823.876581958502
0.03618498759642746,26358.43405437078
0.037605453996581675,25876.478029658967
0.03908168177536263,25383.70334790293
0.04061585988376978,24884.075620636013
0.04221026320156896,24378.27132774318
0.04386725591048496,23866.428933351923
0.0455892949998106,23346.85316842216
0.047378933909631396,22816.740753583585
0.049238826317067365,22273.770940998987
0.05117173007114603,21716.516517059114
0.05318051128214196,21144.03570513757
0.05526814857144601,20556.71278550044
0.057437737488265785,19955.938963036493
0.0596924950997073,19342.94915515967
0.0620357647610427,18718.664171429806
0.06447102107323864,18083.77553744185
0.06700187503509585,17438.554902610325
0.06963207939763882,16787.29899107355
0.0723655342286965,16139.94674038584
0.07520629269592405,15503.268589575735
0.07815856707684081,14880.950298915881
0.08122673500479707,14276.605405773837
0.08441534596012978,13692.251611654605
0.0877291280161335,13127.391489416685
0.09117299484984914,12581.601654990456
0.09475205302806537,12053.950769555475
0.09847160957933764,11541.677961840614
0.1023371798632519,11038.631184790578
0.10635449574860109,10537.597050137052
0.11052951411260206,10034.53385185319
0.1148684256737553,9531.349743116152
0.1193776641714435,9035.456616640908
0.1240639159058831,8556.03387337092
0.12893412965257148,8100.564039034459
0.13399552696593373,7671.82495022707
0.1392556128874462,7266.96033757207
0.14472218707411338,6881.419354660653
0.15040335536380234,6511.999705659447
0.15630754179458153,6154.771464413409
0.16244350109588662,5805.59012446242
0.16882033167003618,5465.484707731315
0.17544748908334581,5139.191034822908
0.1823348000868439,4829.534481261883
0.189492477187382,4538.567456781656
0.19693113379074215,4265.5728048745605
0.20466179993919872,4005.319542684009
0.21269593866686892,3755.5482693989607
0.22104546299710207,3517.196294792627
0.22972275360711503,3291.1142324600255
0.23874067718606454,3077.6258720983597
0.2481126055137766,2876.8008076897886
0.25785243528842716,2687.71233828696
0.26797460873256895,2508.2252941755123
0.27849413500806414,2338.794291270795
0.28942661247167484,2179.5056475955307
0.3007882518043098,2029.7160363649227
0.31259590004822796,1889.0421826287213
0.324867065587837,1756.8485343842572
0.3376199441111335,1632.6823303076014
0.35087344559027084,1516.5230420819075
0.36464722232127456,1407.6136256506907
0.37896169806447155,1305.8271423691044
0.3938380983288488,1210.5652630516936
0.4092984818452433,1121.7028699282346
0.4253657732750382,1038.682205217812
0.44206379720285277,961.317727296714
0.45941731346364734,889.16783638711
0.47745205385661277,821.9921033889244
0.4961947603002895,759.4807782588584
0.5156732244854959,701.3140390013185
0.5359163290848509,647.28479988037
0.556954090580013,597.1138803561965
0.5788177037701272,550.5460980556044
0.6015395880274836,507.37253060358853
0.6251534353689703,467.38024468843213
0.6496942604146115,430.32126187581866
0.6751984523072497,396.0198128816081
0.7017038286703824,364.28265269318763
0.7292496916841444,334.9359518212121
0.7578768863625915,307.8193924700248
0.7876278611187046,282.77722079430936
0.8185467307069019,259.6630997542156
0.850679341636415,238.339793030878
0.8840733401525058,218.67871775970545
0.9187782428863317,200.55951619468544
0.9548455102782278,183.86968226964734
0.9923286228832539,168.5040920595315
1.0312831606721837,154.36457070231714
1.0717668854455022,141.35951121862135
1.1138398264826193,129.4035065897649
1.1575643695533022,118.41695861718522
1.2030053494233226,108.32563224859015
1.2502301459914542,99.06049241157743
1.299308784200415,90.55743236752511
1.3503140378698726,82.7569608691853
1.4033215376054824,75.60390539733206
1.4584098829439835,69.04713820558229
1.5156607589006013,63.03931830255965
1.575159057091621,57.53661936347107
1.6369930016117014,52.498490574866096
1.7012542798525885,47.887434616980194
1.7680381784572046,43.66879803061339
1.8374437246107238,39.810550747446435
1.9095738328780953,36.28309767631182
1.9845354578058014,33.059148179010705
2.0624397525140905,30.113552577986763
2.143402233514853,27.423145328294193
2.227542951999554,24.966598648712772
2.314986671851158,22.72428727350835
2.405863054644063,20.678160432577357
2.5003068519063225,18.811621509833486
2.598458104929248,17.10941770638162
2.7004623524206774,15.557537452024064
2.806470846309834,14.143114452533885
2.916640776023701,12.854334024800593
3.031135501567576,11.680355370535453
3.150124795755327,10.611239216343684
3.2737850959485697,9.63787638614979
3.4022997656780634,8.751921622259877
3.5358593665351745,7.945731880115673
3.6746619407366854,7.212307664190616
3.8189133047818515,6.545243465659516
3.968827354637162,5.938680487483685
4.1246263829013445,5.387261760162997
4.286541408420921,4.886090760344263
4.4548125188449825,4.430693245805436
4.629689226627261,4.01698207174892
4.811430839003257,3.641224980802576
5.000306842491082,3.3000148677194145
5.196597302486189,2.9902424000844614
5.400593278542364,2.709070842140781
5.612597255954967,2.453912196967366
5.8329235942862,2.2224055521625674
6.06189899349756,2.0123992888162268
6.29986297838068,1.821933223675594
6.547168402004727,1.6492220209517077
6.804181968927091,1.4926400286528405
7.071284778942991,1.3507084765784036
7.348872892180382,1.222082513270094
7.637357916378006,1.1055378387457684
7.937167617217536,0.9999601305779251
8.248746552614573,0.9043354653719009
8.572556731909314,0.8177412990012637
8.909078300934132,0.7393351621720945
9.258810253973934,0.6683495994168273
9.622271173675122,0.6040887023091897
9.999999999999984,0.5459215215982235
