k [1/Mpc],P(k) [Mpc^3]
0.0001,355.3479277659972
0.00010392556829367125,371.43079992090577
0.00010800523745162529,388.2411213971107
0.00011224505680853065,405.8117204586205
0.00011665131316981963,424.1769006214958
0.00012123054013376525,443.3725116036715
0.00012598952777950273,463.43601619709926
0.00013093533273536104,484.40656575891614
0.00013607528864243335,506.32508091964917
0.00014141701702890234,529.2343188032199
0.00014696843861124463,553.1789039142577
0.00015273778503907136,578.2054232181205
0.00015873361110102093,604.3625563046692
0.00016496480740980205,631.701199065385
0.0001714406135851971,660.2745325843155
0.00017817063195457305,690.1380864161933
0.00018516484179121546,721.349836413541
0.000192433614111598,753.9703347279146
0.00019998772705352857,788.0627956188214
0.0002078383818579757,823.6932298460125
0.00021599721947827182,860.930563023733
0.0002244763378413224,899.846750041879
0.0002332883097864157,940.5169229230053
0.00024244620170823283,983.019494032221
0.0002519635929317015,1027.4363092117032
0.0002618545958474233,1073.8527948120047
0.0002721338768375308,1122.358066572621
0.0002828166780230032,1173.045129100265
0.0002939188398646886,1226.0109924481444
0.0003054568246515432,1281.35683542522
0.00031744774091091926,1339.1882170204465
0.00032990936877709396,1399.6151985918127
0.00034286018635565856,1462.7525729516826
0.00035631939712285854,1528.719983988292
0.000370306958400514,1597.6420540342192
0.00038484361094874304,1669.6487010350106
0.0003999509097203664,1744.8752667008782
0.00041565125582259895,1823.462770664534
0.00043196792973341727,1905.5581206448128
0.0004489251258218605,1991.3142223969305
0.0004665479882234472,2080.8903322318
0.000484862648123908,2174.4520909956473
0.000503896262506515,2272.1717622111128
0.0005236770544204653,2374.228630705308
0.0005442343548300266,2480.809115827374
0.0005655986461065005,2592.107142859673
0.0005878016072274912,2708.3242467991577
0.0006108761607505036,2829.66971317836
0.0006348565216305217,2956.361049851987
0.0006597782479539537,3088.623830240547
0.0006856782936641739,3226.6921586300596
0.0007125950633568407,3370.809014784702
0.0007405684692262436,3521.226288597855
0.0007696399902471156,3678.205306881598
0.0007998527336796708,3842.016532024553
0.000831251498989063,4012.9398630683545
0.0008638828442740447,4191.265216551543
0.000897795155303332,4377.292277827303
0.0009330387172620361,4571.331140856706
0.0009696657893145519,4773.701577951181
0.001007730682094461,4984.732698245194
0.0010472898382363582,5204.764277733608
0.0010884019160690055,5434.146287249319
0.0011311278765939214,5673.23941952746
0.001175531073878369,5922.414606795228
0.0012216773489967915,6182.051791602085
0.0012696351276599736,6452.541463456563
0.0013194755216767058,6734.283086658406
0.0013712724343984,7027.6853027025
0.0014251026703029975,7333.166642854
0.0014810460488806749,7651.153953653457
0.0015391855229902056,7982.083409585609
0.001599607301861487,8326.398314413842
0.0016624009789266115,8684.547895834447
0.0017276596646690358,9056.988910753946
0.0017954801246878305,9444.182486621332
0.0018659629231817451,9846.59507912206
0.001939212572065829,10264.697267617707
0.0020153376859417325,10698.960944309105
0.002094451143151469,11149.860905081376
0.002176670253153458,11617.87012604295
0.002262116930469025,12103.459498167429
0.002350917875457286,12607.097813804954
0.002443204762186487,13129.246591437295
0.0025391144336803463,13670.361898497502
0.002638789104828933,14230.888751317634
0.002742376573264949,14811.258008863166
0.0028500304385181063,15411.888125761041
0.0029619103297725525,16033.177299166313
0.0030781821425650787,16675.504707338885
0.003199018284775064,17339.22522497343
0.0033245979322709396,18024.661632640287
0.003455107294592217,18732.10827894816
0.0035907398910610534,19461.817777835513
0.0037316968377327513,20214.000745803143
0.0038781871456107214,20988.823191219642
0.0040304280305680515,21786.38962492244
0.00418864523543527,22606.751370942104
0.004353073364731888,23449.89426090016
0.00452395623253805,24315.73262061407
0.004701547224022131,25204.105364183335
0.004886109671160325,26114.725858214046
0.005077917243205399,27047.206547591843
0.005277254352483535,28001.094538576628
0.005484416576121017,28975.887085640064
0.005699711094326071,29970.971937248825
0.005923457145875801,30985.404904986786
0.006155986501483508,32017.974515214763
0.006397643955748424,33067.34537318084
0.0066487878384172625,34132.11695002307
0.0069097905457156435,35210.7543672
0.007181039092537346,36301.539053797555
0.007462935686310132,37402.564036536125
0.007755898323389004,38511.708439013804
0.00806036140886134,39626.434245187396
0.008376776400682916,40743.928445608624
0.008705612479099857,41861.07680689876
0.009047357242349292,42974.40491923937
0.00940251742967013,44080.1812438152
0.009771619672696168,45174.25502937873
0.010155211276345676,46252.14378294811
0.010553861030365234,47309.02470269842
0.010968160052731372,48339.5603283165
0.011398722666160517,49338.13112233821
0.011846187309026826,50298.58424879685
0.012311217482038896,51214.29296699592
0.012794502732078732,52078.344097507026
0.013296759674662111,52883.18450524946
0.013818733056536317,53621.02547748707
0.014361196859990781,54283.65767901321
0.014924955450518284,54862.36193513717
0.015510844769528393,55348.40858933216
0.016119733573881575,55732.53074363356
0.01675252472408214,56005.44882151218
0.017410156523040152,56157.96974982884
0.018093604107387147,56180.62677656228
0.01880388089340914,56064.61236756374
0.019542040079740527,55801.27678977666
0.02030917620904734,55382.573429669676
0.021106426791015535,54801.679552795045
0.021934973989050584,54052.38979691118
0.02279604637318978,53130.303238410736
0.023690920741826323,52032.74445105051
0.02462092401494623,50758.89037622046
0.02558743520168586,49310.66558451489
0.02659188744512693,47692.269723559024
0.027635770147361564,45910.85730737237
0.028720631177978267,43977.24318050487
0.029848079169243254,41906.07165630647
0.03101978590138095,39714.954377465045
0.03223748878149028,37423.935211461256
0.0335029934197723,35055.16340823408
0.03481817630688963,32635.261781315938
0.03618498759642746,30200.241553045104
0.037605453996581675,27784.645130391786
0.03908168177536263,25415.604034120115
0.04061585988376978,23113.521919756695
0.04221026320156896,20901.43281895951
0.04386725591048496,18818.28052086545
0.0455892949998106,16895.363365475507
0.047378933909631396,15153.994400527308
0.049238826317067365,13605.65218537093
0.05117173007114603,12257.886283097683
0.05318051128214196,11113.25042947262
0.05526814857144601,10168.944711167922
0.057437737488265785,9418.853817844436
0.0596924950997073,8853.609947491834
0.0620357647610427,8462.185645434107
0.06447102107323864,8230.540857909846
0.06700187503509585,8139.6994206448335
0.06963207939763882,8166.162919845689
0.0723655342286965,8279.654483395849
0.07520629269592405,8439.490260001548
0.07815856707684081,8595.749854343712
0.08122673500479707,8693.39787969919
0.08441534596012978,8678.409532784037
0.0877291280161335,8504.661724061943
0.09117299484984914,8141.757724274782
0.09475205302806537,7583.053292712444
0.09847160957933764,6851.655301409705
0.1023371798632519,6000.863204352212
0.10635449574860109,5106.370723001245
0.11052951411260206,4251.123206492526
0.1148684256737553,3508.0070456892527
0.1193776641714435,2927.335978221022
0.1240639159058831,2533.1316718212406
0.12893412965257148,2327.0960890392707
0.13399552696593373,2294.8732571631167
0.1392556128874462,2407.928250632093
0.14472218707411338,2617.656646377864
0.15040335536380234,2847.0458447688097
0.15630754179458153,2995.05298104488
0.16244350109588662,2967.906935375111
0.16882033167003618,2726.765999154192
0.17544748908334581,2315.0320072341206
0.1823348000868439,1842.5230659104932
0.189492477187382,1433.2602267382463
0.19693113379074215,1169.3495401180403
0.20466179993919872,1072.9054384348651
0.21269593866686892,1124.4933772540878
0.22104546299710207,1267.8717694096804
0.22972275360711503,1398.030676828651
0.23874067718606454,1397.1216099793187
0.2481126055137766,1224.268510726435
0.25785243528842716,960.6335390321772
0.26797460873256895,738.1201320405257
0.27849413500806414,637.2649586274631
0.28942661247167484,661.0429800764304
0.3007882518043098,745.7605412196187
0.31259590004822796,780.1353156597598
0.324867065587837,692.583602823043
0.3376199441111335,540.4319730278365
0.35087344559027084,436.4949178050269
0.36464722232127456,426.6168495114699
0.37896169806447155,468.81092209990476
0.3938380983288488,469.3668272045858
0.4092984818452433,393.86556129006783
0.4253657732750382,316.14860725624357
0.44206379720285277,299.10305803079467
0.45941731346364734,316.91820200287464
0.47745205385661277,299.8790378850994
0.4961947603002895,247.26772866077235
0.5156732244854959,219.9583536340088
0.5359163290848509,224.06998774351516
0.556954090580013,211.2656319863916
0.5788177037701272,178.98827468946035
0.6015395880274836,166.3780690784221
0.6251534353689703,162.7558468241385
0.6496942604146115,146.7843623364512
0.6751984523072497,133.0825805484723
0.7017038286703824,121.691169795548
0.7292496916841444,111.79025151573845
0.7578768863625915,103.02808351541879
0.7876278611187046,95.13452997438897
0.8185467307069019,87.89732259884318
0.850679341636415,81.15073391458256
0.8840733401525058,74.79841624544306
0.9187782428863317,68.84074972411238
0.9548455102782278,63.284433975371016
0.9923286228832539,58.12878013558422
1.0312831606721837,53.367074932101495
1.0717668854455022,48.986951737041345
1.1138398264826193,44.96323767167661
1.1575643695533022,41.265906033702606
1.2030053494233226,37.867565122293875
1.2502301459914542,34.743302877287846
1.299308784200415,31.870443439031654
1.3503140378698726,29.228629835559865
1.4033215376054824,26.79986055998333
1.4584098829439835,24.56756723199638
1.5156607589006013,22.516409016731558
1.575159057091621,20.63218758006122
1.6369930016117014,18.901766363930406
1.7012542798525885,17.31298813580783
1.7680381784572046,15.85461249753346
1.8374437246107238,14.516256149085738
1.9095738328780953,13.28833094169908
1.9845354578058014,12.161985993978897
2.0624397525140905,11.129048918661468
2.143402233514853,10.181973092460986
2.227542951999554,9.313801661830812
2.314986671851158,8.518124394931862
2.405863054644063,7.789036313888444
2.5003068519063225,7.121099735230555
2.598458104929248,6.509311368400242
2.7004623524206774,5.949066458780179
2.806470846309834,5.43612645518538
2.916640776023701,4.966590985449743
3.031135501567576,4.5368718674294914
3.150124795755327,4.143667696404593
3.2737850959485697,3.7839411525827997
3.4022997656780634,3.4549010220967866
3.5358593665351745,3.153983104824331
3.6746619407366854,2.8788322918013343
3.8189133047818515,2.627286170471905
3.968827354637162,2.397360601323769
4.1246263829013445,2.1872345805688775
4.286541408420921,1.995236704834728
4.4548125188449825,1.8198332526757497
4.629689226627261,1.6596171735701075
4.811430839003257,1.5132974757534996
5.000306842491082,1.3796898116242031
5.196597302486189,1.257708652885115
5.400593278542364,1.1463593095886693
5.612597255954967,1.0447305085975753
5.8329235942862,0.9519875427429673
6.06189899349756,0.8673659004651731
6.29986297838068,0.7901655854606479
6.547168402004727,0.719745836188881
6.804181968927091,0.6555202198984166
7.071284778942991,0.5969521294217851
7.348872892180382,0.5435509133156833
7.637357916378006,0.4948680455436996
7.937167617217536,0.4504931814836456
8.248746552614573,0.4100509591124169
8.572556731909314,0.3731980901931382
8.909078300934132,0.3396203902893957
9.258810253973934,0.3090292357241694
9.622271173675122,0.2811608393401687
9.999999999999984,0.2557746689807266
