k [1/Mpc],P(k) [Mpc^3]
0.0001,405.3652300960849
0.00010392556829367125,423.6753411012124
0.00010800523745162529,442.80896344828994
0.00011224505680853065,462.8026964627618
0.00011665131316981963,483.6947035458677
0.00012123054013376525,505.5247703398696
0.00012598952777950273,528.334391368736
0.00013093533273536104,552.1667984620348
0.00013607528864243335,577.0670576757315
0.00014141701702890234,603.0821270603852
0.00014696843861124463,630.260901359145
0.00015273778503907136,658.6543286183866
0.00015873361110102093,688.3154141829209
0.00016496480740980205,719.2993248582198
0.0001714406135851971,751.6634829400688
0.00017817063195457305,785.467574420324
0.00018516484179121546,820.7737056528352
0.000192433614111598,857.6464143293971
0.00019998772705352857,896.1527470038934
0.0002078383818579757,936.3623841713658
0.00021599721947827182,978.3475383503608
0.0002244763378413224,1022.1831701388601
0.0002332883097864157,1067.947058956307
0.00024244620170823283,1115.7198331150166
0.0002519635929317015,1165.585125916479
0.0002618545958474233,1217.6293470719222
0.0002721338768375308,1271.941885781411
0.0002828166780230032,1328.6152745413042
0.0002939188398646886,1387.745130251522
0.0003054568246515432,1449.4303603881735
0.00031744774091091926,1513.7728760890288
0.00032990936877709396,1580.8776597569588
0.00034286018635565856,1650.8530404758833
0.00035631939712285854,1723.810490780344
0.000370306958400514,1799.8648656926146
0.00038484361094874304,1879.134169665372
0.0003999509097203664,1961.739404269203
0.00041565125582259895,2047.8049053406396
0.00043196792973341727,2137.4578967628513
0.0004489251258218605,2230.8287060679936
0.0004665479882234472,2328.050668440792
0.000484862648123908,2429.259695101223
0.000503896262506515,2534.594645482455
0.0005236770544204653,2644.196607309845
0.0005442343548300266,2758.2088966964534
0.0005655986461065005,2876.7771086785206
0.0005878016072274912,3000.0480771302628
0.0006108761607505036,3128.170418564112
0.0006348565216305217,3261.2934326935233
0.0006597782479539537,3399.566484812625
0.0006856782936641739,3543.1395972495698
0.0007125950633568407,3692.1617963699396
0.0007405684692262436,3846.7815186744883
0.0007696399902471156,4007.145332179236
0.0007998527336796708,4173.395970878636
0.000831251498989063,4345.673761468311
0.0008638828442740447,4524.114758865864
0.000897795155303332,4708.8505275570415
0.0009330387172620361,4900.007721158647
0.0009696657893145519,5097.705759559504
0.001007730682094461,5302.057564259346
0.0010472898382363582,5513.168429872801
0.0010884019160690055,5731.135074593893
0.0011311278765939214,5956.044327898897
0.001175531073878369,6187.96732757512
0.0012216773489967915,6426.961567321655
0.0012696351276599736,6673.070652760427
0.0013194755216767058,6926.322519433771
0.0013712724343984,7186.729178538161
0.0014251026703029975,7454.2835704541585
0.0014810460488806749,7728.959090545944
0.0015391855229902056,8010.708524563019
0.001599607301861487,8299.461091007219
0.0016624009789266115,8595.122874505276
0.0017276596646690358,8897.573619374836
0.0017954801246878305,9206.665444549968
0.0018659629231817451,9522.223229213323
0.001939212572065829,9844.042640121954
0.0020153376859417325,10171.889523415295
0.002094451143151469,10505.494663663796
0.002176670253153458,10844.550304323497
0.002262116930469025,11188.714027350867
0.002350917875457286,11537.606214681195
0.002443204762186487,11890.810221023705
0.0025391144336803463,12247.867601823971
0.002638789104828933,12608.27034353474
0.002742376573264949,12971.46928742291
0.0028500304385181063,13336.874259908722
0.0029619103297725525,13703.854278292187
0.0030781821425650787,14071.719578176955
0.003199018284775064,14439.665616211934
0.0033245979322709396,14806.825776035403
0.003455107294592217,15172.401574551988
0.0035907398910610534,15535.701533644093
0.0037316968377327513,15895.94814401722
0.0038781871456107214,16251.848063590478
0.0040304280305680515,16601.8446993174
0.00418864523543527,16944.46781169737
0.004353073364731888,17278.511513822825
0.00452395623253805,17602.776992266205
0.004701547224022131,17916.008275686992
0.004886109671160325,18216.908225560368
0.005077917243205399,18504.08468340532
0.005277254352483535,18775.8647756765
0.005484416576121017,19030.50142653978
0.005699711094326071,19266.144481194864
0.005923457145875801,19480.844528014637
0.006155986501483508,19672.63467139729
0.006397643955748424,19839.43104725417
0.0066487878384172625,19979.142900554394
0.0069097905457156435,20089.60045829126
0.007181039092537346,20168.478139123694
0.007462935686310132,20213.513610488386
0.007755898323389004,20222.317294788616
0.00806036140886134,20192.527920658646
0.008376776400682916,20121.806785148565
0.008705612479099857,20007.538230911112
0.009047357242349292,19847.331383962846
0.00940251742967013,19638.790540748225
0.009771619672696168,19379.639361410438
0.010155211276345676,19067.980695997765
0.010553861030365234,18701.74039454651
0.010968160052731372,18279.397138223543
0.011398722666160517,17799.640322198025
0.011846187309026826,17261.24505925404
0.012311217482038896,16664.101734792785
0.012794502732078732,16008.694730079385
0.013296759674662111,15296.72837714775
0.013818733056536317,14530.054529998413
0.014361196859990781,13709.091451548178
0.014924955450518284,12836.896189754169
0.015510844769528393,11922.285274324746
0.016119733573881575,10978.047113292454
0.01675252472408214,10012.28126738951
0.017410156523040152,9015.433203483448
0.018093604107387147,7985.35149251618
0.01880388089340914,6959.812247971097
0.019542040079740527,6001.017500829519
0.02030917620904734,5128.288625384761
0.021106426791015535,4237.639601998334
0.021934973989050584,3267.6915311936004
0.02279604637318978,2367.4188546400305
0.023690920741826323,1768.8057775789102
0.02462092401494623,1473.691149303595
0.02558743520168586,1071.8776792668934
0.02659188744512693,426.86066735860254
0.027635770147361564,79.30846869933386
0.028720631177978267,16.88190654742599
0.029848079169243254,12.210939737121418
0.03101978590138095,32.94443237372752
0.03223748878149028,122.26511063738259
0.0335029934197723,271.47411846246814
0.03481817630688963,390.45247335936995
0.03618498759642746,487.421007681512
0.037605453996581675,574.1360551722948
0.03908168177536263,618.9128269558248
0.04061585988376978,590.2153137811166
0.04221026320156896,486.4500417631859
0.04386725591048496,379.6107660425125
0.0455892949998106,282.88869220030745
0.047378933909631396,100.73782159921538
0.049238826317067365,18.910434047658153
0.05117173007114603,11.813822628117606
0.05318051128214196,30.50867503206665
0.05526814857144601,120.54012445420571
0.057437737488265785,262.592836274308
0.0596924950997073,367.77189338002614
0.0620357647610427,454.78262081886004
0.06447102107323864,468.11464237824515
0.06700187503509585,408.6774645123305
0.06963207939763882,287.71199464347393
0.0723655342286965,155.79635082930423
0.07520629269592405,53.530565659982
0.07815856707684081,4.754575839387357
0.08122673500479707,5.842984335738388
0.08441534596012978,76.39586003043489
0.0877291280161335,104.33633698791728
0.09117299484984914,111.34055643480035
0.09475205302806537,79.0211498305306
0.09847160957933764,19.139017755527195
0.1023371798632519,0.5032671742116397
0.10635449574860109,29.17710398968651
0.11052951411260206,71.12821309797033
0.1148684256737553,110.86647698262308
0.1193776641714435,98.33468840133459
0.1240639159058831,49.378137143817234
0.12893412965257148,2.394255206885042
0.13399552696593373,2.686085595781509
0.1392556128874462,21.2611755479659
0.14472218707411338,26.579938015615078
0.15040335536380234,9.337702811664961
0.15630754179458153,0.526467189946807
0.16244350109588662,17.909658588483648
0.16882033167003618,31.291656955048136
0.17544748908334581,21.401275898556015
0.1823348000868439,3.4128490475518007
0.189492477187382,1.2365486046307783
0.19693113379074215,6.2357490417848895
0.20466179993919872,1.9727898115287794
0.21269593866686892,0.7368314448865227
0.22104546299710207,8.026510535372658
0.22972275360711503,7.287177159416406
0.23874067718606454,0.5348041504268394
0.2481126055137766,0.6938097140214907
0.25785243528842716,0.8019351232805703
0.26797460873256895,0.4110077861774672
0.27849413500806414,2.8992772336188057
0.28942661247167484,1.3681919540383811
0.3007882518043098,0.009841263224716516
0.31259590004822796,0.17361062922870368
0.324867065587837,0.31977939044750725
0.3376199441111335,1.038186928368408
0.35087344559027084,0.2154768007463492
0.36464722232127456,0.00029033556853408794
0.37896169806447155,0.10574700215224242
0.3938380983288488,0.4169695431695261
0.4092984818452433,0.09624526440958155
0.4253657732750382,0.02175016942377734
0.44206379720285277,0.1663164296363158
0.45941731346364734,0.564697942777307
0.47745205385661277,0.6699826871548525
0.4961947603002895,0.3899432608057818
0.5156732244854959,0.1562981591769272
0.5359163290848509,0.06056825392443848
0.556954090580013,0.03130113128281378
0.5788177037701272,0.023330116113774446
0.6015395880274836,0.022708775225241246
0.6251534353689703,0.026032297107289906
0.6496942604146115,0.03169532915592411
0.6751984523072497,0.03696377707463017
0.7017038286703824,0.0383900894918364
0.7292496916841444,0.0360654845801089
0.7578768863625915,0.031629494221345214
0.7876278611187046,0.02672504923758381
0.8185467307069019,0.022452698005254488
0.850679341636415,0.019329460026370534
0.8840733401525058,0.017195222589012852
0.9187782428863317,0.015671820345629937
0.9548455102782278,0.014502656044830534
0.9923286228832539,0.013504702070972631
1.0312831606721837,0.012540799120964721
1.0717668854455022,0.011537723384257575
1.1138398264826193,0.010527420802388276
1.1575643695533022,0.009550461884899195
1.2030053494233226,0.008636164065325138
1.2502301459914542,0.00780378133689718
1.299308784200415,0.0070636176247478675
1.3503140378698726,0.006409268410833781
1.4033215376054824,0.005825933133233827
1.4584098829439835,0.0053014730576259874
1.5156607589006013,0.004826140010204602
1.575159057091621,0.004392116519730707
1.6369930016117014,0.003993874941078052
1.7012542798525885,0.0036290965935184315
1.7680381784572046,0.003295925345813379
1.8374437246107238,0.0029924182351872943
1.9095738328780953,0.0027165932817356173
1.9845354578058014,0.0024664497712885464
2.0624397525140905,0.00223970071503674
2.143402233514853,0.0020339797721181403
2.227542951999554,0.0018471796744647672
2.314986671851158,0.0016774302332609183
2.405863054644063,0.001523068892770402
2.5003068519063225,0.0013826453597507134
2.598458104929248,0.0012549567252473546
2.7004623524206774,0.0011389157609616746
2.806470846309834,0.001033516855974333
2.916640776023701,0.0009378315498997219
3.031135501567576,0.000851002573385756
3.150124795755327,0.0007722134877255571
3.2737850959485697,0.0007006986183163402
3.4022997656780634,0.0006357682333870553
3.5358593665351745,0.0005768015098780968
3.6746619407366854,0.0005232391965451645
3.8189133047818515,0.0004745820004588326
3.968827354637162,0.0004303952868504517
4.1246263829013445,0.0003902845359561102
4.286541408420921,0.0003538874118716573
4.4548125188449825,0.0003208715117601796
4.629689226627261,0.0002909319218996867
4.811430839003257,0.0002637833110463527
5.000306842491082,0.0002391608846232049
5.196597302486189,0.00021682562231814835
5.400593278542364,0.00019656191949000678
5.612597255954967,0.00017817518487456255
5.8329235942862,0.00016149061736103884
6.06189899349756,0.0001463535023470429
6.29986297838068,0.00013262362208648178
6.547168402004727,0.00012017296619707072
6.804181968927091,0.00010888473529314481
7.071284778942991,9.86523779529051e-05
7.348872892180382,8.937785529140632e-05
7.637357916378006,8.097122776719693e-05
7.937167617217536,7.335104715960787e-05
8.248746552614573,6.644358913698792e-05
8.572556731909314,6.018210803086955e-05
8.909078300934132,5.450624978274251e-05
9.258810253973934,4.9361673404350197e-05
9.622271173675122,4.469912595632893e-05
9.999999999999984,4.0473866165128395e-05
