k [1/Mpc],P(k) [Mpc^3]
0.0001,954.1899568372594
0.00010392556829367125,985.9273855554147
0.00010800523745162529,1018.719599888482
0.00011224505680853065,1052.6016577809808
0.00011665131316981963,1087.6097611672192
0.00012123054013376525,1123.7811879967137
0.00012598952777950273,1161.1544047758573
0.00013093533273536104,1199.7691893443841
0.00013607528864243335,1239.666700200198
0.00014141701702890234,1280.8894474174333
0.00014696843861124463,1323.4812389663148
0.00015273778503907136,1367.4872702769928
0.00015873361110102093,1412.9542433995116
0.00016496480740980205,1459.9304534087873
0.0001714406135851971,1508.4657834511738
0.00017817063195457305,1558.6116852926823
0.00018516484179121546,1610.4212451252324
0.000192433614111598,1663.949253052921
0.00019998772705352857,1719.252201971021
0.0002078383818579757,1776.3883993735258
0.00021599721947827182,1835.4180984876964
0.0002244763378413224,1896.4035660075447
0.0002332883097864157,1959.409053220004
0.00024244620170823283,2024.5006971280413
0.0002519635929317015,2091.746694741025
0.0002618545958474233,2161.2174107571977
0.0002721338768375308,2232.985438189974
0.0002828166780230032,2307.125671238474
0.0002939188398646886,2383.7153170455617
0.0003054568246515432,2462.8339947191967
0.00031744774091091926,2544.5637680150276
0.00032990936877709396,2628.98913009418
0.00034286018635565856,2716.197178431813
0.00035631939712285854,2806.277544016193
0.000370306958400514,2899.3224998889004
0.00038484361094874304,2995.4271411326786
0.0003999509097203664,3094.68945374958
0.00041565125582259895,3197.210394984438
0.00043196792973341727,3303.09366294538
0.0004489251258218605,3412.445728181946
0.0004665479882234472,3525.3761885449076
0.000484862648123908,3641.9978249348815
0.000503896262506515,3762.4267056504195
0.0005236770544204653,3886.781981206476
0.0005442343548300266,4015.1857713516397
0.0005655986461065005,4147.763586130651
0.0005878016072274912,4284.644219069717
0.0006108761607505036,4425.959921777713
0.0006348565216305217,4571.84639186077
0.0006597782479539537,4722.442580504995
0.0006856782936641739,4877.891048349825
0.0007125950633568407,5038.337503878248
0.0007405684692262436,5203.930966695075
0.0007696399902471156,5374.8241087256465
0.0007998527336796708,5551.173040579863
0.000831251498989063,5733.137583731747
0.0008638828442740447,5920.880554115056
0.000897795155303332,6114.567645326473
0.0009330387172620361,6314.368091280921
0.0009696657893145519,6520.454116783375
0.001007730682094461,6733.001342705097
0.0010472898382363582,6952.188136753809
0.0010884019160690055,7178.195008452902
0.0011311278765939214,7411.205486919035
0.001175531073878369,7651.404681174308
0.0012216773489967915,7898.979864250866
0.0012696351276599736,8154.120395785294
0.0013194755216767058,8417.01655451557
0.0013712724343984,8687.860572547934
0.0014251026703029975,8966.844639497405
0.0014810460488806749,9254.16105341875
0.0015391855229902056,9550.00264622786
0.001599607301861487,9854.560422372022
0.0016624009789266115,10168.025170742445
0.0017276596646690358,10490.585755544318
0.0017954801246878305,10822.428382238706
0.0018659629231817451,11163.73745772448
0.001939212572065829,11514.692069880326
0.0020153376859417325,11875.46763798264
0.002094451143151469,12246.233913793032
0.002176670253153458,12627.152502882354
0.002262116930469025,13018.379467518365
0.002350917875457286,13420.062067700284
0.002443204762186487,13832.339373181845
0.0025391144336803463,14255.34077463387
0.002638789104828933,14689.181720026458
0.002742376573264949,15133.966798574234
0.0028500304385181063,15589.784758392812
0.0029619103297725525,16056.708283536036
0.0030781821425650787,16534.794916499635
0.003199018284775064,17024.08168450846
0.0033245979322709396,17524.587820750585
0.003455107294592217,18036.308804861255
0.0035907398910610534,18559.213813539878
0.0037316968377327513,19093.249028903316
0.0038781871456107214,19638.32948646624
0.0040304280305680515,20194.342450742148
0.00418864523543527,20761.141117914598
0.004353073364731888,21338.537402580263
0.00452395623253805,21926.310058586554
0.004701547224022131,22524.19606999643
0.004886109671160325,23131.892704446615
0.005077917243205399,23749.046794940274
0.005277254352483535,24375.231834797618
0.005484416576121017,25009.97471907411
0.005699711094326071,25652.795123496348
0.005923457145875801,26303.200020688513
0.006155986501483508,26960.60492582472
0.006397643955748424,27624.18512788161
0.0066487878384172625,28293.007999159312
0.0069097905457156435,28966.17410693282
0.007181039092537346,29642.841723232483
0.007462935686310132,30322.091336734138
0.007755898323389004,31002.756750008455
0.00806036140886134,31683.532631613896
0.008376776400682916,32363.09821161791
0.008705612479099857,33040.16465232104
0.009047357242349292,33713.37613368691
0.00940251742967013,34381.157855461985
0.009771619672696168,35041.779395995174
0.010155211276345676,35693.41555419415
0.010553861030365234,36334.11511456882
0.010968160052731372,36961.846598251206
0.011398722666160517,37574.45673803834
0.011846187309026826,38169.68545266852
0.012311217482038896,38745.19689565933
0.012794502732078732,39298.530594011936
0.013296759674662111,39827.16481461961
0.013818733056536317,40328.46236913929
0.014361196859990781,40799.66525154542
0.014924955450518284,41237.9881960437
0.015510844769528393,41640.57490087276
0.016119733573881575,42004.56343598516
0.01675252472408214,42327.093418486154
0.017410156523040152,42605.296824860656
0.018093604107387147,42836.383407310284
0.01880388089340914,43017.658706154725
0.019542040079740527,43146.556851884
0.02030917620904734,43220.7003440319
0.021106426791015535,43237.965515085314
0.021934973989050584,43196.46732021209
0.02279604637318978,43094.75557490235
0.023690920741826323,42931.79900152641
0.02462092401494623,42706.94894255872
0.02558743520168586,42420.23509060753
0.02659188744512693,42072.09180493789
0.027635770147361564,41663.85702397509
0.028720631177978267,41197.853269070714
0.029848079169243254,40676.708831233365
0.03101978590138095,40103.524957143774
0.03223748878149028,39481.68057333171
0.0335029934197723,38816.62307551314
0.03481817630688963,38117.10911993302
0.03618498759642746,37391.43822848765
0.037605453996581675,36643.3492977503
0.03908168177536263,35874.17056038645
0.04061585988376978,35087.9461834485
0.04221026320156896,34295.42127709003
0.04386725591048496,33507.45457164916
0.0455892949998106,32731.505789982977
0.047378933909631396,31972.34262715466
0.049238826317067365,31233.276641305773
0.05117173007114603,30514.489367686874
0.05318051128214196,29815.047443953616
0.05526814857144601,29130.516345494216
0.057437737488265785,28455.177791421855
0.0596924950997073,27781.800232797843
0.0620357647610427,27102.602062042817
0.06447102107323864,26409.02660008728
0.06700187503509585,25692.463713369365
0.06963207939763882,24943.988313008296
0.0723655342286965,24155.665336540773
0.07520629269592405,23321.38235198537
0.07815856707684081,22439.632791903226
0.08122673500479707,21514.78944376231
0.08441534596012978,20558.352687984312
0.0877291280161335,19588.593372477153
0.09117299484984914,18626.62415095397
0.09475205302806537,17695.860748159987
0.09847160957933764,16819.839076992565
0.1023371798632519,16010.671524231724
0.10635449574860109,15274.41883941304
0.11052951411260206,14612.585927527363
0.1148684256737553,14015.581357268267
0.1193776641714435,13463.191570381596
0.1240639159058831,12928.230492220098
0.12893412965257148,12383.086716766868
0.13399552696593373,11807.256165413299
0.1392556128874462,11192.817513103617
0.14472218707411338,10547.30091752534
0.15040335536380234,9892.851163777541
0.15630754179458153,9260.148458201986
0.16244350109588662,8679.043374699957
0.16882033167003618,8169.645329071322
0.17544748908334581,7733.887593561179
0.1823348000868439,7350.516729208761
0.189492477187382,6983.897738623221
0.19693113379074215,6604.390090302181
0.20466179993919872,6200.688274393925
0.21269593866686892,5782.473371031354
0.22104546299710207,5377.645082089176
0.22972275360711503,5014.014922316596
0.23874067718606454,4700.632724642021
0.2481126055137766,4426.061245052301
0.25785243528842716,4164.931749378943
0.26797460873256895,3896.422433865944
0.27849413500806414,3621.0597020250334
0.28942661247167484,3358.604650249421
0.3007882518043098,3126.381491364059
0.31259590004822796,2921.867358266312
0.324867065587837,2729.7753006648313
0.3376199441111335,2538.4437447202763
0.35087344559027084,2351.553656594782
0.36464722232127456,2180.093905108996
0.37896169806447155,2027.0497160356547
0.3938380983288488,1883.6315102186188
0.4092984818452433,1744.503239574024
0.4253657732750382,1613.5189935396236
0.44206379720285277,1494.1637304495796
0.45941731346364734,1383.838466488383
0.47745205385661277,1279.0093575477797
0.4961947603002895,1181.134531765225
0.5156732244854959,1091.2166433903583
0.5359163290848509,1007.3942708415022
0.556954090580013,928.9575178519574
0.5788177037701272,856.5173839859317
0.6015395880274836,789.3278391911998
0.6251534353689703,726.8695956172556
0.6496942604146115,669.0812377617264
0.6751984523072497,615.5945247009917
0.7017038286703824,566.0554269622296
0.7292496916841444,520.272354960643
0.7578768863625915,477.9581590991839
0.7876278611187046,438.8757634519064
0.8185467307069019,402.80233568045173
0.850679341636415,369.5265383021551
0.8840733401525058,338.8487805013265
0.9187782428863317,310.5819342332187
0.9548455102782278,284.5507624287317
0.9923286228832539,260.59132063723223
1.0312831606721837,238.5503740567636
1.0717668854455022,218.28483198050034
1.1138398264826193,199.66119210746206
1.1575643695533022,182.55500618556783
1.2030053494233226,166.85036566058264
1.2502301459914542,152.4394046598518
1.299308784200415,139.2217594774879
1.3503140378698726,127.10412163023813
1.4033215376054824,115.99990154993641
1.4584098829439835,105.82880894004924
1.5156607589006013,96.51644707371516
1.575159057091621,87.99392172420526
1.6369930016117014,80.19744382238302
1.7012542798525885,73.06802350145428
1.7680381784572046,66.5511633506027
1.8374437246107238,60.59654706740938
1.9095738328780953,55.15774649247453
1.9845354578058014,50.19194181419525
2.0624397525140905,45.6596606566401
2.143402233514853,41.524546669854296
2.227542951999554,37.75313314901612
2.314986671851158,34.31462994286219
2.405863054644063,31.18072306566579
2.5003068519063225,28.325374822837954
2.598458104929248,25.7246619464794
2.7004623524206774,23.356626565661514
2.806470846309834,21.20112421735299
2.916640776023701,19.239682427394854
3.031135501567576,17.455368777320047
3.150124795755327,15.83266794734546
3.2737850959485697,14.357371444438463
3.4022997656780634,13.016473505333769
3.5358593665351745,11.798074188010776
3.6746619407366854,10.691289641974928
3.8189133047818515,9.686166314835722
3.968827354637162,8.773605629670165
4.1246263829013445,7.945297370748932
4.286541408420921,7.193654278370568
4.4548125188449825,6.511751599999638
4.629689226627261,5.893271416781952
4.811430839003257,5.332451339172307
5.000306842491082,4.824037560958271
5.196597302486189,4.36324162386389
5.400593278542364,3.9457006337832445
5.612597255954967,3.5674407106392017
5.8329235942862,3.22484213546479
6.06189899349756,2.914608298930763
6.29986297838068,2.6337401404136345
6.547168402004727,2.3795102655292975
6.804181968927091,2.1494389928963207
7.071284778942991,1.9412727280061803
7.348872892180382,1.7529661941275023
7.637357916378006,1.5826618837237376
7.937167617217536,1.428671637268013
8.248746552614573,1.289461688617233
8.572556731909314,1.1636389927416702
8.909078300934132,1.0499361607288376
9.258810253973934,0.9471969365506544
9.622271173675122,0.8543736660425173
9.999999999999984,0.7705184012157033
