k [1/Mpc],P(k) [Mpc^3]
0.0001,12532.91916399252
0.00010392556829367125,12948.582278344049
0.00010800523745162529,13377.923908863277
0.00011224505680853065,13821.381988065437
0.00011665131316981963,14279.40725109911
0.00012123054013376525,14752.46388219633
0.00012598952777950273,15241.028800968272
0.00013093533273536104,15745.59155466349
0.00013607528864243335,16266.65566417103
0.00014141701702890234,16804.73748126738
0.00014696843861124463,17360.36741027972
0.00015273778503907136,17934.089945850268
0.00015873361110102093,18526.46309153504
0.00016496480740980205,19138.059795064797
0.0001714406135851971,19769.46599567219
0.00017817063195457305,20421.281691279404
0.00018516484179121546,21094.121126717677
0.000192433614111598,21788.610355209068
0.00019998772705352857,22505.390134905483
0.0002078383818579757,23245.113644168276
0.00021599721947827182,24008.44671554011
0.0002244763378413224,24796.06904438015
0.0002332883097864157,25608.67009739051
0.00024244620170823283,26446.9524226647
0.0002519635929317015,27311.629196314712
0.0002618545958474233,28203.42278793514
0.0002721338768375308,29123.067138781877
0.0002828166780230032,30071.30018720013
0.0002939188398646886,31048.867911388097
0.0003054568246515432,32056.523889523065
0.00031744774091091926,33095.025898974905
0.00032990936877709396,34165.13903524982
0.00034286018635565856,35267.62710768629
0.00035631939712285854,36403.254753145586
0.000370306958400514,37572.78766003153
0.00038484361094874304,38776.98491291974
0.0003999509097203664,40016.604762559786
0.00041565125582259895,41292.397196164406
0.00043196792973341727,42605.1029548297
0.0004489251258218605,43955.45462510288
0.0004665479882234472,45344.16418936332
0.000484862648123908,46771.92998356066
0.000503896262506515,48239.42895504438
0.0005236770544204653,49747.31144893189
0.0005442343548300266,51296.20536239009
0.0005655986461065005,52886.69727915064
0.0005878016072274912,54519.33974697028
0.0006108761607505036,56194.64205086552
0.0006348565216305217,57913.05512645412
0.0006597782479539537,59674.98449493778
0.0006856782936641739,61480.76343887168
0.0007125950633568407,63330.65820562944
0.0007405684692262436,65224.863990159036
0.0007696399902471156,67163.47562904218
0.0007998527336796708,69146.50916320138
0.000831251498989063,71173.87211863349
0.0008638828442740447,73245.36054871025
0.000897795155303332,75360.6650744117
0.0009330387172620361,77519.327505072
0.0009696657893145519,79720.76806271326
0.001007730682094461,81964.299114619
0.0010472898382363582,84249.12248938569
0.0010884019160690055,86574.29915367874
0.0011311278765939214,88938.65358128627
0.001175531073878369,91340.8227286216
0.0012216773489967915,93779.2838886006
0.0012696351276599736,96252.3472922085
0.0013194755216767058,98758.15210449483
0.0013712724343984,101294.63518042107
0.0014251026703029975,103859.53703847418
0.0014810460488806749,106450.40379185557
0.0015391855229902056,109064.5680070382
0.001599607301861487,111699.16264383969
0.0016624009789266115,114351.09445079745
0.0017276596646690358,117017.04523231757
0.0017954801246878305,119693.48356467499
0.0018659629231817451,122376.63758914048
0.001939212572065829,125062.52003867639
0.0020153376859417325,127746.91780643487
0.002094451143151469,130425.38948391148
0.002176670253153458,133093.28803870446
0.002262116930469025,135745.74820716807
0.002350917875457286,138377.70589372664
0.002443204762186487,140983.87660614046
0.0025391144336803463,143558.73477663193
0.002638789104828933,146096.58433450802
0.002742376573264949,148591.61292401387
0.0028500304385181063,151037.89097299764
0.0029619103297725525,153429.07648479022
0.0030781821425650787,155757.96501100078
0.003199018284775064,158017.20922338008
0.0033245979322709396,160201.187626625
0.003455107294592217,162305.76635525614
0.0035907398910610534,164325.42106062509
0.0037316968377327513,166248.79676114046
0.0038781871456107214,168063.06871480448
0.0040304280305680515,169759.1388554701
0.00418864523543527,171332.47452308814
0.004353073364731888,172778.20807682877
0.00452395623253805,174086.86898099174
0.004701547224022131,175247.39174945318
0.004886109671160325,176250.88268665425
0.005077917243205399,177092.10584735882
0.005277254352483535,177766.16638602348
0.005484416576121017,178265.13754779313
0.005699711094326071,178579.67083633825
0.005923457145875801,178700.71336698608
0.006155986501483508,178619.3390763079
0.006397643955748424,178327.18166032457
0.0066487878384172625,177815.8245669875
0.0069097905457156435,177077.09591142225
0.007181039092537346,176103.69357158267
0.007462935686310132,174888.9739126148
0.007755898323389004,173427.37084108294
0.00806036140886134,171712.71501223804
0.008376776400682916,169738.19230592216
0.008705612479099857,167498.39790893518
0.009047357242349292,164988.3198411194
0.00940251742967013,162204.5988548769
0.009771619672696168,159145.12162343544
0.010155211276345676,155808.53730957222
0.010553861030365234,152195.96398534047
0.010968160052731372,148309.01851247656
0.011398722666160517,144151.46152370537
0.011846187309026826,139729.86382995048
0.012311217482038896,135052.55483348746
0.012794502732078732,130131.65860724145
0.013296759674662111,124981.66626508701
0.013818733056536317,119620.14310288258
0.014361196859990781,114068.81447270887
0.014924955450518284,108352.49493543773
0.015510844769528393,102500.00839644557
0.016119733573881575,96544.25670688416
0.01675252472408214,90521.58613656231
0.017410156523040152,84471.38377458895
0.018093604107387147,78437.50235840057
0.01880388089340914,72464.55286670382
0.019542040079740527,66599.15875059752
0.02030917620904734,60889.62632580641
0.021106426791015535,55380.17927774072
0.021934973989050584,50119.74969003014
0.02279604637318978,45151.004272585065
0.023690920741826323,40510.23322526263
0.02462092401494623,36233.725259874904
0.02558743520168586,32341.610726180505
0.02659188744512693,28848.797267945814
0.027635770147361564,25760.60068286357
0.028720631177978267,23072.448220695605
0.029848079169243254,20784.894819598016
0.03101978590138095,18888.812626200062
0.03223748878149028,17365.381876107123
0.0335029934197723,16193.25270461882
0.03481817630688963,15349.126976211712
0.03618498759642746,14790.163121328116
0.037605453996581675,14479.643786355073
0.03908168177536263,14378.110596451623
0.04061585988376978,14446.241094487013
0.04221026320156896,14632.794266953844
0.04386725591048496,14873.178083497984
0.0455892949998106,15079.154761042275
0.047378933909631396,15149.70753928464
0.049238826317067365,14999.535774958025
0.05117173007114603,14567.762264752717
0.05318051128214196,13831.219180916662
0.05526814857144601,12795.659143431743
0.057437737488265785,11502.858773358526
0.0596924950997073,10033.277884726767
0.0620357647610427,8490.162103985022
0.06447102107323864,7010.718817963325
0.06700187503509585,5725.357002952318
0.06963207939763882,4705.447978977449
0.0723655342286965,3978.988811115494
0.07520629269592405,3537.5811693606356
0.07815856707684081,3350.4864442847856
0.08122673500479707,3370.7250192096076
0.08441534596012978,3537.3188065679174
0.0877291280161335,3765.908694913483
0.09117299484984914,3947.559970138049
0.09475205302806537,3966.4906587392034
0.09847160957933764,3741.8287991772763
0.1023371798632519,3288.3483717965046
0.10635449574860109,2717.1150300131985
0.11052951411260206,2159.6827930302716
0.1148684256737553,1721.2996793026664
0.1193776641714435,1460.4619201541243
0.1240639159058831,1373.962680212494
0.12893412965257148,1412.530105172702
0.13399552696593373,1500.8687900789253
0.1392556128874462,1542.5667530113092
0.14472218707411338,1460.6442381381294
0.15040335536380234,1259.727565506694
0.15630754179458153,1019.2978906840422
0.16244350109588662,833.6524176411382
0.16882033167003618,742.8141701883
0.17544748908334581,732.0594693947137
0.1823348000868439,748.262573787053
0.189492477187382,726.0756436414346
0.19693113379074215,644.054550783148
0.20466179993919872,539.368841541875
0.21269593866686892,464.8361094176939
0.22104546299710207,434.87923267865017
0.22972275360711503,425.3703105084582
0.23874067718606454,400.34832067242525
0.2481126055137766,352.7182402767338
0.25785243528842716,306.9463929514998
0.26797460873256895,280.8276487570951
0.27849413500806414,265.7307234998089
0.28942661247167484,244.43834971237635
0.3007882518043098,217.0258988265921
0.31259590004822796,195.30034767765417
0.324867065587837,180.83608788734995
0.3376199441111335,165.70872661325333
0.35087344559027084,148.86779829804462
0.36464722232127456,135.08777089075105
0.37896169806447155,123.83239668583566
0.3938380983288488,112.29013615668123
0.4092984818452433,101.62891232101983
0.4253657732750382,92.66296063566581
0.44206379720285277,84.10041670666892
0.45941731346364734,76.22767932798399
0.47745205385661277,69.13161316360491
0.4961947603002895,62.7215436186656
0.5156732244854959,56.918018751986736
0.5359163290848509,51.65266518823389
0.556954090580013,46.866503708306105
0.5788177037701272,42.5085786783093
0.6015395880274836,38.53800674347048
0.6251534353689703,34.923756141612515
0.6496942604146115,31.637260976818535
0.6751984523072497,28.65168944934644
0.7017038286703824,25.941926152441162
0.7292496916841444,23.484507262932325
0.7578768863625915,21.25687852911883
0.7876278611187046,19.237634356598406
0.8185467307069019,17.407343853806037
0.850679341636415,15.748404004974274
0.8840733401525058,14.244864225229376
0.9187782428863317,12.882280374580258
0.9548455102782278,11.647685353681434
0.9923286228832539,10.529358601215739
1.0312831606721837,9.516617512700229
1.0717668854455022,8.59972832966223
1.1138398264826193,7.769825695995075
1.1575643695533022,7.018834338492908
1.2030053494233226,6.339382655082551
1.2502301459914542,5.724764777231721
1.299308784200415,5.16889219756736
1.3503140378698726,4.666238090510985
1.4033215376054824,4.211786520244821
1.4584098829439835,3.8009872878125854
1.5156607589006013,3.429715804492958
1.575159057091621,3.0942303779963805
1.6369930016117014,2.7911366029002256
1.7012542798525885,2.5173558830763865
1.7680381784572046,2.270096722545549
1.8374437246107238,2.046828106741832
1.9095738328780953,1.84525544677718
1.9845354578058014,1.6632998844216274
2.0624397525140905,1.4990785158610822
2.143402233514853,1.3508862711921907
2.227542951999554,1.2171794299178662
2.314986671851158,1.096560562647799
2.405863054644063,0.9877649262053702
2.5003068519063225,0.8896481816089974
2.598458104929248,0.8011751335458593
2.7004623524206774,0.7214094962927696
2.806470846309834,0.6495045907588505
2.916640776023701,0.5846947958854705
3.031135501567576,0.5262879804782404
3.150124795755327,0.4736586574434383
3.2737850959485697,0.42624166308288525
3.4022997656780634,0.38352642354480215
3.5358593665351745,0.3450517674913297
3.6746619407366854,0.31040126917525607
3.8189133047818515,0.2791989126859031
3.968827354637162,0.2511051937719471
4.1246263829013445,0.2258136255305943
4.286541408420921,0.2030475730673457
4.4548125188449825,0.1825573678889447
4.629689226627261,0.16411766862924182
4.811430839003257,0.14752519038538203
5.000306842491082,0.1325965914557833
5.196597302486189,0.11916653964514408
5.400593278542364,0.10708596358256112
5.612597255954967,0.09622046460142447
5.8329235942862,0.0864488823235955
6.06189899349756,0.0776620213187735
6.29986297838068,0.0697614842290321
6.547168402004727,0.06265861493565991
6.804181968927091,0.056273544623841466
7.071284778942991,0.050534355563048285
7.348872892180382,0.04537629896771983
7.637357916378006,0.04074104957514861
7.937167617217536,0.03657607373623876
8.248746552614573,0.03283406160165403
8.572556731909314,0.029472408814969712
8.909078300934132,0.026452675853977217
9.258810253973934,0.023740223271828995
9.622271173675122,0.021303914891128133
9.999999999999984,0.019115765195689007
