k [1/Mpc],P(k) [Mpc^3]
0.0001,77.93917863722955
0.00010392556829367125,81.23174271351434
0.00010800523745162529,84.66330324587298
0.00011224505680853065,88.2397119354966
0.00011665131316981963,91.967065583079
0.00012123054013376525,95.85171737225058
0.00012598952777950273,99.90028704525425
0.00013093533273536104,104.11967272009971
0.00013607528864243335,108.51706358492824
0.00014141701702890234,113.09994945217822
0.00014696843861124463,117.87612236557078
0.00015273778503907136,122.85369177745189
0.00015873361110102093,128.04110685494695
0.00016496480740980205,133.4471769863349
0.0001714406135851971,139.08108034591817
0.00017817063195457305,144.95237108261904
0.00018516484179121546,151.07099356928077
0.000192433614111598,157.44730307263325
0.00019998772705352857,164.0920768103068
0.0002078383818579757,171.0165348472195
0.00021599721947827182,178.23235725230847
0.0002244763378413224,185.75170008583763
0.0002332883097864157,193.5872179291685
0.00024244620170823283,201.75207679619984
0.0002519635929317015,210.2599769699258
0.0002618545958474233,219.12517412829453
0.0002721338768375308,228.362492268846
0.0002828166780230032,237.987354713986
0.0002939188398646886,248.01579773166458
0.0003054568246515432,258.4644932641168
0.00031744774091091926,269.3507808564602
0.00032990936877709396,280.69268104935213
0.00034286018635565856,292.508929824449
0.00035631939712285854,304.8189905336411
0.000370306958400514,317.64306706379
0.00038484361094874304,331.00215430071984
0.0003999509097203664,344.91805025395905
0.00041565125582259895,359.4133926992395
0.00043196792973341727,374.51168642973965
0.0004489251258218605,390.2373102812629
0.0004665479882234472,406.6155713153803
0.000484862648123908,423.67269587953945
0.000503896262506515,441.43586035807914
0.0005236770544204653,459.93325235308777
0.0005442343548300266,479.19407554491903
0.0005655986461065005,499.2486040576857
0.0005878016072274912,520.1281843453348
0.0006108761607505036,541.8652439896515
0.0006348565216305217,564.4933633921662
0.0006597782479539537,588.0472264057667
0.0006856782936641739,612.5626897528224
0.0007125950633568407,638.0768282421265
0.0007405684692262436,664.6279205346639
0.0007696399902471156,692.2555276083094
0.0007998527336796708,721.0004142871254
0.000831251498989063,750.9045846740634
0.0008638828442740447,782.011368999708
0.000897795155303332,814.3653544653919
0.0009330387172620361,848.0124819142619
0.0009696657893145519,882.9998872302513
0.001007730682094461,919.3758169864253
0.0010472898382363582,957.1898527919365
0.0010884019160690055,996.4928011399974
0.0011311278765939214,1037.3367676509508
0.001175531073878369,1079.7750458052922
0.0012216773489967915,1123.8618716572403
0.0012696351276599736,1169.6526839755227
0.0013194755216767058,1217.2038178301814
0.0013712724343984,1266.5725231274594
0.0014251026703029975,1317.817074364878
0.0014810460488806749,1370.9964685284172
0.0015391855229902056,1426.170590311925
0.001599607301861487,1483.3998022386234
0.0016624009789266115,1542.7447181891578
0.0017276596646690358,1604.2664786040148
0.0017954801246878305,1668.026179456606
0.0018659629231817451,1734.0850359423673
0.001939212572065829,1802.50416361286
0.0020153376859417325,1873.3440819978123
0.002094451143151469,1946.6649952901348
0.002176670253153458,2022.5259689753061
0.002262116930469025,2100.9848945765657
0.002350917875457286,2182.0984987154757
0.002443204762186487,2265.921461285349
0.0025391144336803463,2352.506753280702
0.002638789104828933,2441.9046953024204
0.002742376573264949,2534.162459216432
0.0028500304385181063,2629.3244077502777
0.0029619103297725525,2727.430794459301
0.0030781821425650787,2828.51802865714
0.003199018284775064,2932.617832960797
0.0033245979322709396,3039.755993265222
0.003455107294592217,3149.9530567762945
0.0035907398910610534,3263.2221741368576
0.0037316968377327513,3379.5691596680067
0.0038781871456107214,3498.992160060727
0.0040304280305680515,3621.4789562039045
0.00418864523543527,3747.0084894997594
0.004353073364731888,3875.54895581426
0.00452395623253805,4007.05697042166
0.004701547224022131,4141.47709504058
0.004886109671160325,4278.7338000374
0.005077917243205399,4418.73578110901
0.005277254352483535,4561.381988756291
0.005484416576121017,4706.564291192772
0.005699711094326071,4854.157922441661
0.005923457145875801,5003.985809024647
0.006155986501483508,5155.8297446791385
0.006397643955748424,5309.454016764883
0.0066487878384172625,5464.615088144463
0.0069097905457156435,5621.050679480361
0.007181039092537346,5778.472204879256
0.007462935686310132,5936.564425005873
0.007755898323389004,6094.981819193602
0.00806036140886134,6253.316975892134
0.008376776400682916,6411.123880497709
0.008705612479099857,6567.914390180952
0.009047357242349292,6723.149655512632
0.00940251742967013,6876.256967051382
0.009771619672696168,7026.605077369439
0.010155211276345676,7173.518659370405
0.010553861030365234,7316.277669905991
0.010968160052731372,7454.091166090292
0.011398722666160517,7586.134149461109
0.011846187309026826,7711.509607812741
0.012311217482038896,7829.258702939024
0.012794502732078732,7938.390313756244
0.013296759674662111,8037.82785126838
0.013818733056536317,8126.471860119821
0.014361196859990781,8203.172476463164
0.014924955450518284,8266.716805173599
0.015510844769528393,8315.904953575475
0.016119733573881575,8349.471032096311
0.01675252472408214,8366.162568591018
0.017410156523040152,8364.755196766895
0.018093604107387147,8343.998864214072
0.01880388089340914,8302.756463750644
0.019542040079740527,8239.928271206592
0.02030917620904734,8154.517074196441
0.021106426791015535,8045.717927345323
0.021934973989050584,7912.826680574848
0.02279604637318978,7755.411873835833
0.023690920741826323,7573.299379728656
0.02462092401494623,7366.587147410855
0.02558743520168586,7135.77085382312
0.02659188744512693,6881.669980834953
0.027635770147361564,6605.520917339116
0.028720631177978267,6309.072093237165
0.029848079169243254,5994.600694421007
0.03101978590138095,5664.78192678864
0.03223748878149028,5322.6069879382
0.0335029934197723,4971.331942020228
0.03481817630688963,4614.808529876316
0.03618498759642746,4258.168295083862
0.037605453996581675,3906.277382693442
0.03908168177536263,3562.906946530696
0.04061585988376978,3230.8440065114755
0.04221026320156896,2913.209661056646
0.04386725591048496,2615.299559016728
0.0455892949998106,2341.288102818102
0.047378933909631396,2093.9208608384274
0.049238826317067365,1874.5555946532106
0.05117173007114603,1683.9933340068335
0.05318051128214196,1522.3401457840405
0.05526814857144601,1388.9682064669903
0.057437737488265785,1282.8039684807673
0.0596924950997073,1202.3431748963708
0.0620357647610427,1145.8728400308134
0.06447102107323864,1111.2917021090866
0.06700187503509585,1095.8569933942333
0.06963207939763882,1096.2494166245347
0.0723655342286965,1108.279673923582
0.07520629269592405,1126.4169843977606
0.07815856707684081,1143.9645380808277
0.08122673500479707,1153.623700086304
0.08441534596012978,1148.3137700310212
0.0877291280161335,1122.078641141339
0.09117299484984914,1071.1005585832422
0.09475205302806537,994.7226305031943
0.09847160957933764,896.1881885044102
0.1023371798632519,782.6421901247156
0.10635449574860109,664.060564056791
0.11052951411260206,551.2452495004839
0.1148684256737553,453.5732611303738
0.1193776641714435,377.403025277829
0.1240639159058831,325.6389839998244
0.12893412965257148,298.2900464768222
0.13399552696593373,293.31141830744383
0.1392556128874462,306.873669390971
0.14472218707411338,332.640085785104
0.15040335536380234,360.7465476459574
0.15630754179458153,378.40603294713355
0.16244350109588662,373.89498542942346
0.16882033167003618,342.5256122811022
0.17544748908334581,289.9666162289112
0.1823348000868439,230.11755630008935
0.189492477187382,178.4874515758462
0.19693113379074215,145.20207012698552
0.20466179993919872,132.8420977273287
0.21269593866686892,138.82797844170923
0.22104546299710207,156.07784103089605
0.22972275360711503,171.60440733126737
0.23874067718606454,170.9982894557866
0.2481126055137766,149.41013373616403
0.25785243528842716,116.89796206389744
0.26797460873256895,89.56164563394675
0.27849413500806414,77.10115287655545
0.28942661247167484,79.74736654570313
0.3007882518043098,89.7081443164166
0.31259590004822796,93.57249938646197
0.324867065587837,82.83165071823919
0.3376199441111335,64.44822567762033
0.35087344559027084,51.90329644983656
0.36464722232127456,50.58241652145767
0.37896169806447155,55.42492444357861
0.3938380983288488,55.33062811603946
0.4092984818452433,46.2963802296598
0.4253657732750382,37.05408724979234
0.44206379720285277,34.95517812385597
0.45941731346364734,36.93037086677794
0.47745205385661277,34.84403279824265
0.4961947603002895,28.64808285030446
0.5156732244854959,25.41056983245572
0.5359163290848509,25.81091815237596
0.556954090580013,24.265790055208686
0.5788177037701272,20.499156159053893
0.6015395880274836,18.999986884874907
0.6251534353689703,18.53274029621822
0.6496942604146115,16.665895361772062
0.6751984523072497,15.066622019276053
0.7017038286703824,13.737242504703262
0.7292496916841444,12.583175438104
0.7578768863625915,11.56345884812594
0.7876278611187046,10.64672738942735
0.8185467307069019,9.808428330020389
0.850679341636415,9.029465602287662
0.8840733401525058,8.29865705894971
0.9187782428863317,7.615647365092886
0.9548455102782278,6.980780046544238
0.9923286228832539,6.393579692009589
1.0312831606721837,5.852913323431808
1.0717668854455022,5.357040482448477
1.1138398264826193,4.902842112524159
1.1575643695533022,4.486705211047899
1.2030053494233226,4.105342087217123
1.2502301459914542,3.7557691675799703
1.299308784200415,3.435276635434237
1.3503140378698726,3.141433610635051
1.4033215376054824,2.8720882655337507
1.4584098829439835,2.6252654366014494
1.5156607589006013,2.3991423450191776
1.575159057091621,2.192037522546478
1.6369930016117014,2.002400368562819
1.7012542798525885,1.8288006887115509
1.7680381784572046,1.6699205012748037
1.8374437246107238,1.524546260352002
1.9095738328780953,1.3915609687648969
1.9845354578058014,1.2699368392674508
2.0624397525140905,1.1587279786591236
2.143402233514853,1.057063815249326
2.227542951999554,0.964144362771253
2.314986671851158,0.8792348188774975
2.405863054644063,0.8016604319257998
2.5003068519063225,0.7308017985882385
2.598458104929248,0.6660907532611211
2.7004623524206774,0.6070060204497358
2.806470846309834,0.5530692948520558
2.916640776023701,0.5038418207220755
3.031135501567576,0.4589212311912207
3.150124795755327,0.417938495703343
3.2737850959485697,0.3805551894955975
3.4022997656780634,0.34646127902739354
3.5358593665351745,0.31537283077244127
3.6746619407366854,0.28702987288310455
3.8189133047818515,0.2611944426335169
3.968827354637162,0.23764886021226977
4.1246263829013445,0.21619395918868878
4.286541408420921,0.1966475030689164
4.4548125188449825,0.17884278593335404
4.629689226627261,0.1626273441927951
4.811430839003257,0.14786172775168327
5.000306842491082,0.13441840740959277
5.196597302486189,0.12218085405105365
5.400593278542364,0.11104261722525277
5.612597255954967,0.10090647238767356
5.8329235942862,0.09168363665615784
6.06189899349756,0.08329304317578541
6.29986297838068,0.07566069310146463
6.547168402004727,0.06871905604907697
6.804181968927091,0.062406515731206307
7.071284778942991,0.05666686264599145
7.348872892180382,0.05144885478564637
7.637357916378006,0.046705789032132315
7.937167617217536,0.04239506867752032
8.248746552614573,0.038477847810045804
8.572556731909314,0.034918708497097044
8.909078300934132,0.031685337398510274
9.258810253973934,0.028748154255962867
9.622271173675122,0.02608020790892614
9.999999999999984,0.02365699449288426
