k [1/Mpc],P(k) [Mpc^3]
0.0001,135.96103921602682
0.00010392556829367125,141.70562289633352
0.00010800523745162529,147.6928149646465
0.00011224505680853065,153.93284949411637
0.00011665131316981963,160.43639079760393
0.00012123054013376525,167.21454900954512
0.00012598952777950273,174.2789006015165
0.00013093533273536104,181.64150726881016
0.00013607528864243335,189.31493563900216
0.00014141701702890234,197.31227971071905
0.00014696843861124463,205.64718201620394
0.00015273778503907136,214.33385703874296
0.00015873361110102093,223.3871145118972
0.00016496480740980205,232.8223832322119
0.0001714406135851971,242.65573763870606
0.00017817063195457305,252.90391839512782
0.00018516484179121546,263.58436193203016
0.000192433614111598,274.71523056179433
0.00019998772705352857,286.3154376790066
0.0002078383818579757,298.40468357675553
0.00021599721947827182,311.0034859941604
0.0002244763378413224,324.1332137114193
0.0002332883097864157,337.81612309049575
0.00024244620170823283,352.07539174604585
0.0002519635929317015,366.9351578957069
0.0002618545958474233,382.4205385738845
0.0002721338768375308,398.5576599649901
0.0002828166780230032,415.37372396417203
0.0002939188398646886,432.8970641778291
0.0003054568246515432,451.15718551687075
0.00031744774091091926,470.18478339024324
0.00032990936877709396,490.01176710039397
0.00034286018635565856,510.6713403423097
0.00035631939712285854,532.198030938394
0.000370306958400514,554.6277504619818
0.00038484361094874304,577.99786732521
0.0003999509097203664,602.3472714933274
0.00041565125582259895,627.7164217774717
0.00043196792973341727,654.147326181267
0.0004489251258218605,681.6835999383402
0.0004665479882234472,710.3705831204264
0.000484862648123908,740.2553860061914
0.000503896262506515,771.3869709069664
0.0005236770544204653,803.8161897377207
0.0005442343548300266,837.5958372504066
0.0005655986461065005,872.7807469116888
0.0005878016072274912,909.4277725506346
0.0006108761607505036,947.5959108564807
0.0006348565216305217,987.3463890086049
0.0006597782479539537,1028.7427140191655
0.0006856782936641739,1071.8507748140505
0.0007125950633568407,1116.7387610322342
0.0007405684692262436,1163.477287066202
0.0007696399902471156,1212.1395550508169
0.0007998527336796708,1262.8014145784637
0.000831251498989063,1315.5414576704404
0.0008638828442740447,1370.4408645978306
0.000897795155303332,1427.5834756193535
0.0009330387172620361,1487.0560267636804
0.0009696657893145519,1548.948116500336
0.001007730682094461,1613.3523682907185
0.0010472898382363582,1680.364285010596
0.0010884019160690055,1750.0822052233632
0.0011311278765939214,1822.6076086437024
0.001175531073878369,1898.044958020514
0.0012216773489967915,1976.5018878590438
0.0012696351276599736,2058.0890204910147
0.0013194755216767058,2142.919652191533
0.0013712724343984,2231.1102588080544
0.0014251026703029975,2322.780237783916
0.0014810460488806749,2418.0520334924604
0.0015391855229902056,2517.0510953699227
0.001599607301861487,2619.905357319532
0.0016624009789266115,2726.7457175091226
0.0017276596646690358,2837.705438098293
0.0017954801246878305,2952.9200851049604
0.0018659629231817451,3072.5278379603133
0.001939212572065829,3196.668788063008
0.0020153376859417325,3325.4853189367805
0.002094451143151469,3459.121425709555
0.002176670253153458,3597.7222407984714
0.002262116930469025,3741.434506592124
0.002350917875457286,3890.405289785895
0.002443204762186487,4044.7823754073997
0.0025391144336803463,4204.713826594162
0.002638789104828933,4370.347000055778
0.002742376573264949,4541.8291148313665
0.0028500304385181063,4719.305680722754
0.0029619103297725525,4902.920512364824
0.0030781821425650787,5092.81533464371
0.003199018284775064,5289.127804119134
0.0033245979322709396,5491.992476625007
0.003455107294592217,5701.539000611376
0.0035907398910610534,5917.891504258364
0.0037316968377327513,6141.168588904839
0.0038781871456107214,6371.4803666715225
0.0040304280305680515,6608.92946045023
0.00418864523543527,6853.608933022554
0.004353073364731888,7105.600599867471
0.00452395623253805,7364.976004285697
0.004701547224022131,7631.7936817919635
0.004886109671160325,7906.099249701297
0.005077917243205399,8187.920231690319
0.005277254352483535,8477.259788419717
0.005484416576121017,8774.10447711714
0.005699711094326071,9078.439176792257
0.005923457145875801,9390.241784020578
0.006155986501483508,9709.450497138907
0.006397643955748424,10035.917193141147
0.0066487878384172625,10369.454231127816
0.0069097905457156435,10709.886696377294
0.007181039092537346,11057.051786736356
0.007462935686310132,11410.747364964185
0.007755898323389004,11770.674999311337
0.00806036140886134,12136.481548912116
0.008376776400682916,12507.806043396742
0.008705612479099857,12884.291915984062
0.009047357242349292,13265.543462108044
0.00940251742967013,13651.07524400243
0.009771619672696168,14040.337611260022
0.010155211276345676,14432.728998707751
0.010553861030365234,14827.588552712357
0.010968160052731372,15224.205472905065
0.011398722666160517,15621.810951382138
0.011846187309026826,16019.581601168213
0.012311217482038896,16416.64202485312
0.012794502732078732,16812.05886128412
0.013296759674662111,17204.848648363026
0.013818733056536317,17593.958211721147
0.014361196859990781,17978.267781696268
0.014924955450518284,18356.610988278266
0.015510844769528393,18727.77263093607
0.016119733573881575,19090.49792404593
0.01675252472408214,19443.493991016032
0.017410156523040152,19785.433253956147
0.018093604107387147,20114.96656292412
0.01880388089340914,20430.738137692282
0.019542040079740527,20731.38763973261
0.02030917620904734,21015.57160941999
0.021106426791015535,21281.987502165466
0.021934973989050584,21529.359964878062
0.02279604637318978,21756.503165386013
0.023690920741826323,21962.306071661842
0.02462092401494623,22145.742558224578
0.02558743520168586,22305.94708626077
0.02659188744512693,22442.14552203721
0.027635770147361564,22553.79368155746
0.028720631177978267,22640.56380002676
0.029848079169243254,22702.224094881567
0.03101978590138095,22738.662099799672
0.03223748878149028,22749.872816039537
0.0335029934197723,22736.41926152398
0.03481817630688963,22699.550122335266
0.03618498759642746,22640.37895504342
0.037605453996581675,22558.526014893105
0.03908168177536263,22453.08417393722
0.04061585988376978,22324.422714151966
0.04221026320156896,22175.143351232513
0.04386725591048496,22007.947833072434
0.0455892949998106,21824.156725988352
0.047378933909631396,21624.30146093349
0.049238826317067365,21408.317301211016
0.05117173007114603,21174.5202164768
0.05318051128214196,20921.08641882364
0.05526814857144601,20646.428238484168
0.057437737488265785,20349.199940304115
0.0596924950997073,20028.63640674405
0.0620357647610427,19685.335470678307
0.06447102107323864,19320.24013427796
0.06700187503509585,18934.405344485443
0.06963207939763882,18528.969129551326
0.0723655342286965,18105.03058880559
0.07520629269592405,17663.957072173624
0.07815856707684081,17208.820474086206
0.08122673500479707,16743.85414007506
0.08441534596012978,16275.15414089667
0.0877291280161335,15807.699603547244
0.09117299484984914,15344.589048804763
0.09475205302806537,14889.423732703423
0.09847160957933764,14442.764241739442
0.1023371798632519,14000.077593608648
0.10635449574860109,13557.829691692363
0.11052951411260206,13112.835861369933
0.1148684256737553,12661.909423802785
0.1193776641714435,12202.680186925809
0.1240639159058831,11736.556578960735
0.12893412965257148,11268.606471569376
0.13399552696593373,10806.24209523149
0.1392556128874462,10355.850808945686
0.14472218707411338,9920.970479894602
0.15040335536380234,9501.626798974166
0.15630754179458153,9095.201513408829
0.16244350109588662,8698.923859751245
0.16882033167003618,8311.311214270007
0.17544748908334581,7930.341832236588
0.1823348000868439,7554.0693520395425
0.189492477187382,7185.027746820792
0.19693113379074215,6828.242332233595
0.20466179993919872,6485.887611066354
0.21269593866686892,6158.472751873855
0.22104546299710207,5844.392808003712
0.22972275360711503,5539.5479047880235
0.23874067718606454,5243.391543072631
0.2481126055137766,4958.281125346668
0.25785243528842716,4685.829780211122
0.26797460873256895,4425.585258737207
0.27849413500806414,4176.112887282913
0.28942661247167484,3937.321550563491
0.3007882518043098,3709.076458464262
0.31259590004822796,3491.23784861099
0.324867065587837,3283.582539065419
0.3376199441111335,3086.403349393556
0.35087344559027084,2898.7183935952157
0.36464722232127456,2720.1793306819777
0.37896169806447155,2551.1356765031096
0.3938380983288488,2390.8775346204798
0.4092984818452433,2239.0180125894653
0.4253657732750382,2095.6008800775835
0.44206379720285277,1959.887920386631
0.45941731346364734,1831.927134364967
0.47745205385661277,1711.1239980188418
0.4961947603002895,1597.313608208572
0.5156732244854959,1490.1263911108927
0.5359163290848509,1389.2828437879896
0.556954090580013,1294.4764928245813
0.5788177037701272,1205.4653713078997
0.6015395880274836,1121.8975366503198
0.6251534353689703,1043.6070224989232
0.6496942604146115,970.2032606522887
0.6751984523072497,901.5087274499266
0.7017038286703824,837.2220389180536
0.7292496916841444,777.1071661355988
0.7578768863625915,720.9434959528321
0.7876278611187046,668.4978599159894
0.8185467307069019,619.5650106974367
0.850679341636415,573.9395515052602
0.8840733401525058,531.4242561468275
0.9187782428863317,491.83120711859095
0.9548455102782278,454.9815849928914
0.9923286228832539,420.7054456294172
1.0312831606721837,388.8415740149337
1.0717668854455022,359.2371695877005
1.1138398264826193,331.7474758833891
1.1575643695533022,306.2355106079113
1.2030053494233226,282.57179198033356
1.2502301459914542,260.6339770781827
1.299308784200415,240.30630983520368
1.3503140378698726,221.47972366288892
1.4033215376054824,204.0516748671981
1.4584098829439835,187.925833056874
1.5156607589006013,173.01177919047083
1.575159057091621,159.22475170010213
1.6369930016117014,146.48537120875437
1.7012542798525885,134.71928412264498
1.7680381784572046,123.85689227091332
1.8374437246107238,113.83309928706224
1.9095738328780953,104.58705596550702
1.9845354578058014,96.0618303967727
2.0624397525140905,88.20425697382493
2.143402233514853,80.96479573040045
2.227542951999554,74.29731429337572
2.314986671851158,68.15887903166367
2.405863054644063,62.50955625154513
2.5003068519063225,57.3122231119645
2.598458104929248,52.53239045797442
2.7004623524206774,48.13803403641181
2.806470846309834,44.09943451692679
2.916640776023701,40.389026087673116
3.031135501567576,36.981243882000946
3.150124795755327,33.85239057682839
3.2737850959485697,30.980525156922173
3.4022997656780634,28.345343313276462
3.5358593665351745,25.92806406509523
3.6746619407366854,23.71132214086398
3.8189133047818515,21.679059974859168
3.968827354637162,19.81644299309495
4.1246263829013445,18.109777707883996
4.286541408420921,16.546429032878393
4.4548125188449825,15.11474306524527
4.629689226627261,13.803974980544721
4.811430839003257,12.60422179375787
5.000306842491082,11.506360062288387
5.196597302486189,10.501987680492919
5.400593278542364,9.583369676061539
5.612597255954967,8.743387609240607
5.8329235942862,7.9754884782253095
6.06189899349756,7.273642951978668
6.29986297838068,6.632310291385511
6.547168402004727,6.046400491635396
6.804181968927091,5.511238982893947
7.071284778942991,5.022535216963789
7.348872892180382,4.576358080928315
7.637357916378006,4.169100759469094
7.937167617217536,3.797451988777646
8.248746552614573,3.458372935148679
8.572556731909314,3.1490757235504887
8.909078300934132,2.866994722807387
9.258810253973934,2.60976260602949
9.622271173675122,2.3752146254980726
9.999999999999984,2.1613737922595995
