k [1/Mpc],P(k) [Mpc^3]
0.0001,391.2813164359274
0.00010392556829367125,407.8046096691653
0.00010800523745162529,425.02462005487774
0.00011224505680853065,442.970605415029
0.00011665131316981963,461.67302467440885
0.00012123054013376525,481.16359582064126
0.00012598952777950273,501.4753269727666
0.00013093533273536104,522.6425879578451
0.00013607528864243335,544.7011775621322
0.00014141701702890234,567.6883832366588
0.00014696843861124463,591.6430278387827
0.00015273778503907136,616.605493628125
0.00015873361110102093,642.61780867004
0.00016496480740980205,669.7237126525793
0.0001714406135851971,697.968713268857
0.00017817063195457305,727.4001720913583
0.00018516484179121546,758.0673414511004
0.000192433614111598,790.0214524691046
0.00019998772705352857,823.3157923437101
0.0002078383818579757,858.0057450303088
0.00021599721947827182,894.1489117157714
0.0002244763378413224,931.8051522876582
0.0002332883097864157,971.0366715408509
0.00024244620170823283,1011.9081339903943
0.0002519635929317015,1054.4867015471539
0.0002618545958474233,1098.8421668060844
0.0002721338768375308,1145.0469548200806
0.0002828166780230032,1193.1761630818378
0.0002939188398646886,1243.3077732242773
0.0003054568246515432,1295.5226850573963
0.00031744774091091926,1349.9048567069829
0.00032990936877709396,1406.541340099291
0.00034286018635565856,1465.522252872042
0.00035631939712285854,1526.9410423141412
0.000370306958400514,1590.8945117957178
0.00038484361094874304,1657.4829489948474
0.0003999509097203664,1726.810200217966
0.00041565125582259895,1798.9835080370958
0.00043196792973341727,1874.1138482899032
0.0004489251258218605,1952.3159179690101
0.0004665479882234472,2033.7081970369059
0.000484862648123908,2118.413161084513
0.000503896262506515,2206.5570735159267
0.0005236770544204653,2298.270275354398
0.0005442343548300266,2393.687176990437
0.0005655986461065005,2492.946165074729
0.0005878016072274912,2596.189921475182
0.0006108761607505036,2703.5650043548885
0.0006348565216305217,2815.2220961637463
0.0006597782479539537,2931.3161525682954
0.0006856782936641739,3052.006101036043
0.0007125950633568407,3177.455219752671
0.0007405684692262436,3307.830501207408
0.0007696399902471156,3443.302662579199
0.0007998527336796708,3584.046419899086
0.000831251498989063,3730.2394179240214
0.0008638828442740447,3882.0629653396372
0.000897795155303332,4039.7015610005838
0.0009330387172620361,4203.342448778734
0.0009696657893145519,4373.176030675725
0.001007730682094461,4549.393915212334
0.0010472898382363582,4732.189632350569
0.0010884019160690055,4921.758495685138
0.0011311278765939214,5118.296429628865
0.001175531073878369,5322.000701405871
0.0012216773489967915,5533.067779702412
0.0012696351276599736,5751.693325890178
0.0013194755216767058,5978.072371283473
0.0013712724343984,6212.397160917784
0.0014251026703029975,6454.858075026292
0.0014810460488806749,6705.641211058261
0.0015391855229902056,6964.927260154311
0.001599607301861487,7232.892456134049
0.0016624009789266115,7509.705747379353
0.0017276596646690358,7795.529339884855
0.0017954801246878305,8090.516487405282
0.0018659629231817451,8394.808830507991
0.001939212572065829,8708.537933498788
0.0020153376859417325,9031.82190983456
0.002094451143151469,9364.765240643606
0.002176670253153458,9707.456842022688
0.002262116930469025,10059.965016090466
0.002350917875457286,10422.340043300657
0.002443204762186487,10794.61069792403
0.0025391144336803463,11176.782894186968
0.002638789104828933,11568.838913802138
0.002742376573264949,11970.730526756792
0.0028500304385181063,12382.38150119657
0.0029619103297725525,12803.682765222025
0.0030781821425650787,13234.488561602162
0.003199018284775064,13674.618565513181
0.0033245979322709396,14123.8463221072
0.003455107294592217,14581.902816484295
0.0035907398910610534,15048.475329139163
0.0037316968377327513,15523.201070132256
0.0038781871456107214,16005.669207273459
0.0040304280305680515,16495.387395874233
0.00418864523543527,16991.7874387579
0.004353073364731888,17494.266388763135
0.00452395623253805,18002.23781805267
0.004701547224022131,18515.0752753049
0.004886109671160325,19031.920293908835
0.005077917243205399,19551.651756778658
0.005277254352483535,20073.07752454347
0.005484416576121017,20595.06320656234
0.005699711094326071,21116.45188052553
0.005923457145875801,21636.008136011264
0.006155986501483508,22152.410136670605
0.006397643955748424,22664.248376733092
0.0066487878384172625,23169.85079747192
0.0069097905457156435,23667.36154085318
0.007181039092537346,24154.852409531657
0.007462935686310132,24630.34430097907
0.007755898323389004,25091.785387481585
0.00806036140886134,25536.838125508635
0.008376776400682916,25962.912381773745
0.008705612479099857,26367.34065736332
0.009047357242349292,26747.354331604245
0.00940251742967013,27100.139268882336
0.009771619672696168,27422.694943640297
0.010155211276345676,27711.79937905239
0.010553861030365234,27964.203012965703
0.010968160052731372,28176.416403682164
0.011398722666160517,28344.914639125942
0.011846187309026826,28466.13850543614
0.012311217482038896,28536.37544265671
0.012794502732078732,28552.072916589965
0.013296759674662111,28509.575653060685
0.013818733056536317,28405.331558391474
0.014361196859990781,28236.058893479843
0.014924955450518284,27998.476476753764
0.015510844769528393,27689.807794079883
0.016119733573881575,27307.584897063174
0.01675252472408214,26849.76055614021
0.017410156523040152,26315.10723246232
0.018093604107387147,25702.874426361093
0.01880388089340914,25013.305204929584
0.019542040079740527,24247.645366204968
0.02030917620904734,23408.089127982345
0.021106426791015535,22498.210439957584
0.021934973989050584,21522.83944121414
0.02279604637318978,20488.149558506844
0.023690920741826323,19401.78531765129
0.02462092401494623,18272.84568355248
0.02558743520168586,17111.512216791503
0.02659188744512693,15929.656549748752
0.027635770147361564,14740.066086019922
0.028720631177978267,13555.780926062269
0.029848079169243254,12391.071235345995
0.03101978590138095,11259.022276945741
0.03223748878149028,10173.58969087145
0.0335029934197723,9148.747855572869
0.03481817630688963,8194.615892217822
0.03618498759642746,7319.775701978604
0.037605453996581675,6529.261203418346
0.03908168177536263,5829.189039249356
0.04061585988376978,5227.272825368433
0.04221026320156896,4724.574637830632
0.04386725591048496,4316.084528777136
0.0455892949998106,3996.153506931974
0.047378933909631396,3760.751206714126
0.049238826317067365,3605.679931842347
0.05117173007114603,3523.2752658933364
0.05318051128214196,3505.636734220455
0.05526814857144601,3542.8021783838126
0.057437737488265785,3621.688301446829
0.0596924950997073,3725.1791774892527
0.0620357647610427,3831.762579087207
0.06447102107323864,3916.516731841513
0.06700187503509585,3953.046348270368
0.06963207939763882,3917.338211595499
0.0723655342286965,3791.219876599076
0.07520629269592405,3566.8146872677
0.07815856707684081,3249.8269428540016
0.08122673500479707,2861.722439119938
0.08441534596012978,2437.5043305969057
0.0877291280161335,2018.3649029862254
0.09117299484984914,1642.4835114753823
0.09475205302806537,1337.4935010993793
0.09847160957933764,1117.5392088439564
0.1023371798632519,985.1575444308324
0.10635449574860109,935.224361297996
0.11052951411260206,957.4619072099272
0.1148684256737553,1035.2744416819596
0.1193776641714435,1141.955170366132
0.1240639159058831,1238.1560379842936
0.12893412965257148,1277.4998223900318
0.13399552696593373,1225.4901743832418
0.1392556128874462,1081.8787788335153
0.14472218707411338,883.4255912396724
0.15040335536380234,683.94452942723
0.15630754179458153,530.0096929827715
0.16244350109588662,445.25290569894764
0.16882033167003618,429.6538596988246
0.17544748908334581,467.89167712862894
0.1823348000868439,529.294430003253
0.189492477187382,566.8023842516802
0.19693113379074215,540.4390116272501
0.20466179993919872,452.18540780519703
0.21269593866686892,346.9950583568319
0.22104546299710207,272.690125909909
0.22972275360711503,248.61753353939395
0.23874067718606454,266.33825550153273
0.2481126055137766,294.4127218487212
0.25785243528842716,292.2899105244136
0.26797460873256895,248.22387797636517
0.27849413500806414,193.88618830080728
0.28942661247167484,164.51596002488006
0.3007882518043098,166.17308958367482
0.31259590004822796,177.15135426701553
0.324867065587837,168.07057108967123
0.3376199441111335,138.92364982595882
0.35087344559027084,116.32133588112205
0.36464722232127456,113.03555619440498
0.37896169806447155,115.21807455104586
0.3938380983288488,104.72237078985891
0.4092984818452433,88.1306857375686
0.4253657732750382,81.03807926876837
0.44206379720285277,80.1028129413373
0.45941731346364734,73.1590554252063
0.47745205385661277,63.604826320464305
0.4961947603002895,59.69163710458507
0.5156732244854959,56.60445753420165
0.5359163290848509,50.517548684794164
0.556954090580013,45.42902722637885
0.5788177037701272,41.53171489973122
0.6015395880274836,38.38795704052762
0.6251534353689703,35.66188379238633
0.6496942604146115,33.10039223848986
0.6751984523072497,30.545031631654762
0.7017038286703824,28.02644110050439
0.7292496916841444,25.611897198840158
0.7578768863625915,23.350097787937212
0.7876278611187046,21.273333450000067
0.8185467307069019,19.40001164117572
0.850679341636415,17.72314769730906
0.8840733401525058,16.21308425441747
0.9187782428863317,14.843855098556551
0.9548455102782278,13.59422406080883
0.9923286228832539,12.446841496739177
1.0312831606721837,11.388197367514886
1.0717668854455022,10.41168906637662
1.1138398264826193,9.513145998855155
1.1575643695533022,8.688219745059243
1.2030053494233226,7.93246180199315
1.2502301459914542,7.241399412822399
1.299308784200415,6.6102343068022
1.3503140378698726,6.03366658762597
1.4033215376054824,5.506800403828047
1.4584098829439835,5.02521222069261
1.5156607589006013,4.584901327237996
1.575159057091621,4.182255695556808
1.6369930016117014,3.8141133636476443
1.7012542798525885,3.4776460976481394
1.7680381784572046,3.1702423364712016
1.8374437246107238,2.889491017326925
1.9095738328780953,2.6331679770146548
1.9845354578058014,2.3992144525850816
2.0624397525140905,2.18571121152652
2.143402233514853,1.9908961237034624
2.227542951999554,1.8131571003863234
2.314986671851158,1.651019432557138
2.405863054644063,1.503134412702091
2.5003068519063225,1.3682730121828743
2.598458104929248,1.2453140846849162
2.7004623524206774,1.1332303122190488
2.806470846309834,1.0310804609349131
2.916640776023701,0.9380024460262689
3.031135501567576,0.8532064476010844
3.150124795755327,0.7759675041829177
3.2737850959485697,0.7056223405726257
3.4022997656780634,0.6415649472175666
3.5358593665351745,0.5832417233093882
3.6746619407366854,0.5301470347578576
3.8189133047818515,0.48181961614275076
3.968827354637162,0.43783880372141404
4.1246263829013445,0.3978203022233862
4.286541408420921,0.361413069228494
4.4548125188449825,0.3282965145079709
4.629689226627261,0.29817786886183983
4.811430839003257,0.2707894961196837
5.000306842491082,0.24588710425762192
5.196597302486189,0.22324794872059442
5.400593278542364,0.202668962414054
5.612597255954967,0.18396504452173237
5.8329235942862,0.16696754584853965
6.06189899349756,0.15152286567036422
6.29986297838068,0.13749102499081675
6.547168402004727,0.12474446704496331
6.804181968927091,0.11316697502430627
7.071284778942991,0.1026526850168266
7.348872892180382,0.0931052097543139
7.637357916378006,0.08443678579895435
7.937167617217536,0.07656749219973978
8.248746552614573,0.06942456260074976
8.572556731909314,0.06294175668649604
8.909078300934132,0.057058706070833895
9.258810253973934,0.0517202702185932
9.622271173675122,0.046876322794533534
9.999999999999984,0.04248134407589334
