k [1/Mpc],P(k) [Mpc^3]
0.0001,58.17523091105058
0.00010392556829367125,60.63341500037706
0.00010800523745162529,63.195434797523156
0.00011224505680853065,65.86567604297426
0.00011665131316981963,68.64870995028966
0.00012123054013376525,71.5492963804895
0.00012598952777950273,74.57239221498875
0.00013093533273536104,77.72316322074458
0.00013607528864243335,81.00699477028652
0.00014141701702890234,84.42949947174456
0.00014696843861124463,87.99652384903497
0.00015273778503907136,91.71415711210047
0.00015873361110102093,95.58874461934357
0.00016496480740980205,99.62690383943047
0.0001714406135851971,103.83553325607963
0.00017817063195457305,108.22181715662728
0.00018516484179121546,112.79323113048828
0.000192433614111598,117.55756256576753
0.00019998772705352857,122.5229307372879
0.0002078383818579757,127.69779993463663
0.00021599721947827182,133.09098663226115
0.0002244763378413224,138.71166449501968
0.0002332883097864157,144.56938707866428
0.00024244620170823283,150.67411112435374
0.0002519635929317015,157.036215307257
0.0002618545958474233,163.6665101032291
0.0002721338768375308,170.57624072859304
0.0002828166780230032,177.77711226449105
0.0002939188398646886,185.28131770821648
0.0003054568246515432,193.10156166314144
0.00031744774091091926,201.25107570021808
0.00032990936877709396,209.7436267145511
0.00034286018635565856,218.5935403126169
0.00035631939712285854,227.81573156920388
0.000370306958400514,237.4257275315467
0.00038484361094874304,247.43969268743538
0.0003999509097203664,257.8744401073041
0.00041565125582259895,268.74745135621504
0.00043196792973341727,280.07691867367777
0.0004489251258218605,291.8817726410094
0.0004665479882234472,304.1817119923394
0.000484862648123908,316.9972222045475
0.000503896262506515,330.3495904082284
0.0005236770544204653,344.2609558804646
0.0005442343548300266,358.7543372576296
0.0005655986461065005,373.8536675432878
0.0005878016072274912,389.5838186045506
0.0006108761607505036,405.9705884530606
0.0006348565216305217,423.0407759912978
0.0006597782479539537,440.82223152888025
0.0006856782936641739,459.343895574268
0.0007125950633568407,478.63583132255667
0.0007405684692262436,498.72922204592174
0.0007696399902471156,519.6564334272762
0.0007998527336796708,541.4510384264944
0.000831251498989063,564.1478146709909
0.0008638828442740447,587.7828408879318
0.000897795155303332,612.3935209365397
0.0009330387172620361,638.0186324768333
0.0009696657893145519,664.698359830893
0.001007730682094461,692.4742486221149
0.0010472898382363582,721.3893232713267
0.0010884019160690055,751.4880989755509
0.0011311278765939214,782.8166052658582
0.001175531073878369,815.4224654562425
0.0012216773489967915,849.3547964428554
0.0012696351276599736,884.664326487335
0.0013194755216767058,921.4034270891092
0.0013712724343984,959.6260647660771
0.0014251026703029975,999.3879331083456
0.0014810460488806749,1040.7462473806202
0.0015391855229902056,1083.759816082291
0.001599607301861487,1128.489203809282
0.0016624009789266115,1174.9966600180437
0.0017276596646690358,1223.3462225952212
0.0017954801246878305,1273.6034842469992
0.0018659629231817451,1325.8355059556063
0.001939212572065829,1380.1110489265286
0.0020153376859417325,1436.5002319665155
0.002094451143151469,1495.074714849604
0.002176670253153458,1555.9076570170994
0.002262116930469025,1619.0734834184016
0.002350917875457286,1684.648095788633
0.002443204762186487,1752.7083694028458
0.0025391144336803463,1823.3321888736912
0.002638789104828933,1896.598539639503
0.002742376573264949,1972.5869549957733
0.0028500304385181063,2051.3778270163725
0.0029619103297725525,2133.0519318444235
0.0030781821425650787,2217.6901471068395
0.003199018284775064,2305.373692431604
0.0033245979322709396,2396.1832552984783
0.003455107294592217,2490.1992270942173
0.0035907398910610534,2587.5013907591474
0.0037316968377327513,2688.1682112745398
0.0038781871456107214,2792.2771786354033
0.0040304280305680515,2899.9034133155574
0.00418864523543527,3011.11962017185
0.004353073364731888,3125.9961568601334
0.00452395623253805,3244.599582447184
0.004701547224022131,3366.993242543013
0.004886109671160325,3493.2357329154315
0.005077917243205399,3623.380040715031
0.005277254352483535,3757.474163264288
0.005484416576121017,3895.5586359334743
0.005699711094326071,4037.667160731776
0.005923457145875801,4183.82476120294
0.006155986501483508,4334.044812011887
0.006397643955748424,4488.3318286887115
0.0066487878384172625,4646.683070040408
0.0069097905457156435,4809.08757690085
0.007181039092537346,4975.518282465805
0.007462935686310132,5145.915292248262
0.007755898323389004,5320.199251071999
0.00806036140886134,5498.278450120461
0.008376776400682916,5680.049123422809
0.008705612479099857,5865.390594955762
0.009047357242349292,6054.162598057902
0.00940251742967013,6246.20549393106
0.009771619672696168,6441.330964079956
0.010155211276345676,6639.311447484407
0.010553861030365234,6839.892644838645
0.010968160052731372,7042.785011940472
0.011398722666160517,7247.665540376955
0.011846187309026826,7454.180081484998
0.012311217482038896,7661.934682610148
0.012794502732078732,7870.502915649971
0.013296759674662111,8079.416746857856
0.013818733056536317,8288.164192785962
0.014361196859990781,8496.197925931661
0.014924955450518284,8702.920536224203
0.015510844769528393,8907.695560199225
0.016119733573881575,9109.8465611416
0.01675252472408214,9308.650255526118
0.017410156523040152,9503.351514486227
0.018093604107387147,9693.157037580846
0.01880388089340914,9877.24184243944
0.019542040079740527,10054.757935297494
0.02030917620904734,10224.833710731116
0.021106426791015535,10386.584355161578
0.021934973989050584,10539.127685233174
0.02279604637318978,10681.591383680845
0.023690920741826323,10813.116070780674
0.02462092401494623,10932.891456944442
0.02558743520168586,11040.142303600194
0.02659188744512693,11134.173313626838
0.027635770147361564,11214.419824790562
0.028720631177978267,11280.377746322132
0.029848079169243254,11331.660037076552
0.03101978590138095,11367.976928369224
0.03223748878149028,11389.24333336148
0.0335029934197723,11395.898880290313
0.03481817630688963,11388.52891769798
0.03618498759642746,11367.642722169508
0.037605453996581675,11333.660533819253
0.03908168177536263,11287.107693490674
0.04061585988376978,11228.944270118356
0.04221026320156896,11160.294615540684
0.04386725591048496,11082.46282644384
0.0455892949998106,10997.050283480388
0.047378933909631396,10905.662357581848
0.049238826317067365,10809.854677391173
0.05117173007114603,10711.129712919565
0.05318051128214196,10610.556632063168
0.05526814857144601,10508.332793299847
0.057437737488265785,10404.341165346163
0.0596924950997073,10297.542277064826
0.0620357647610427,10186.569364888634
0.06447102107323864,10069.50237897942
0.06700187503509585,9944.223127670628
0.06963207939763882,9808.38858863003
0.0723655342286965,9659.628638145401
0.07520629269592405,9495.542664017454
0.07815856707684081,9313.953556533472
0.08122673500479707,9113.128904683203
0.08441534596012978,8892.434264888363
0.0877291280161335,8652.839113000851
0.09117299484984914,8397.30083898762
0.09475205302806537,8130.897747302668
0.09847160957933764,7860.088612554431
0.1023371798632519,7591.773161585588
0.10635449574860109,7332.328081776585
0.11052951411260206,7086.773522818131
0.1148684256737553,6858.262035335752
0.1193776641714435,6648.076205846467
0.1240639159058831,6454.972481944492
0.12893412965257148,6271.124072584257
0.13399552696593373,6086.782984614577
0.1392556128874462,5892.765289672462
0.14472218707411338,5682.5733263663
0.15040335536380234,5454.828424846165
0.15630754179458153,5213.73178467778
0.16244350109588662,4968.134572974245
0.16882033167003618,4729.047698432995
0.17544748908334581,4506.232663985587
0.1823348000868439,4305.34555095966
0.189492477187382,4126.1323679368215
0.19693113379074215,3961.3816363087853
0.20466179993919872,3799.1618653620153
0.21269593866686892,3629.512262560717
0.22104546299710207,3449.6864124594376
0.22972275360711503,3264.3004691443302
0.23874067718606454,3083.718056971617
0.2481126055137766,2918.6930130296814
0.25785243528842716,2772.1958532260564
0.26797460873256895,2638.355097201223
0.27849413500806414,2506.986612728484
0.28942661247167484,2371.003722186185
0.3007882518043098,2232.7437733186703
0.31259590004822796,2101.0415840327646
0.324867065587837,1982.288612470583
0.3376199441111335,1873.8505080176114
0.35087344559027084,1768.774879688598
0.36464722232127456,1663.509773787098
0.37896169806447155,1561.1853796307523
0.3938380983288488,1466.288182950436
0.4092984818452433,1378.9572941935398
0.4253657732750382,1295.426171832012
0.44206379720285277,1213.875255496958
0.45941731346364734,1136.5237672867072
0.47745205385661277,1064.9418013285565
0.4961947603002895,997.187824814363
0.5156732244854959,932.2694563700102
0.5359163290848509,871.1573985851585
0.556954090580013,813.9145981942573
0.5788177037701272,759.8362065453911
0.6015395880274836,708.6900025813471
0.6251534353689703,660.8344287162412
0.6496942604146115,615.7706415333033
0.6751984523072497,573.4118925194814
0.7017038286703824,533.7084933708622
0.7292496916841444,496.48421822473466
0.7578768863625915,461.55829732985154
0.7876278611187046,428.906892062009
0.8185467307069019,398.3378176041666
0.850679341636415,369.7412070998463
0.8840733401525058,343.0270841367384
0.9187782428863317,318.09095548621025
0.9548455102782278,294.82763520096125
0.9923286228832539,273.1370510650003
1.0312831606721837,252.92409336626196
1.0717668854455022,234.098472162599
1.1138398264826193,216.57509804525282
1.1575643695533022,200.2738191755661
1.2030053494233226,185.1184904659079
1.2502301459914542,171.03682320675307
1.299308784200415,157.96027609351611
1.3503140378698726,145.82387934404417
1.4033215376054824,134.56594681927993
1.4584098829439835,124.12821076133983
1.5156607589006013,114.45576132233114
1.575159057091621,105.49690054306271
1.6369930016117014,97.2029970195689
1.7012542798525885,89.52832306483366
1.7680381784572046,82.4299248347464
1.8374437246107238,75.86751048060569
1.9095738328780953,69.80331603504335
1.9845354578058014,64.20197425745562
2.0624397525140905,59.0303836272085
2.143402233514853,54.257578365906994
2.227542951999554,49.854624330350674
2.314986671851158,45.79450758450454
2.405863054644063,42.05202418469514
2.5003068519063225,38.6036729035267
2.598458104929248,35.42753226868631
2.7004623524206774,32.50317918812809
2.806470846309834,29.811618263353456
2.916640776023701,27.33519241697349
3.031135501567576,25.057497663026947
3.150124795755327,22.96330231661651
3.2737850959485697,21.03847060015162
3.4022997656780634,19.269891031088637
3.5358593665351745,17.645408533545506
3.6746619407366854,16.153760390047356
3.8189133047818515,14.784515233850222
3.968827354637162,13.528010169160845
4.1246263829013445,12.37530288747329
4.286541408420921,11.318126404812316
4.4548125188449825,10.348841418851668
4.629689226627261,9.46039164551234
4.811430839003257,8.6462618912406
5.000306842491082,7.900438925435876
5.196597302486189,7.217375382828023
5.400593278542364,6.591955748280311
5.612597255954967,6.01946458614506
5.8329235942862,5.495556364660605
6.06189899349756,5.016224396925523
6.29986297838068,4.57777893663895
6.547168402004727,4.176825491388922
6.804181968927091,3.8102421897595704
7.071284778942991,3.475158824887221
7.348872892180382,3.168940511517257
7.637357916378006,2.8891701390138094
7.937167617217536,2.6336258051552837
8.248746552614573,2.4002653653268102
8.572556731909314,2.1872126261143148
8.909078300934132,1.9927420704182306
9.258810253973934,1.8152562807091186
9.622271173675122,1.6532887783283892
9.999999999999984,1.5054992206796844
