k [1/Mpc],P(k) [Mpc^3]
0.0001,79.28885258573871
0.00010392556829367125,82.87742626354655
0.00010800523745162529,86.62831047037051
0.00011224505680853065,90.54883597865498
0.00011665131316981963,94.64666311843946
0.00012123054013376525,98.92978959607743
0.00012598952777950273,103.4065683061733
0.00013093533273536104,108.08573026064482
0.00013607528864243335,112.97640770113627
0.00014141701702890234,118.08814456636264
0.00014696843861124463,123.4309010737158
0.00015273778503907136,129.01507224795606
0.00015873361110102093,134.85151884237177
0.00016496480740980205,140.95159548720636
0.0001714406135851971,147.32716723599356
0.00017817063195457305,153.99062591703427
0.00018516484179121546,160.9549110429893
0.000192433614111598,168.23353685488712
0.00019998772705352857,175.84060332284218
0.0002078383818579757,183.7908279024254
0.00021599721947827182,192.09958462126647
0.0002244763378413224,200.78294087236446
0.0002332883097864157,209.85767721599126
0.00024244620170823283,219.3412931816409
0.0002519635929317015,229.2520390288184
0.0002618545958474233,239.6089649547843
0.0002721338768375308,250.43195264636543
0.0002828166780230032,261.74175308117094
0.0002939188398646886,273.5600168593619
0.0003054568246515432,285.9093281480641
0.00031744774091091926,298.81324920704424
0.00032990936877709396,312.2963345204981
0.00034286018635565856,326.38418419578244
0.00035631939712285854,341.1034895157832
0.000370306958400514,356.48206114303855
0.00038484361094874304,372.5488925113058
0.0003999509097203664,389.3341874043407
0.00041565125582259895,406.8694099969216
0.00043196792973341727,425.1873404794994
0.0004489251258218605,444.3220857835069
0.0004665479882234472,464.3091628582365
0.000484862648123908,485.1855372420868
0.000503896262506515,506.989664129878
0.0005236770544204653,529.761566604832
0.0005442343548300266,553.5428254048813
0.0005655986461065005,578.3766685172671
0.0005878016072274912,604.3080470684037
0.0006108761607505036,631.3836726124896
0.0006348565216305217,659.6521002925759
0.0006597782479539537,689.16367711888
0.0006856782936641739,719.9706117296988
0.0007125950633568407,752.1271070323186
0.0007405684692262436,785.6893775105709
0.0007696399902471156,820.7157482095334
0.0007998527336796708,857.2665936047919
0.000831251498989063,895.4043315809724
0.0008638828442740447,935.1936162736868
0.000897795155303332,976.7012855653865
0.0009330387172620361,1019.9964759878234
0.0009696657893145519,1065.1505883269226
0.001007730682094461,1112.2371334551215
0.0010472898382363582,1161.3320044535258
0.0010884019160690055,1212.5133271880034
0.0011311278765939214,1265.861520555829
0.001175531073878369,1321.45935610668
0.0012216773489967915,1379.3915610319557
0.0012696351276599736,1439.745161193631
0.0013194755216767058,1502.6093922309055
0.0013712724343984,1568.0756059183907
0.0014251026703029975,1636.2373966741413
0.0014810460488806749,1707.1899758329728
0.0015391855229902056,1781.0304309828423
0.001599607301861487,1857.8576634119281
0.0016624009789266115,1937.7719472702047
0.0017276596646690358,2020.8752627120946
0.0017954801246878305,2107.2706280676853
0.0018659629231817451,2197.062060249394
0.001939212572065829,2290.35466802308
0.0020153376859417325,2387.253882135249
0.002094451143151469,2487.865762104597
0.002176670253153458,2592.296220274118
0.002262116930469025,2700.65049401952
0.002350917875457286,2813.033499235559
0.002443204762186487,2929.5485921725685
0.0025391144336803463,3050.2977561144994
0.002638789104828933,3175.3809689065292
0.002742376573264949,3304.8949231890488
0.0028500304385181063,3438.933636620707
0.0029619103297725525,3577.586815455023
0.0030781821425650787,3720.9395687494225
0.003199018284775064,3869.072164097226
0.0033245979322709396,4022.057719109384
0.003455107294592217,4179.963010635415
0.0035907398910610534,4342.846632383074
0.0037316968377327513,4510.757717708039
0.0038781871456107214,4683.736258842692
0.0040304280305680515,4861.808659570819
0.00418864523543527,5044.988887415963
0.004353073364731888,5233.277617844773
0.00452395623253805,5426.659510366352
0.004701547224022131,5625.103967464275
0.004886109671160325,5828.555628742121
0.005077917243205399,6036.934925308133
0.005277254352483535,6250.145418136439
0.005484416576121017,6468.080140225982
0.005699711094326071,6690.613280990654
0.005923457145875801,6917.561675274613
0.006155986501483508,7148.6727079191205
0.006397643955748424,7383.661440273683
0.0066487878384172625,7622.228494438105
0.0069097905457156435,7864.049679994186
0.007181039092537346,8108.765544821059
0.007462935686310132,8355.97759719365
0.007755898323389004,8605.248651256232
0.00806036140886134,8856.062428192665
0.008376776400682916,9107.832617441576
0.008705612479099857,9359.918616120713
0.009047357242349292,9611.600408910805
0.00940251742967013,9862.102562423619
0.009771619672696168,10110.577460394556
0.010155211276345676,10356.101422779993
0.010553861030365234,10597.692996463378
0.010968160052731372,10834.270339715758
0.011398722666160517,11064.684691892442
0.011846187309026826,11287.707507486319
0.012311217482038896,11502.000424445852
0.012794502732078732,11706.17472603586
0.013296759674662111,11898.73799365947
0.013818733056536317,12078.126864378015
0.014361196859990781,12242.734216428607
0.014924955450518284,12390.851869926239
0.015510844769528393,12520.761615629963
0.016119733573881575,12630.696717563484
0.01675252472408214,12718.854668797116
0.017410156523040152,12783.483183011727
0.018093604107387147,12822.818570205958
0.01880388089340914,12835.184016453002
0.019542040079740527,12819.013770613006
0.02030917620904734,12772.848349296886
0.021106426791015535,12695.442612655683
0.021934973989050584,12585.781713372557
0.02279604637318978,12443.125506313432
0.023690920741826323,12267.084596847379
0.02462092401494623,12057.702146977632
0.02558743520168586,11815.406619545747
0.02659188744512693,11541.193575705089
0.027635770147361564,11236.61189347769
0.028720631177978267,10903.651175886573
0.029848079169243254,10545.174801916537
0.03101978590138095,10164.426091216561
0.03223748878149028,9765.218008322392
0.0335029934197723,9352.116877781074
0.03481817630688963,8929.68351292385
0.03618498759642746,8503.564612160835
0.037605453996581675,8079.5729735739815
0.03908168177536263,7662.980128519417
0.04061585988376978,7258.95839635874
0.04221026320156896,6871.9956105357605
0.04386725591048496,6507.8105090610825
0.0455892949998106,6172.318794782073
0.047378933909631396,5869.448850421842
0.049238826317067365,5601.297197937541
0.05117173007114603,5368.952494898817
0.05318051128214196,5172.547915207889
0.05526814857144601,5011.145103349965
0.057437737488265785,4882.509295819922
0.0596924950997073,4783.046052905793
0.0620357647610427,4707.829756293628
0.06447102107323864,4649.823613226132
0.06700187503509585,4600.082865871072
0.06963207939763882,4547.635922924349
0.0723655342286965,4481.733002286328
0.07520629269592405,4391.037710894986
0.07815856707684081,4264.684397687892
0.08122673500479707,4096.256642626718
0.08441534596012978,3884.4442954115552
0.0877291280161335,3633.358731647672
0.09117299484984914,3352.8509329677877
0.09475205302806537,3057.9047625541584
0.09847160957933764,2766.725524806616
0.1023371798632519,2498.023151998057
0.10635449574860109,2267.9795315007314
0.11052951411260206,2087.610271848691
0.1148684256737553,1961.5084766524346
0.1193776641714435,1887.7706301283808
0.1240639159058831,1857.9155286908801
0.12893412965257148,1856.4946350628225
0.13399552696593373,1861.6212902382701
0.1392556128874462,1848.1145575816274
0.14472218707411338,1793.7654572069578
0.15040335536380234,1687.4518549623604
0.15630754179458153,1535.8088034443167
0.16244350109588662,1362.6333632749586
0.16882033167003618,1198.8116402167457
0.17544748908334581,1070.29882916837
0.1823348000868439,991.4952841258771
0.189492477187382,961.7389658888623
0.19693113379074215,963.259053543667
0.20466179993919872,965.9372150700622
0.21269593866686892,939.8136222862885
0.22104546299710207,870.8274096407172
0.22972275360711503,771.7620476011078
0.23874067718606454,674.38525826765
0.2481126055137766,607.7813528666525
0.25785243528842716,580.6512296386118
0.26797460873256895,577.3407620080301
0.27849413500806414,568.3774003351632
0.28942661247167484,531.1406817429524
0.3007882518043098,471.3444546449013
0.31259590004822796,416.7033328959468
0.324867065587837,387.51385813029964
0.3376199441111335,378.57569425974094
0.35087344559027084,366.50881385318485
0.36464722232127456,336.0153090063844
0.37896169806447155,298.70796612182704
0.3938380983288488,274.42012147268883
0.4092984818452433,263.95546283164975
0.4253657732750382,250.6558722497724
0.44206379720285277,227.40372973172114
0.45941731346364734,206.22157384068962
0.47745205385661277,194.64452231928922
0.4961947603002895,183.68579920028043
0.5156732244854959,167.50265714703505
0.5359163290848509,153.6613936167887
0.556954090580013,144.51827719474574
0.5788177037701272,133.78063413528062
0.6015395880274836,122.41295231552664
0.6251534353689703,113.95780069576864
0.6496942604146115,105.92653549015493
0.6751984523072497,97.94738866781852
0.7017038286703824,90.2779988587738
0.7292496916841444,83.12358933187059
0.7578768863625915,76.59439886368845
0.7876278611187046,70.63956478117225
0.8185467307069019,65.18319535110929
0.850679341636415,60.16144454402977
0.8840733401525058,55.52060530597042
0.9187782428863317,51.21558042174007
0.9548455102782278,47.21424244617885
0.9923286228832539,43.5001237697129
1.0312831606721837,40.0583049911839
1.0717668854455022,36.87375142882488
1.1138398264826193,33.93148187260056
1.1575643695533022,31.216664475498437
1.2030053494233226,28.71346700059978
1.2502301459914542,26.40548006988998
1.299308784200415,24.27751861670187
1.3503140378698726,22.315612862619084
1.4033215376054824,20.506905753170102
1.4584098829439835,18.839585454787862
1.5156607589006013,17.30304091957
1.575159057091621,15.887583483541484
1.6369930016117014,14.584182183538985
1.7012542798525885,13.384422782084451
1.7680381784572046,12.280471702896461
1.8374437246107238,11.265029305761699
1.9095738328780953,10.331251795787402
1.9845354578058014,9.472781082767817
2.0624397525140905,8.683735342659677
2.143402233514853,7.9586749989012455
2.227542951999554,7.292570980931682
2.314986671851158,6.680779457588192
2.405863054644063,6.11901953783514
2.5003068519063225,5.603334813211971
2.598458104929248,5.130068103459771
2.7004623524206774,4.695840163164946
2.806470846309834,4.297529723708783
2.916640776023701,3.9322524147693296
3.031135501567576,3.5973433460083664
3.150124795755327,3.2903451183822443
3.2737850959485697,3.0089926606807196
3.4022997656780634,2.7511987955722037
3.5358593665351745,2.5150408454910282
3.6746619407366854,2.298748375019403
3.8189133047818515,2.10069151077652
3.968827354637162,1.919370028056696
4.1246263829013445,1.753403427610648
4.286541408420921,1.6015217397596229
4.4548125188449825,1.4625569687220261
4.629689226627261,1.3354350242100241
4.811430839003257,1.2191686066111551
5.000306842491082,1.1128505344823671
5.196597302486189,1.015647457000584
5.400593278542364,0.9267940390142857
5.612597255954967,0.8455874755055173
5.8329235942862,0.7713823054454796
6.06189899349756,0.7035862342849195
6.29986297838068,0.6416559649004189
6.547168402004727,0.5850932507256461
6.804181968927091,0.5334412594152
7.071284778942991,0.4862814875848548
7.348872892180382,0.4432307747669473
7.637357916378006,0.4039378843085886
7.937167617217536,0.36808086959542136
8.248746552614573,0.3353647081794574
8.572556731909314,0.3055190715498591
8.909078300934132,0.2782952979588827
9.258810253973934,0.25346497201378826
9.622271173675122,0.23081947530157296
9.999999999999984,0.2101683176443441
