k [1/Mpc],P(k) [Mpc^3]
0.0001,50.88341291992117
0.00010392556829367125,53.18669714604928
0.00010800523745162529,55.59420024063417
0.00011224505680853065,58.110633282199736
0.00011665131316981963,60.740919724843515
0.00012123054013376525,63.49020401593303
0.00012598952777950273,66.36386221757611
0.00013093533273536104,69.36751216484276
0.00013607528864243335,72.50702408838997
0.00014141701702890234,75.78853244224008
0.00014696843861124463,79.21844741611116
0.00015273778503907136,82.80346748818774
0.00015873361110102093,86.5505921181516
0.00016496480740980205,90.46713482677228
0.0001714406135851971,94.56073754597482
0.00017817063195457305,98.83938283791214
0.00018516484179121546,103.31140980002056
0.000192433614111598,107.98553043206742
0.00019998772705352857,112.87084430870863
0.0002078383818579757,117.97685766080401
0.00021599721947827182,123.31350065415047
0.0002244763378413224,128.89114613305875
0.0002332883097864157,134.72062981508557
0.00024244620170823283,140.8132696374636
0.0002519635929317015,147.1808876639866
0.0002618545958474233,153.83582381397102
0.0002721338768375308,160.7909546607912
0.0002828166780230032,168.05972715469392
0.0002939188398646886,175.65618858412952
0.0003054568246515432,183.59501031454772
0.00031744774091091926,191.89150354446846
0.00032990936877709396,200.56163698298633
0.00034286018635565856,209.6220782005749
0.00035631939712285854,219.090214723879
0.000370306958400514,228.98418775608368
0.00038484361094874304,239.32293197474667
0.0003999509097203664,250.1262124565264
0.00041565125582259895,261.41465489618963
0.00043196792973341727,273.20974829393396
0.0004489251258218605,285.53388013253806
0.0004665479882234472,298.4103970903469
0.000484862648123908,311.8636362711084
0.000503896262506515,325.918972269114
0.0005236770544204653,340.6028461853477
0.0005442343548300266,355.94280168402344
0.0005655986461065005,371.96753972713475
0.0005878016072274912,388.70692530850414
0.0006108761607505036,406.1920545483103
0.0006348565216305217,424.4553078295395
0.0006597782479539537,443.5303872086262
0.0006856782936641739,463.45237713170746
0.0007125950633568407,484.2577265760931
0.0007405684692262436,505.98431998116234
0.0007696399902471156,528.6715662422793
0.0007998527336796708,552.3604439127934
0.000831251498989063,577.0935624825539
0.0008638828442740447,602.915114929047
0.000897795155303332,629.8709289373312
0.0009330387172620361,658.0085914178419
0.0009696657893145519,687.3774555763788
0.001007730682094461,718.0287350843253
0.0010472898382363582,750.0154621528062
0.0010884019160690055,783.3924902602375
0.0011311278765939214,818.216653483364
0.001175531073878369,854.546719673392
0.0012216773489967915,892.4434992035016
0.0012696351276599736,931.9697866378604
0.0013194755216767058,973.1902421419264
0.0013712724343984,1016.1716438652592
0.0014251026703029975,1060.9827957042673
0.0014810460488806749,1107.6946088205373
0.0015391855229902056,1156.3801075347558
0.001599607301861487,1207.1142145170384
0.0016624009789266115,1259.9739942787585
0.0017276596646690358,1315.0384001626678
0.0017954801246878305,1372.3882677414672
0.0018659629231817451,1432.1064802119538
0.001939212572065829,1494.277663868341
0.0020153376859417325,1558.9883851272998
0.002094451143151469,1626.3268521064817
0.002176670253153458,1696.3827080492413
0.002262116930469025,1769.2472688136943
0.002350917875457286,1845.012930452074
0.002443204762186487,1923.7733652328434
0.0025391144336803463,2005.6233230389153
0.002638789104828933,2090.6581688153065
0.002742376573264949,2178.9741571018963
0.0028500304385181063,2270.667681490433
0.0029619103297725525,2365.83527611625
0.0030781821425650787,2464.573419442121
0.003199018284775064,2566.9775659007373
0.0033245979322709396,2673.14259479112
0.003455107294592217,2783.1619129031924
0.0035907398910610534,2897.12712610142
0.0037316968377327513,3015.1280031187976
0.0038781871456107214,3137.250983581829
0.0040304280305680515,3263.5796170878643
0.00418864523543527,3394.1934895350605
0.004353073364731888,3529.1673217904467
0.00452395623253805,3668.5713793791588
0.004701547224022131,3812.470036227412
0.004886109671160325,3960.9217294840837
0.005077917243205399,4113.976268943721
0.005277254352483535,4271.6715493203765
0.005484416576121017,4434.03729618316
0.005699711094326071,4601.102510066696
0.005923457145875801,4772.8927585319325
0.006155986501483508,4949.413448222317
0.006397643955748424,5130.625697314974
0.0066487878384172625,5316.469692092234
0.0069097905457156435,5506.891251855373
0.007181039092537346,5701.841600032862
0.007462935686310132,5901.250840934773
0.007755898323389004,6104.99811682067
0.00806036140886134,6312.932508983355
0.008376776400682916,6524.897069681874
0.008705612479099857,6740.735148608264
0.009047357242349292,6960.26756563472
0.00940251742967013,7183.265675467617
0.009771619672696168,7409.464136110052
0.010155211276345676,7638.566906853515
0.010553861030365234,7870.242913488312
0.010968160052731372,8104.130539947059
0.011398722666160517,8339.83291165559
0.011846187309026826,8576.919252085032
0.012311217482038896,8814.925805404726
0.012794502732078732,9053.352190107642
0.013296759674662111,9291.665154828002
0.013818733056536317,9529.287523091192
0.014361196859990781,9765.599295878119
0.014924955450518284,9999.947973016755
0.015510844769528393,10231.6469163949
0.016119733573881575,10459.979976209614
0.01675252472408214,10684.201942118947
0.017410156523040152,10903.54005020932
0.018093604107387147,11117.20090231348
0.01880388089340914,11324.378513140024
0.019542040079740527,11524.255345146814
0.02030917620904734,11716.014158527645
0.021106426791015535,11898.851520960754
0.021934973989050584,12071.970378703782
0.02279604637318978,12234.61526450362
0.023690920741826323,12386.064661321261
0.02462092401494623,12525.637270214496
0.02558743520168586,12652.735578139867
0.02659188744512693,12766.807767955424
0.027635770147361564,12867.427468967724
0.028720631177978267,12954.287872208608
0.029848079169243254,13027.134381877655
0.03101978590138095,13085.77882111572
0.03223748878149028,13130.093571909661
0.0335029934197723,13160.279037817605
0.03481817630688963,13176.93669033238
0.03618498759642746,13180.597002635683
0.037605453996581675,13170.925392776035
0.03908168177536263,13147.27525503628
0.04061585988376978,13109.742728184452
0.04221026320156896,13059.740523376398
0.04386725591048496,12998.757470580786
0.0455892949998106,12927.482104662802
0.047378933909631396,12846.142676718855
0.049238826317067365,12754.615404093882
0.05117173007114603,12651.808039022124
0.05318051128214196,12536.532454104823
0.05526814857144601,12407.729232000298
0.057437737488265785,12264.473128862262
0.0596924950997073,12106.179814891575
0.0620357647610427,11933.0851217394
0.06447102107323864,11745.638192927276
0.06700187503509585,11544.362347385433
0.06963207939763882,11329.838461920426
0.0723655342286965,11102.630935440813
0.07520629269592405,10863.4763167077
0.07815856707684081,10614.171630295721
0.08122673500479707,10357.253705103793
0.08441534596012978,10096.444760923985
0.0877291280161335,9834.815523367693
0.09117299484984914,9574.299000770574
0.09475205302806537,9317.165168199974
0.09847160957933764,9063.801954418243
0.1023371798632519,8811.395780014116
0.10635449574860109,8557.730801725382
0.11052951411260206,8300.786663702936
0.1148684256737553,8038.518404088055
0.1193776641714435,7769.377396551509
0.1240639159058831,7494.210125652716
0.12893412965257148,7216.216630099632
0.13399552696593373,6940.1398706261725
0.1392556128874462,6670.117678566971
0.14472218707411338,6408.494986694508
0.15040335536380234,6155.368256150222
0.15630754179458153,5909.116855962129
0.16244350109588662,5668.001583216565
0.16882033167003618,5431.104492731505
0.17544748908334581,5197.143425885365
0.1823348000868439,4964.870701601579
0.189492477187382,4735.977226384167
0.19693113379074215,4513.820265474182
0.20466179993919872,4299.905744528911
0.21269593866686892,4094.649400873248
0.22104546299710207,3897.06164623329
0.22972275360711503,3704.4725511244646
0.23874067718606454,3516.5640228532584
0.2481126055137766,3334.967198980155
0.25785243528842716,3160.8297820024195
0.26797460873256895,2993.915184950826
0.27849413500806414,2833.317157939314
0.28942661247167484,2679.03277205257
0.3007882518043098,2531.0289279616795
0.31259590004822796,2389.2684080321696
0.324867065587837,2253.65597955571
0.3376199441111335,2124.4501573416587
0.35087344559027084,2001.0321744459445
0.36464722232127456,1883.2143823436927
0.37896169806447155,1771.2911909705142
0.3938380983288488,1664.8224300267138
0.4092984818452433,1563.5880954104434
0.4253657732750382,1467.6669701639034
0.44206379720285277,1376.5892227581492
0.45941731346364734,1290.4331318429477
0.47745205385661277,1208.823717421429
0.4961947603002895,1131.6857892251066
0.5156732244854959,1058.797623427123
0.5359163290848509,989.9988831412893
0.556954090580013,925.107881204647
0.5788177037701272,863.9868497289226
0.6015395880274836,806.4171740336079
0.6251534353689703,752.3115808017117
0.6496942604146115,701.4192245298593
0.6751984523072497,653.6406467900381
0.7017038286703824,608.7850071860735
0.7292496916841444,566.7067567066554
0.7578768863625915,527.2697857476502
0.7876278611187046,490.327057395594
0.8185467307069019,455.75023583405687
0.850679341636415,423.4092613541949
0.8840733401525058,393.17849244370126
0.9187782428863317,364.93762559793964
0.9548455102782278,338.5716268433896
0.9923286228832539,313.9706522536025
1.0312831606721837,291.03002371711244
1.0717668854455022,269.650077085246
1.1138398264826193,249.7359650675489
1.1575643695533022,231.1975318444014
1.2030053494233226,213.94918202548342
1.2502301459914542,197.90967987819042
1.299308784200415,183.00179949847717
1.3503140378698726,169.15246828258174
1.4033215376054824,156.29270614802562
1.4584098829439835,144.35745328665305
1.5156607589006013,133.28540026355032
1.575159057091621,123.01885178610159
1.6369930016117014,113.50357101941181
1.7012542798525885,104.68855767507351
1.7680381784572046,96.52588884618014
1.8374437246107238,88.97056973248078
1.9095738328780953,81.98038056037507
1.9845354578058014,75.51566132270635
2.0624397525140905,69.53923343267647
2.143402233514853,64.01632784525866
2.227542951999554,58.91445023664806
2.314986671851158,54.203250836965196
2.405863054644063,49.85439971406842
2.5003068519063225,45.84146738257598
2.598458104929248,42.139812633017954
2.7004623524206774,38.726474905437044
2.806470846309834,35.58007166219904
2.916640776023701,32.68070069503844
3.031135501567576,30.009839578875646
3.150124795755327,27.55025878715022
3.2737850959485697,25.285951208060386
3.4022997656780634,23.202053418426406
3.5358593665351745,21.284770538601084
3.6746619407366854,19.521304373398284
3.8189133047818515,17.89977984713191
3.968827354637162,16.4091893152688
4.1246263829013445,15.039338120010711
4.286541408420921,13.780788437184395
4.4548125188449825,12.624806607783523
4.629689226627261,11.56331373838423
4.811430839003257,10.588839439397942
5.000306842491082,9.694478837864446
5.196597302486189,8.873852221178293
5.400593278542364,8.121067297100309
5.612597255954967,7.4306837915027355
5.8329235942862,6.797676946583531
6.06189899349756,6.217408299010437
6.29986297838068,5.685601629797361
6.547168402004727,5.198316056884523
6.804181968927091,4.751920818881516
7.071284778942991,4.343072937340008
7.348872892180382,3.968700371035752
7.637357916378006,3.625975663268365
7.937167617217536,3.312294671245148
8.248746552614573,3.025259814430366
8.572556731909314,2.7626644503104147
8.909078300934132,2.522470578879383
9.258810253973934,2.302790348664075
9.622271173675122,2.1018921873258067
9.999999999999984,1.918190071978993
