k [1/Mpc],P(k) [Mpc^3]
0.0001,92.67717688463058
0.00010392556829367125,96.03695186749468
0.00010800523745162529,99.51848228152252
0.00011224505680853065,103.12617016507264
0.00011665131316981963,106.86457688896571
0.00012123054013376525,110.73843142510286
0.00012598952777950273,114.75263417908268
0.00013093533273536104,118.91226440078967
0.00013607528864243335,123.22258703578066
0.00014141701702890234,127.68905517195552
0.00014696843861124463,132.3173052187661
0.00015273778503907136,137.1131710013415
0.00015873361110102093,142.08270182807544
0.00016496480740980205,147.2321754509718
0.0001714406135851971,152.56809630896595
0.00017817063195457305,158.09719646293306
0.00018516484179121546,163.82644614420082
0.000192433614111598,169.76306291655052
0.00019998772705352857,175.91451598744126
0.0002078383818579757,182.28854044164305
0.00021599721947827182,188.8931513863085
0.0002244763378413224,195.73665358116912
0.0002332883097864157,202.8276464167759
0.00024244620170823283,210.17502668621466
0.0002519635929317015,217.78800511445814
0.0002618545958474233,225.67611569367412
0.0002721338768375308,233.84922553378868
0.0002828166780230032,242.31755022304958
0.0002939188398646886,251.09166414572462
0.0003054568246515432,260.1825139824942
0.00031744774091091926,269.60142485098254
0.00032990936877709396,279.36010558867275
0.00034286018635565856,289.4706731001166
0.00035631939712285854,299.94566608755525
0.000370306958400514,310.7980597930773
0.00038484361094874304,322.04127269801404
0.0003999509097203664,333.68916276067824
0.00041565125582259895,345.75606077655357
0.00043196792973341727,358.2567859359511
0.0004489251258218605,371.2066616034927
0.0004665479882234472,384.62152732289167
0.000484862648123908,398.51772409371324
0.000503896262506515,412.91213367918095
0.0005236770544204653,427.82220487567344
0.0005442343548300266,443.2659707256538
0.0005655986461065005,459.26206016808425
0.0005878016072274912,475.8296624711886
0.0006108761607505036,492.98857034557864
0.0006348565216305217,510.75921582109714
0.0006597782479539537,529.1626795263487
0.0006856782936641739,548.2207186611621
0.0007125950633568407,567.9557471610258
0.0007405684692262436,588.3908620729517
0.0007696399902471156,609.5498667304349
0.0007998527336796708,631.4572314303431
0.000831251498989063,654.1381640772435
0.0008638828442740447,677.6186266496984
0.000897795155303332,701.9253507015974
0.0009330387172620361,727.0858425567666
0.0009696657893145519,753.1282630145993
0.001007730682094461,780.0815321909208
0.0010472898382363582,807.9753720440266
0.0010884019160690055,836.8403045765183
0.0011311278765939214,866.7076774879289
0.001175531073878369,897.6095098250605
0.0012216773489967915,929.5785692970052
0.0012696351276599736,962.6484098769384
0.0013194755216767058,996.8532806140489
0.0013712724343984,1032.2282321559514
0.0014251026703029975,1068.8089283152929
0.0014810460488806749,1106.6316628859952
0.0015391855229902056,1145.7334559751148
0.001599607301861487,1186.1518662257715
0.0016624009789266115,1227.9251306200551
0.0017276596646690358,1271.091971637968
0.0017954801246878305,1315.6914985259027
0.0018659629231817451,1361.7633795760225
0.001939212572065829,1409.3475374500074
0.0020153376859417325,1458.4842865619569
0.002094451143151469,1509.2141826478974
0.002176670253153458,1561.577748227287
0.002262116930469025,1615.6157321504115
0.002350917875457286,1671.3686966442424
0.002443204762186487,1728.8770777847799
0.0025391144336803463,1788.1811222506426
0.002638789104828933,1849.3203490535266
0.002742376573264949,1912.3339155889862
0.0028500304385181063,1977.260175537149
0.0029619103297725525,2044.1365589687312
0.0030781821425650787,2112.9996365176016
0.003199018284775064,2183.884253061435
0.0033245979322709396,2256.8239440816437
0.003455107294592217,2331.8503977870996
0.0035907398910610534,2408.99296988159
0.0037316968377327513,2488.279106254782
0.0038781871456107214,2569.73323991187
0.0040304280305680515,2653.377080591587
0.00418864523543527,2739.2291582762673
0.004353073364731888,2827.3037311311687
0.00452395623253805,2917.611570387545
0.004701547224022131,3010.158319450844
0.004886109671160325,3104.9445619830763
0.005077917243205399,3201.9659134454973
0.005277254352483535,3301.2111412359654
0.005484416576121017,3402.6632411986157
0.005699711094326071,3506.2962640614346
0.005923457145875801,3612.0744475384467
0.006155986501483508,3719.9555104263086
0.006397643955748424,3829.893208139855
0.0066487878384172625,3941.8349972653336
0.0069097905457156435,4055.7080948792304
0.007181039092537346,4171.410237498751
0.007462935686310132,4288.827234827262
0.007755898323389004,4407.8465295063115
0.00806036140886134,4528.351687895277
0.008376776400682916,4650.205166490149
0.008705612479099857,4773.231636064539
0.009047357242349292,4897.2377248235
0.00940251742967013,5022.022497257371
0.009771619672696168,5147.3764750655255
0.010155211276345676,5273.069003167226
0.010553861030365234,5398.8267220719235
0.010968160052731372,5524.352098971516
0.011398722666160517,5649.318827722356
0.011846187309026826,5773.369181392682
0.012311217482038896,5896.123587352811
0.012794502732078732,6017.168972197595
0.013296759674662111,6136.068016027739
0.013818733056536317,6252.35059692647
0.014361196859990781,6365.5020839393255
0.014924955450518284,6474.985533358938
0.015510844769528393,6580.221940488494
0.016119733573881575,6680.602711044453
0.01675252472408214,6775.494925847596
0.017410156523040152,6864.221756719877
0.018093604107387147,6946.093467490512
0.01880388089340914,7020.388640359802
0.019542040079740527,7086.362552190554
0.02030917620904734,7143.270707918853
0.021106426791015535,7190.345892732233
0.021934973989050584,7226.834381076119
0.02279604637318978,7251.996178532391
0.023690920741826323,7265.108031948481
0.02462092401494623,7265.494633769627
0.02558743520168586,7252.517509691817
0.02659188744512693,7225.602465709995
0.027635770147361564,7184.289342765334
0.028720631177978267,7128.26879762646
0.029848079169243254,7057.337382714526
0.03101978590138095,6971.335607056096
0.03223748878149028,6870.182957669472
0.0335029934197723,6754.1545312546605
0.03481817630688963,6624.3357938165145
0.03618498759642746,6481.979214864148
0.037605453996581675,6327.762888081559
0.03908168177536263,6161.856341627354
0.04061585988376978,5984.878630618823
0.04221026320156896,5799.1635288202315
0.04386725591048496,5607.416354376876
0.0455892949998106,5411.866545767838
0.047378933909631396,5214.164536711063
0.049238826317067365,5015.979279289052
0.05117173007114603,4819.875755362124
0.05318051128214196,4628.4600351097315
0.05526814857144601,4444.020881318412
0.057437737488265785,4268.523269062422
0.0596924950997073,4103.526698611051
0.0620357647610427,3950.2253776976886
0.06447102107323864,3809.269156536871
0.06700187503509585,3680.857045132224
0.06963207939763882,3564.5399184291796
0.0723655342286965,3459.3905670958893
0.07520629269592405,3363.835280387444
0.07815856707684081,3275.683951457289
0.08122673500479707,3192.1449987253973
0.08441534596012978,3109.808881808102
0.0877291280161335,3024.9217534233644
0.09117299484984914,2933.7148046008847
0.09475205302806537,2832.8831441562593
0.09847160957933764,2720.124885296513
0.1023371798632519,2594.5831604104164
0.10635449574860109,2457.06511659743
0.11052951411260206,2310.1816097232036
0.1148684256737553,2158.0683522353547
0.1193776641714435,2006.58346949026
0.1240639159058831,1862.2036413971716
0.12893412965257148,1730.6844493402143
0.13399552696593373,1616.8899917669007
0.1392556128874462,1523.6243959669491
0.14472218707411338,1451.065867224417
0.15040335536380234,1396.5759516755727
0.15630754179458153,1354.8129526978855
0.16244350109588662,1318.2110033404497
0.16882033167003618,1278.1379532807841
0.17544748908334581,1226.848325938938
0.1823348000868439,1159.82154468248
0.189492477187382,1077.719683845928
0.19693113379074215,987.0041275447217
0.20466179993919872,898.0826037914356
0.21269593866686892,821.3083226051178
0.22104546299710207,763.1995761232023
0.22972275360711503,724.5575963012167
0.23874067718606454,699.9183022890765
0.2481126055137766,678.8458644883219
0.25785243528842716,650.2777374645067
0.26797460873256895,608.1697390511083
0.27849413500806414,555.0690580726508
0.28942661247167484,501.0857648224993
0.3007882518043098,457.44397878772736
0.31259590004822796,429.2926868555017
0.324867065587837,412.45563980007887
0.3376199441111335,396.1437066174112
0.35087344559027084,371.1498434989238
0.36464722232127456,337.70359922941515
0.37896169806447155,305.06390246948433
0.3938380983288488,281.8673274571591
0.4092984818452433,267.9048974265387
0.4253657732750382,254.8116379095297
0.44206379720285277,235.660397513192
0.45941731346364734,213.29986198228343
0.47745205385661277,195.66760140980492
0.4961947603002895,184.39220341111857
0.5156732244854959,173.40880332260554
0.5359163290848509,158.8223568296005
0.556954090580013,144.6545663413297
0.5788177037701272,134.77171381147076
0.6015395880274836,126.0782913607509
0.6251534353689703,115.5208296942804
0.6496942604146115,105.77227491847036
0.6751984523072497,98.46609375105905
0.7017038286703824,90.97884549749102
0.7292496916841444,83.21217891858092
0.7578768863625915,76.94308177785847
0.7876278611187046,71.03757826376656
0.8185467307069019,65.0436355986091
0.850679341636415,59.65194978780574
0.8840733401525058,54.82556613078294
0.9187782428863317,50.456922494986706
0.9548455102782278,46.45987635758107
0.9923286228832539,42.76569218170335
1.0312831606721837,39.32279695923541
1.0717668854455022,36.113736675011054
1.1138398264826193,33.133959643229744
1.1575643695533022,30.37681347332194
1.2030053494233226,27.833904411102203
1.2502301459914542,25.495531416937997
1.299308784200415,23.349456742405902
1.3503140378698726,21.37983674141123
1.4033215376054824,19.571689145292027
1.4584098829439835,17.91141858558821
1.5156607589006013,16.386674812908748
1.575159057091621,14.986260448624366
1.6369930016117014,13.700424527501294
1.7012542798525885,12.520469716016704
1.7680381784572046,11.438284036788529
1.8374437246107238,10.446302480001053
1.9095738328780953,9.53747891617908
1.9845354578058014,8.705231616418033
2.0624397525140905,7.943365477527287
2.143402233514853,7.246143168849878
2.227542951999554,6.608274938776209
2.314986671851158,6.024885541554151
2.405863054644063,5.49148379490211
2.5003068519063225,5.003941850782303
2.598458104929248,4.558465384666731
2.7004623524206774,4.151558698705598
2.806470846309834,3.78000238717179
2.916640776023701,3.440832967279162
3.031135501567576,3.131323320796453
3.150124795755327,2.84896307351254
3.2737850959485697,2.5914448000808137
3.4022997656780634,2.3566494566971206
3.5358593665351745,2.142631788956308
3.6746619407366854,1.9476067858960349
3.8189133047818515,1.7699368622715932
3.968827354637162,1.6081202148016618
4.1246263829013445,1.4607804994746005
4.286541408420921,1.326656843074744
4.4548125188449825,1.204594568801657
4.629689226627261,1.0935366217224045
4.811430839003257,0.9925156309688676
5.000306842491082,0.9006466242174543
5.196597302486189,0.8171202962085468
5.400593278542364,0.7411967855461836
5.612597255954967,0.6721999368870529
5.8329235942862,0.609511802755646
6.06189899349756,0.5525676431773403
6.29986297838068,0.5008519622174358
6.547168402004727,0.4538944043790923
6.804181968927091,0.4112659163398736
7.071284778942991,0.3725752649459882
7.348872892180382,0.3374662305698056
7.637357916378006,0.3056142833777328
7.937167617217536,0.27672349479945746
8.248746552614573,0.25052410054462043
8.572556731909314,0.2267702682116738
8.909078300934132,0.20523759327283556
9.258810253973934,0.1857205159163142
9.622271173675122,0.16803214224202415
9.999999999999984,0.15200284186247828
