k [1/Mpc],P(k) [Mpc^3]
0.0001,30.86235147309188
0.00010392556829367125,32.25936378335788
0.00010800523745162529,33.71959046610543
0.00011224505680853065,35.24588787089326
0.00011665131316981963,36.8412407070421
0.00012123054013376525,38.50876870369616
0.00012598952777950273,40.25173277817346
0.00013093533273536104,42.073540695941325
0.00013607528864243335,43.977752743922444
0.00014141701702890234,45.968089138271
0.00014696843861124463,48.0484380453839
0.00015273778503907136,50.22286356812841
0.00015873361110102093,52.49561270652907
0.00016496480740980205,54.87112145602346
0.0001714406135851971,57.35402389239643
0.00017817063195457305,59.949161013775445
0.00018516484179121546,62.66158768511831
0.000192433614111598,65.49658462277392
0.00019998772705352857,68.45967325418582
0.0002078383818579757,71.55662683843076
0.00021599721947827182,74.79347562970335
0.0002244763378413224,78.17650800032756
0.0002332883097864157,81.7122887607297
0.00024244620170823283,85.40767699953874
0.0002519635929317015,89.26984064903858
0.0002618545958474233,93.30626679109449
0.0002721338768375308,97.52477240773756
0.0002828166780230032,101.93351997389121
0.0002939188398646886,106.5410311856535
0.0003054568246515432,111.3561975318985
0.00031744774091091926,116.38830155407426
0.00032990936877709396,121.64703053859054
0.00034286018635565856,127.14249393707327
0.00035631939712285854,132.88524407187765
0.000370306958400514,138.886292469364
0.00038484361094874304,145.15713122458777
0.0003999509097203664,151.70974287208685
0.00041565125582259895,158.55661466306213
0.00043196792973341727,165.7107732941849
0.0004489251258218605,173.18581096966417
0.0004665479882234472,180.99590782922084
0.000484862648123908,189.1558413446616
0.000503896262506515,197.68099019713807
0.0005236770544204653,206.58738256961365
0.0005442343548300266,215.89172516189933
0.0005655986461065005,225.6114305545191
0.0005878016072274912,235.76463733258026
0.0006108761607505036,246.37021011846883
0.0006348565216305217,257.447790223139
0.0006597782479539537,269.0178195130559
0.0006856782936641739,281.10156484876643
0.0007125950633568407,293.7211602181897
0.0007405684692262436,306.89961248446986
0.0007696399902471156,320.66084730591353
0.0007998527336796708,335.0297325169175
0.000831251498989063,350.0320838066148
0.0008638828442740447,365.694729886356
0.000897795155303332,382.0455066374384
0.0009330387172620361,399.1132983900129
0.0009696657893145519,416.9280839670011
0.001007730682094461,435.5209195582063
0.0010472898382363582,454.92401529809626
0.0010884019160690055,475.1707164557671
0.0011311278765939214,496.2955150815161
0.001175531073878369,518.3341281789004
0.0012216773489967915,541.3234167145113
0.0012696351276599736,565.3014786367958
0.0013194755216767058,590.3076534819601
0.0013712724343984,616.3824729933284
0.0014251026703029975,643.5677763893841
0.0014810460488806749,671.9065921489192
0.0015391855229902056,701.4431915087979
0.001599607301861487,732.223136710165
0.0016624009789266115,764.2931450398135
0.0017276596646690358,797.701224241551
0.0017954801246878305,832.4964853183521
0.0018659629231817451,868.7290901113588
0.001939212572065829,906.4504139739515
0.0020153376859417325,945.7128625398909
0.002094451143151469,986.5699597452355
0.002176670253153458,1029.0761432874428
0.002262116930469025,1073.2865075966827
0.002350917875457286,1119.257062380086
0.002443204762186487,1167.0444447618581
0.0025391144336803463,1216.7059359351692
0.002638789104828933,1268.2993701521161
0.002742376573264949,1321.882695249782
0.0028500304385181063,1377.5141966720307
0.0029619103297725525,1435.2519947720848
0.0030781821425650787,1495.1538627887492
0.003199018284775064,1557.2773598892982
0.0033245979322709396,1621.6791669547938
0.003455107294592217,1688.415250023431
0.0035907398910610534,1757.5402394242878
0.0037316968377327513,1829.1067719001333
0.0038781871456107214,1903.16592188063
0.0040304280305680515,1979.7662191594848
0.00418864523543527,2058.95366500127
0.004353073364731888,2140.7712641546022
0.00452395623253805,2225.2576591304223
0.004701547224022131,2312.447823163796
0.004886109671160325,2402.3718217047904
0.005077917243205399,2495.054403031242
0.005277254352483535,2590.514543814856
0.005484416576121017,2688.761716976318
0.005699711094326071,2789.7978213375623
0.005923457145875801,2893.6193977278767
0.006155986501483508,3000.218139472938
0.006397643955748424,3109.5763054923073
0.0066487878384172625,3221.6504178048517
0.0069097905457156435,3336.3772870640382
0.007181039092537346,3453.6833369576275
0.007462935686310132,3573.4880187282893
0.007755898323389004,3695.698467740323
0.00806036140886134,3820.2058432456643
0.008376776400682916,3946.8849706114015
0.008705612479099857,4075.5913624152145
0.009047357242349292,4206.147572682019
0.00940251742967013,4338.353048861982
0.009771619672696168,4471.981245034192
0.010155211276345676,4606.776627367892
0.010553861030365234,4742.45944414438
0.010968160052731372,4878.714992180056
0.011398722666160517,5015.199344233781
0.011846187309026826,5151.537384327738
0.012311217482038896,5287.314442011159
0.012794502732078732,5422.087252848501
0.013296759674662111,5555.368432101279
0.013818733056536317,5686.631369605582
0.014361196859990781,5815.318393417336
0.014924955450518284,5940.826732231894
0.015510844769528393,6062.525802378024
0.016119733573881575,6179.748193674786
0.01675252472408214,6291.789250869725
0.017410156523040152,6397.925792723391
0.018093604107387147,6497.403970314614
0.01880388089340914,6589.4568716145695
0.019542040079740527,6673.312359284269
0.02030917620904734,6748.1939595702715
0.021106426791015535,6813.339773044429
0.021934973989050584,6868.015783097175
0.02279604637318978,6911.523420191442
0.023690920741826323,6943.219505102921
0.02462092401494623,6962.554650106997
0.02558743520168586,6969.050772221111
0.02659188744512693,6962.359943427257
0.027635770147361564,6942.273497315171
0.028720631177978267,6908.702122086854
0.029848079169243254,6861.843535938676
0.03101978590138095,6802.043386691318
0.03223748878149028,6729.798004308131
0.0335029934197723,6645.800123159061
0.03481817630688963,6550.874263427454
0.03618498759642746,6446.585688644449
0.037605453996581675,6334.877453656923
0.03908168177536263,6217.418983566082
0.04061585988376978,6095.229161970829
0.04221026320156896,5969.240305969628
0.04386725591048496,5841.443291956782
0.0455892949998106,5714.707669428937
0.047378933909631396,5591.538112697292
0.049238826317067365,5473.647392080796
0.05117173007114603,5362.415215716034
0.05318051128214196,5258.638416991216
0.05526814857144601,5162.7641844519385
0.057437737488265785,5074.4783353024295
0.0596924950997073,4992.977512569144
0.0620357647610427,4916.742899494438
0.06447102107323864,4843.793584915034
0.06700187503509585,4771.441951206508
0.06963207939763882,4696.502570906852
0.0723655342286965,4615.218959156956
0.07520629269592405,4523.57181083501
0.07815856707684081,4417.763082592607
0.08122673500479707,4294.814409915869
0.08441534596012978,4153.423767395418
0.0877291280161335,3994.2669756150003
0.09117299484984914,3820.432241487564
0.09475205302806537,3637.25851186391
0.09847160957933764,3451.541918765145
0.1023371798632519,3270.3719518956677
0.10635449574860109,3100.541886023752
0.11052951411260206,2948.683881343589
0.1148684256737553,2819.553121126754
0.1193776641714435,2714.7343095049023
0.1240639159058831,2631.814802442456
0.12893412965257148,2564.321347223384
0.13399552696593373,2502.6712570145505
0.1392556128874462,2435.8979911128986
0.14472218707411338,2354.101301848232
0.15040335536380234,2251.414368415478
0.15630754179458153,2128.3763926505226
0.16244350109588662,1992.3757864240822
0.16882033167003618,1855.896334736648
0.17544748908334581,1732.9083044883932
0.1823348000868439,1633.6908402903387
0.189492477187382,1560.2988325619854
0.19693113379074215,1506.103230229722
0.20466179993919872,1458.5350054252172
0.21269593866686892,1403.0619750988415
0.22104546299710207,1330.0270517731237
0.22972275360711503,1241.3336717222849
0.23874067718606454,1149.2441922547848
0.2481126055137766,1068.8225946966725
0.25785243528842716,1008.8690203348325
0.26797460873256895,965.7607410594288
0.27849413500806414,926.2688733337371
0.28942661247167484,877.5011312466921
0.3007882518043098,817.6012072541552
0.31259590004822796,756.4707105596679
0.324867065587837,706.1173571514088
0.3376199441111335,669.0541606261295
0.35087344559027084,636.0695263759538
0.36464722232127456,597.4419179842896
0.37896169806447155,554.219249740673
0.3938380983288488,515.2617903156074
0.4092984818452433,484.7084671977978
0.4253657732750382,457.1687770543613
0.44206379720285277,426.6817357625428
0.45941731346364734,395.97498037198807
0.47745205385661277,369.9607388702358
0.4961947603002895,347.1249861297095
0.5156732244854959,323.5322073536774
0.5359163290848509,300.52320769222956
0.556954090580013,280.50095185086144
0.5788177037701272,261.74502295332206
0.6015395880274836,243.14544341903766
0.6251534353689703,226.23153998089867
0.6496942604146115,210.6533357270997
0.6751984523072497,195.61491453946857
0.7017038286703824,181.75474838498533
0.7292496916841444,168.8957016851829
0.7578768863625915,156.75053201114164
0.7876278611187046,145.37803075165849
0.8185467307069019,134.79683198798696
0.850679341636415,124.95378213884416
0.8840733401525058,115.79433450501456
0.9187782428863317,107.26863850336915
0.9548455102782278,99.33107731646115
0.9923286228832539,91.9401660749618
1.0312831606721837,85.06116468544916
1.0717668854455022,78.66338973225047
1.1138398264826193,72.7174865533287
1.1575643695533022,67.19539502098432
1.2030053494233226,62.07034975068956
1.2502301459914542,57.31666833449036
1.299308784200415,52.90929401090807
1.3503140378698726,48.824536293734766
1.4033215376054824,45.040195749572675
1.4584098829439835,41.535480780534755
1.5156607589006013,38.29092973175191
1.575159057091621,35.28839671648276
1.6369930016117014,32.5109769780548
1.7012542798525885,29.942840881043658
1.7680381784572046,27.569169513248404
1.8374437246107238,25.376099896977465
1.9095738328780953,23.350669760197448
1.9845354578058014,21.480749007919965
2.0624397525140905,19.755008376367527
2.143402233514853,18.16288522884872
2.227542951999554,16.69453727931001
2.314986671851158,15.340798486605518
2.405863054644063,14.093135196781725
2.5003068519063225,12.943603460998947
2.598458104929248,11.884817771343847
2.7004623524206774,10.909916312393042
2.806470846309834,10.012526852860749
2.916640776023701,9.186734523248669
3.031135501567576,8.427050013753625
3.150124795755327,7.728381462082869
3.2737850959485697,7.0860096324609865
3.4022997656780634,6.495562593521088
3.5358593665351745,5.9529918419214525
3.6746619407366854,5.45454975789168
3.8189133047818515,4.996767791774492
3.968827354637162,4.576437758390905
4.1246263829013445,4.190593927537273
4.286541408420921,3.8364957258228753
4.4548125188449825,3.511611573809959
4.629689226627261,3.2136035046926663
4.811430839003257,2.940312801287695
5.000306842491082,2.689747654498989
5.196597302486189,2.4600709879503735
5.400593278542364,2.24958899561507
5.612597255954967,2.0567404323186964
5.8329235942862,1.880085890970178
6.06189899349756,1.718298974543301
6.29986297838068,1.570158657008382
6.547168402004727,1.4345412537631863
6.804181968927091,1.3104129407192848
7.071284778942991,1.196823127176753
7.348872892180382,1.0928992791441619
7.637357916378006,0.9978393216839063
7.937167617217536,0.9109055283052456
8.248746552614573,0.8314195874676977
8.572556731909314,0.7587580102205191
8.909078300934132,0.692345789828932
9.258810253973934,0.6316513099872435
9.622271173675122,0.5761874988580982
9.999999999999984,0.5255086297297611
