k [1/Mpc],P(k) [Mpc^3]
0.0001,645.113814369374
0.00010392556829367125,672.3561807009611
0.00010800523745162529,700.7472109051513
0.00011224505680853065,730.3351252191242
0.00011665131316981963,761.1701465491126
0.00012123054013376525,793.304582677064
0.00012598952777950273,826.792899609721
0.00013093533273536104,861.6918201466804
0.00013607528864243335,898.0603703090338
0.00014141701702890234,935.9599700652243
0.00014696843861124463,975.4545674033819
0.00015273778503907136,1016.6107283181591
0.00015873361110102093,1059.4977520633984
0.00016496480740980205,1104.1877732805078
0.0001714406135851971,1150.7558688924355
0.00017817063195457305,1199.2801708860939
0.00018516484179121546,1249.8418538487483
0.000192433614111598,1302.5253174088498
0.00019998772705352857,1357.4183720617038
0.0002078383818579757,1414.6123678557972
0.00021599721947827182,1474.2023292085394
0.0002244763378413224,1536.2869878092426
0.0002332883097864157,1600.9689425622526
0.00024244620170823283,1668.3548158517451
0.0002519635929317015,1738.5552335198438
0.0002618545958474233,1811.6851224888062
0.0002721338768375308,1887.8638322078057
0.0002828166780230032,1967.215276052917
0.0002939188398646886,2049.8681374384737
0.0003054568246515432,2135.955863186287
0.00031744774091091926,2225.6169400137023
0.00032990936877709396,2318.9948849228717
0.00034286018635565856,2416.2382041984474
0.00035631939712285854,2517.500890402102
0.000370306958400514,2622.942549950613
0.00038484361094874304,2732.728614969784
0.0003999509097203664,2847.0303334383566
0.00041565125582259895,2966.0245114052027
0.00043196792973341727,3089.8941190960136
0.0004489251258218605,3218.8281688570223
0.0004665479882234472,3353.0218870254207
0.000484862648123908,3492.6771113343416
0.000503896262506515,3638.002219790558
0.0005236770544204653,3789.212471816403
0.0005442343548300266,3946.5295612071077
0.0005655986461065005,4110.181442866837
0.0005878016072274912,4280.403107823613
0.0006108761607505036,4457.436127061775
0.0006348565216305217,4641.529086968998
0.0006597782479539537,4832.93755615823
0.0006856782936641739,5031.923688034668
0.0007125950633568407,5238.756806886624
0.0007405684692262436,5453.712028230872
0.0007696399902471156,5677.0706011909915
0.0007998527336796708,5909.1203316905885
0.000831251498989063,6150.1543448756765
0.0008638828442740447,6400.4720681155995
0.000897795155303332,6660.377658137705
0.0009330387172620361,6930.179563377399
0.0009696657893145519,7210.191253697574
0.001007730682094461,7500.7282151049685
0.0010472898382363582,7802.109472146055
0.0010884019160690055,8114.6568842139095
0.0011311278765939214,8438.693801862515
0.001175531073878369,8774.545808501645
0.0012216773489967915,9122.536727480814
0.0012696351276599736,9482.989418797222
0.0013194755216767058,9856.225287614594
0.0013712724343984,10242.56099839753
0.0014251026703029975,10642.310196263788
0.0014810460488806749,11055.779090362204
0.0015391855229902056,11483.265724175797
0.001599607301861487,11925.060488287367
0.0016624009789266115,12381.441281401274
0.0017276596646690358,12852.675060336443
0.0017954801246878305,13339.013588925767
0.0018659629231817451,13840.690553581771
0.001939212572065829,14357.922787664573
0.0020153376859417325,14890.902881099304
0.002094451143151469,15439.800586184352
0.002176670253153458,16004.759513429337
0.002262116930469025,16585.891376255095
0.002350917875457286,17183.278608586137
0.002443204762186487,17796.966813937397
0.0025391144336803463,18426.964148888324
0.002638789104828933,19073.238154364848
0.002742376573264949,19735.704603196715
0.0028500304385181063,20414.233113567876
0.0029619103297725525,21108.637240407654
0.0030781821425650787,21818.671208926688
0.003199018284775064,22544.030330639125
0.0033245979322709396,23284.330951741777
0.003455107294592217,24039.120250598342
0.0035907398910610534,24807.872104379454
0.0037316968377327513,25589.980520205114
0.0038781871456107214,26384.755913573557
0.0040304280305680515,27191.357443981167
0.00418864523543527,28008.821793248608
0.004353073364731888,28836.148821660507
0.00452395623253805,29672.376008284456
0.004701547224022131,30516.45140170081
0.004886109671160325,31366.83691909809
0.005077917243205399,32221.57559090279
0.005277254352483535,33078.67020911157
0.005484416576121017,33936.406465332075
0.005699711094326071,34793.051714153466
0.005923457145875801,35646.42458903618
0.006155986501483508,36493.82648631152
0.006397643955748424,37332.4392727315
0.0066487878384172625,38159.59998708606
0.0069097905457156435,38972.63892589839
0.007181039092537346,39768.527255639296
0.007462935686310132,40543.68271541184
0.007755898323389004,41294.33163698304
0.00806036140886134,42016.340858806914
0.008376776400682916,42705.33375128503
0.008705612479099857,43356.76766028349
0.009047357242349292,43965.83604829583
0.00940251742967013,44527.63929429752
0.009771619672696168,45036.87920331902
0.010155211276345676,45487.94889442467
0.010553861030365234,45875.15626839269
0.010968160052731372,46192.32914099368
0.011398722666160517,46433.30891231943
0.011846187309026826,46591.748627635665
0.012311217482038896,46661.07361520769
0.012794502732078732,46634.99257690967
0.013296759674662111,46506.873092322385
0.013818733056536317,46270.41376200953
0.014361196859990781,45919.63900556076
0.014924955450518284,45448.55760441043
0.015510844769528393,44852.2099944444
0.016119733573881575,44125.90371895319
0.01675252472408214,43265.90315394084
0.017410156523040152,42269.903864580156
0.018093604107387147,41136.22532146034
0.01880388089340914,39865.37278818589
0.019542040079740527,38459.335831098935
0.02030917620904734,36921.94422515869
0.021106426791015535,35259.93474807218
0.021934973989050584,33481.73749492245
0.02279604637318978,31598.91973101352
0.023690920741826323,29625.745958855092
0.02462092401494623,27578.726979122166
0.02558743520168586,25477.63408589103
0.02659188744512693,23344.535537952033
0.027635770147361564,21203.54834041583
0.028720631177978267,19080.281819177137
0.029848079169243254,17000.805547661817
0.03101978590138095,14990.835066158976
0.03223748878149028,13077.700175501293
0.0335029934197723,11286.312377983993
0.03481817630688963,9635.72491731851
0.03618498759642746,8140.141215077125
0.037605453996581675,6807.204033322188
0.03908168177536263,5648.3758841515055
0.04061585988376978,4669.7262753719515
0.04221026320156896,3865.000653575145
0.04386725591048496,3221.2955190260595
0.0455892949998106,2722.7349406638805
0.047378933909631396,2356.2683973318713
0.049238826317067365,2107.0331038208797
0.05117173007114603,1962.038977121908
0.05318051128214196,1910.5369587461616
0.05526814857144601,1945.214171263702
0.057437737488265785,2058.7337538756524
0.0596924950997073,2243.0545115173663
0.0620357647610427,2484.357863118457
0.06447102107323864,2760.992271053366
0.06700187503509585,3041.4007098680504
0.06963207939763882,3285.5383794645095
0.0723655342286965,3448.96106529581
0.07520629269592405,3490.1412966297535
0.07815856707684081,3379.8474914891517
0.08122673500479707,3111.352702619669
0.08441534596012978,2706.793804635311
0.0877291280161335,2215.701517734577
0.09117299484984914,1703.9274042986922
0.09475205302806537,1236.278027225912
0.09847160957933764,860.0705630932958
0.1023371798632519,596.094820047491
0.10635449574860109,440.6801023883867
0.11052951411260206,377.6678674240502
0.1148684256737553,393.0473151537965
0.1193776641714435,480.7025269137874
0.1240639159058831,632.1587538044676
0.12893412965257148,816.6849342500561
0.13399552696593373,972.2072242372883
0.1392556128874462,1027.6238629711954
0.14472218707411338,945.6736705057325
0.15040335536380234,749.3856528728455
0.15630754179458153,513.0426276599459
0.16244350109588662,318.309832563532
0.16882033167003618,205.29421736559533
0.17544748908334581,170.60164785496858
0.1823348000868439,201.3746022539974
0.189492477187382,284.9389898909743
0.19693113379074215,381.72061064198175
0.20466179993919872,422.3156417730613
0.21269593866686892,365.67200834144376
0.22104546299710207,249.94550309502225
0.22972275360711503,151.08898241402704
0.23874067718606454,108.27795035673692
0.2481126055137766,119.38997810396424
0.25785243528842716,166.50278310456298
0.26797460873256895,204.82815172771666
0.27849413500806414,186.09332580265854
0.28942661247167484,126.63754467947058
0.3007882518043098,82.4625961777858
0.31259590004822796,77.1033584553044
0.324867065587837,99.52141746744313
0.3376199441111335,114.15251756549502
0.35087344559027084,93.5181529347359
0.36464722232127456,63.52918900396515
0.37896169806447155,55.34416572708489
0.3938380983288488,65.77082082667968
0.4092984818452433,68.2863678398656
0.4253657732750382,52.54180741537087
0.44206379720285277,41.59121302186602
0.45941731346364734,44.39972690020663
0.47745205385661277,45.303320273519276
0.4961947603002895,36.30965606341865
0.5156732244854959,31.52704560855798
0.5359163290848509,32.38104966020312
0.556954090580013,30.705990373731243
0.5788177037701272,27.998142064641154
0.6015395880274836,25.009485716708312
0.6251534353689703,22.22574531381943
0.6496942604146115,19.916874649392078
0.6751984523072497,18.028009303146966
0.7017038286703824,16.441384959540276
0.7292496916841444,15.069289921848306
0.7578768863625915,13.845564575052911
0.7876278611187046,12.720215540041426
0.8185467307069019,11.666074714780034
0.850679341636415,10.68182790181999
0.8840733401525058,9.767713692483902
0.9187782428863317,8.922833083973641
0.9548455102782278,8.145375332800599
0.9923286228832539,7.432751158680286
1.0312831606721837,6.780861338143969
1.0717668854455022,6.184906328642634
1.1138398264826193,5.640391916951957
1.1575643695533022,5.143138597499105
1.2030053494233226,4.689265955823815
1.2502301459914542,4.275140310918822
1.299308784200415,3.8972576690002376
1.3503140378698726,3.5523907164272104
1.4033215376054824,3.2376120694773305
1.4584098829439835,2.9502647567815314
1.5156607589006013,2.6879362839364918
1.575159057091621,2.448464436816771
1.6369930016117014,2.2299191487760743
1.7012542798525885,2.0305296001439608
1.7680381784572046,1.8486675993734147
1.8374437246107238,1.682836940819263
1.9095738328780953,1.5316625841203415
1.9845354578058014,1.3938738061699139
2.0624397525140905,1.2683024674904044
2.143402233514853,1.1538808350815104
2.227542951999554,1.0496331550850841
2.314986671851158,0.9546678415687021
2.405863054644063,0.8681708596655932
2.5003068519063225,0.789400153437317
2.598458104929248,0.7176776786909965
2.7004623524206774,0.6523836103291132
2.806470846309834,0.5929514766350797
2.916640776023701,0.5388636766021665
3.031135501567576,0.48964703904328233
3.150124795755327,0.4448691167435222
3.2737850959485697,0.40413521408034914
3.4022997656780634,0.3670851796259356
3.5358593665351745,0.33339043643230915
3.6746619407366854,0.30275129382358873
3.8189133047818515,0.2748946481946508
3.968827354637162,0.24957149060795797
4.1246263829013445,0.22655470065580227
4.286541408420921,0.20563716324440642
4.4548125188449825,0.18663004379202186
4.629689226627261,0.16936113137528166
4.811430839003257,0.1536733066056462
5.000306842491082,0.13942344313985325
5.196597302486189,0.12648121382111155
5.400593278542364,0.11472796108007913
5.612597255954967,0.10405566734422256
5.8329235942862,0.09436604882057863
6.06189899349756,0.08556967962322308
6.29986297838068,0.0775851644014005
6.547168402004727,0.07033842653697443
6.804181968927091,0.06376206008424734
7.071284778942991,0.05779474390638383
7.348872892180382,0.05238072656802261
7.637357916378006,0.04746930007402463
7.937167617217536,0.04301433749385287
8.248746552614573,0.03897388624242472
8.572556731909314,0.035309796352895016
8.909078300934132,0.03198731990802085
9.258810253973934,0.028974766524125766
9.622271173675122,0.02624336751508387
9.999999999999984,0.023767022700374618
