k [1/Mpc],P(k) [Mpc^3]
0.0001,158.1366424569667
0.00010392556829367125,164.81867328193854
0.00010800523745162529,171.7829820785236
0.00011224505680853065,179.04147424394426
0.00011665131316981963,186.6065572354405
0.00012123054013376525,194.4911683384098
0.00012598952777950273,202.70879191785087
0.00013093533273536104,211.27347573313162
0.00013607528864243335,220.19985236913067
0.00014141701702890234,229.50316984774074
0.00014696843861124463,239.19932281157602
0.00015273778503907136,249.3048770861848
0.00015873361110102093,259.8370953813456
0.00016496480740980205,270.81396621215276
0.0001714406135851971,282.2542331850579
0.00017817063195457305,294.17740857600756
0.00018516484179121546,306.6038092290863
0.000192433614111598,319.5546082401982
0.00019998772705352857,333.051887080546
0.0002078383818579757,347.11865747187716
0.00021599721947827182,361.7788734993562
0.0002244763378413224,377.0574668027387
0.0002332883097864157,392.9804100327781
0.00024244620170823283,409.5747714864354
0.0002519635929317015,426.8687533145236
0.0002618545958474233,444.8917261103646
0.0002721338768375308,463.67427080155164
0.0002828166780230032,483.24823781516625
0.0002939188398646886,503.64678604611845
0.0003054568246515432,524.9044419527665
0.00031744774091091926,547.0571515047343
0.00032990936877709396,570.14231938521
0.00034286018635565856,594.1988889477985
0.00035631939712285854,619.2674076166853
0.000370306958400514,645.39009174356
0.00038484361094874304,672.6108798944642
0.0003999509097203664,700.9754553482
0.00041565125582259895,730.5313529273711
0.00043196792973341727,761.3280427080854
0.0004489251258218605,793.4170054372229
0.0004665479882234472,826.8518035934353
0.000484862648123908,861.6880946736869
0.000503896262506515,897.9837498207041
0.0005236770544204653,935.7989390076673
0.0005442343548300266,975.1961878773384
0.0005655986461065005,1016.2405105736262
0.0005878016072274912,1058.9994949709617
0.0006108761607505036,1103.5434040432528
0.0006348565216305217,1149.9452260476385
0.0006597782479539537,1198.2806429742855
0.0006856782936641739,1248.6282556074536
0.0007125950633568407,1301.069687077921
0.0007405684692262436,1355.6896877770616
0.0007696399902471156,1412.576254122919
0.0007998527336796708,1471.8206498242334
0.000831251498989063,1533.5175827083413
0.0008638828442740447,1597.7652100378098
0.000897795155303332,1664.6651596786764
0.0009330387172620361,1734.3228085851376
0.0009696657893145519,1806.8472934730185
0.001007730682094461,1882.3516853032486
0.0010472898382363582,1960.953036086671
0.0010884019160690055,2042.7722895410202
0.0011311278765939214,2127.934627456537
0.001175531073878369,2216.569399438274
0.0012216773489967915,2308.8102647051137
0.0012696351276599736,2404.7953293861938
0.0013194755216767058,2504.6668298431846
0.0013712724343984,2608.571579690903
0.0014251026703029975,2716.6607229211068
0.0014810460488806749,2829.0896694328317
0.0015391855229902056,2946.0185814895367
0.001599607301861487,3067.6120978240224
0.0016624009789266115,3194.0396231389927
0.0017276596646690358,3325.474995727133
0.0017954801246878305,3462.0959896644154
0.0018659629231817451,3604.0850644438997
0.001939212572065829,3751.6287722388906
0.0020153376859417325,3904.917964464444
0.002094451143151469,4064.147675585582
0.002176670253153458,4229.516035504494
0.002262116930469025,4401.225205622312
0.002350917875457286,4579.4807730650855
0.002443204762186487,4764.491590123784
0.0025391144336803463,4956.469839610008
0.002638789104828933,5155.629205823919
0.002742376573264949,5362.1858331902395
0.0028500304385181063,5576.357584933319
0.0029619103297725525,5798.363160850778
0.0030781821425650787,6028.422694409134
0.003199018284775064,6266.755354680155
0.0033245979322709396,6513.579881388072
0.003455107294592217,6769.11384071024
0.0035907398910610534,7033.571350563128
0.0037316968377327513,7307.1643776617975
0.0038781871456107214,7590.0991991523215
0.0040304280305680515,7882.576149637725
0.00418864523543527,8184.790027579974
0.004353073364731888,8496.926602689158
0.00452395623253805,8819.163850648685
0.004701547224022131,9151.666913794708
0.004886109671160325,9494.585739026978
0.005077917243205399,9848.057576159836
0.005277254352483535,10212.201589446178
0.005484416576121017,10587.120060463518
0.005699711094326071,10972.890224270566
0.005923457145875801,11369.555353874597
0.006155986501483508,11777.135527640685
0.006397643955748424,12195.636625174498
0.0066487878384172625,12625.045621500118
0.0069097905457156435,13065.297308153362
0.007181039092537346,13516.222899420773
0.007462935686310132,13977.600764985145
0.007755898323389004,14449.200202972024
0.00806036140886134,14930.779711324765
0.008376776400682916,15422.03734282556
0.008705612479099857,15922.537105962554
0.009047357242349292,16431.760261383086
0.00940251742967013,16949.144880557422
0.009771619672696168,17474.093702325703
0.010155211276345676,18005.93739680844
0.010553861030365234,18543.854448342358
0.010968160052731372,19086.908316053912
0.011398722666160517,19634.055390748883
0.011846187309026826,20184.11400371688
0.012311217482038896,20735.80138961555
0.012794502732078732,21287.70195089875
0.013296759674662111,21838.276827153895
0.013818733056536317,22385.861579802684
0.014361196859990781,22928.59914509735
0.014924955450518284,23464.50880242834
0.015510844769528393,23991.444326637684
0.016119733573881575,24507.091544233164
0.01675252472408214,25009.019343830394
0.017410156523040152,25494.60230255699
0.018093604107387147,25961.097849861282
0.01880388089340914,26405.635277394496
0.019542040079740527,26825.192151194085
0.02030917620904734,27216.689944671667
0.021106426791015535,27576.94142978475
0.021934973989050584,27902.717908635976
0.02279604637318978,28190.80936611562
0.023690920741826323,28438.02979640099
0.02462092401494623,28641.290204995683
0.02558743520168586,28797.640379996734
0.02659188744512693,28904.308607010757
0.027635770147361564,28958.82642629965
0.028720631177978267,28959.31703731163
0.029848079169243254,28904.281939252232
0.03101978590138095,28792.518922729887
0.03223748878149028,28623.141876123227
0.0335029934197723,28396.021809290483
0.03481817630688963,28113.91658398489
0.03618498759642746,27780.84725466035
0.037605453996581675,27399.852503339043
0.03908168177536263,26971.96719148479
0.04061585988376978,26498.68275723229
0.04221026320156896,25986.236766274742
0.04386725591048496,25443.53771706059
0.0455892949998106,24878.941852417298
0.047378933909631396,24299.801541790253
0.049238826317067365,23713.048518411666
0.05117173007114603,23127.38463085894
0.05318051128214196,22552.385630396893
0.05526814857144601,21996.24660839031
0.057437737488265785,21465.62547372251
0.0596924950997073,20965.525608489002
0.0620357647610427,20498.788671057857
0.06447102107323864,20066.291507890248
0.06700187503509585,19666.48577089932
0.06963207939763882,19295.291654116732
0.0723655342286965,18946.274440711717
0.07520629269592405,18610.124978779175
0.07815856707684081,18275.22803176166
0.08122673500479707,17927.477544142082
0.08441534596012978,17551.22838247069
0.0877291280161335,17131.074948390342
0.09117299484984914,16653.806135492712
0.09475205302806537,16111.041495887785
0.09847160957933764,15501.841373228644
0.1023371798632519,14832.880449238542
0.10635449574860109,14118.972231454183
0.11052951411260206,13382.150507278298
0.1148684256737553,12648.81570382239
0.1193776641714435,11949.404518506783
0.1240639159058831,11314.41583970987
0.12893412965257148,10763.080733953257
0.13399552696593373,10305.911061428398
0.1392556128874462,9939.607524747344
0.14472218707411338,9646.077196452286
0.15040335536380234,9394.573589530164
0.15630754179458153,9145.936188771968
0.16244350109588662,8859.851138027096
0.16882033167003618,8504.999234359664
0.17544748908334581,8069.574440052447
0.1823348000868439,7567.709711367801
0.189492477187382,7038.636055468316
0.19693113379074215,6536.553734340862
0.20466179993919872,6111.268297582636
0.21269593866686892,5787.780550941194
0.22104546299710207,5557.19760831061
0.22972275360711503,5379.480060994516
0.23874067718606454,5195.404605096507
0.2481126055137766,4953.271635972411
0.25785243528842716,4640.027311872294
0.26797460873256895,4288.646087860859
0.27849413500806414,3958.5411944225507
0.28942661247167484,3699.8366954941303
0.3007882518043098,3520.8812629848544
0.31259590004822796,3382.8625648569705
0.324867065587837,3225.9173170782983
0.3376199441111335,3017.43819288814
0.35087344559027084,2780.4277358375894
0.36464722232127456,2570.4803550953047
0.37896169806447155,2419.4769647983844
0.3938380983288488,2304.717844419314
0.4092984818452433,2177.3334904354106
0.4253657732750382,2019.3320883802385
0.44206379720285277,1862.186923180887
0.45941731346364734,1740.6709215088079
0.47745205385661277,1645.4541736637188
0.4961947603002895,1541.1618248035034
0.5156732244854959,1423.9317987886345
0.5359163290848509,1321.4192696285118
0.556954090580013,1240.0908509802089
0.5788177037701272,1158.2732178586657
0.6015395880274836,1071.0290406580257
0.6251534353689703,995.4307992614002
0.6496942604146115,929.8318093273992
0.6751984523072497,862.3283950800409
0.7017038286703824,798.8211733662558
0.7292496916841444,743.5512581614449
0.7578768863625915,689.2903261626044
0.7876278611187046,638.3735717768026
0.8185467307069019,592.5946946386015
0.850679341636415,549.61203118026
0.8840733401525058,509.03938381951974
0.9187782428863317,470.94740371847456
0.9548455102782278,435.35996137683503
0.9923286228832539,402.2618148093553
1.0312831606721837,371.6022324452449
1.0717668854455022,343.2420965750679
1.1138398264826193,316.99017057492756
1.1575643695533022,292.6723816894362
1.2030053494233226,270.132018293099
1.2502301459914542,249.22777448522382
1.299308784200415,229.8358588448714
1.3503140378698726,211.85799217066844
1.4033215376054824,195.20460273191574
1.4584098829439835,179.79011697849458
1.5156607589006013,165.53298935840553
1.575159057091621,152.35563610141637
1.6369930016117014,140.18268016328895
1.7012542798525885,128.94133325390226
1.7680381784572046,118.56367191481706
1.8374437246107238,108.986457407727
1.9095738328780953,100.15083299478869
1.9845354578058014,92.00212502689433
2.0624397525140905,84.48990111176772
2.143402233514853,77.56728064363038
2.227542951999554,71.19054592559081
2.314986671851158,65.31895750967662
2.405863054644063,59.9145763675011
2.5003068519063225,54.942030550037
2.598458104929248,50.36834987971964
2.7004623524206774,46.16292467765645
2.806470846309834,42.29735948733701
2.916640776023701,38.745325704555825
3.031135501567576,35.48242339998409
3.150124795755327,32.48605405068515
3.2737850959485697,29.73529419552723
3.4022997656780634,27.21077824192075
3.5358593665351745,24.894590696075216
3.6746619407366854,22.77016504321672
3.8189133047818515,20.82218504310649
3.968827354637162,19.03649402973834
4.1246263829013445,17.400020573163538
4.286541408420921,15.9007010873563
4.4548125188449825,14.527406516631304
4.629689226627261,13.269873719134447
4.811430839003257,12.118639861042741
5.000306842491082,11.0649846512683
5.196597302486189,10.100876397331971
5.400593278542364,9.218920283722984
5.612597255954967,8.412310259214577
5.8329235942862,7.67478259621442
6.06189899349756,7.0005725045309815
6.29986297838068,6.3843805217449345
6.547168402004727,5.821337174880739
6.804181968927091,5.306969411091633
7.071284778942991,4.8371699199896865
7.348872892180382,4.408173509874084
7.637357916378006,4.016526961675618
7.937167617217536,3.659059451072079
8.248746552614573,3.332860389282925
8.572556731909314,3.035259019486944
8.909078300934132,2.763799782672319
9.258810253973934,2.5162139792912437
9.622271173675122,2.290424645226383
9.999999999999984,2.084534860920902
