k [1/Mpc],P(k) [Mpc^3]
0.0001,158.13666601301256
0.00010392556829367125,164.8187017077332
0.00010800523745162529,171.7829993596516
0.00011224505680853065,179.04147549939674
0.00011665131316981963,186.60654752097406
0.00012123054013376525,194.49115060334492
0.00012598952777950273,202.70876350153685
0.00013093533273536104,211.27343450174908
0.00013607528864243335,220.19980560417488
0.00014141701702890234,229.50313428840977
0.00014696843861124463,239.19931386833193
0.00015273778503907136,249.3049037895985
0.00015873361110102093,259.837155311352
0.00016496480740980205,270.81403789399417
0.0001714406135851971,282.2542765656206
0.00017817063195457305,294.1774020118214
0.00018516484179121546,306.6037762225412
0.000192433614111598,319.5545987768253
0.00019998772705352857,333.05191388772556
0.0002078383818579757,347.11868141843905
0.00021599721947827182,361.7788478541073
0.0002244763378413224,377.0573830250662
0.0002332883097864157,392.9802967773205
0.00024244620170823283,409.5746626736713
0.0002519635929317015,426.8686782875092
0.0002618545958474233,444.89170074503863
0.0002721338768375308,463.674290771818
0.0002828166780230032,483.24827959888034
0.0002939188398646886,503.6468335430521
0.0003054568246515432,524.904500936554
0.00031744774091091926,547.0572348004614
0.00032990936877709396,570.1424267748421
0.00034286018635565856,594.1990063048183
0.00035631939712285854,619.2675201076815
0.000370306958400514,645.3901924407122
0.00038484361094874304,672.61096301838
0.0003999509097203664,700.9755180934119
0.00041565125582259895,730.5314019007194
0.00043196792973341727,761.3280921609287
0.0004489251258218605,793.4170771979026
0.0004665479882234472,826.8519142734065
0.000484862648123908,861.6882312960395
0.000503896262506515,897.9838724319422
0.0005236770544204653,935.7990129871945
0.0005442343548300266,975.1962517173762
0.0005655986461065005,1016.2406746374166
0.0005878016072274912,1058.999827529506
0.0006108761607505036,1103.5438779496105
0.0006348565216305217,1149.945736733789
0.0006597782479539537,1198.2811356616082
0.0006856782936641739,1248.6287597098071
0.0007125950633568407,1301.0702851791473
0.0007405684692262436,1355.6905107686107
0.0007696399902471156,1412.577438043215
0.0007998527336796708,1471.8222420494908
0.000831251498989063,1533.5195252240956
0.0008638828442740447,1597.7674094110982
0.000897795155303332,1664.6676541929107
0.0009330387172620361,1734.3257594614302
0.0009696657893145519,1806.8508561121578
0.001007730682094461,1882.3559939981958
0.0010472898382363582,1960.9581613093399
0.0010884019160690055,2042.7783216249052
0.0011311278765939214,2127.941683198728
0.001175531073878369,2216.5775568755375
0.0012216773489967915,2308.8196114068023
0.0012696351276599736,2404.8058760465997
0.0013194755216767058,2504.678577514574
0.0013712724343984,2608.584564380079
0.0014251026703029975,2716.674949646422
0.0014810460488806749,2829.1053203008973
0.0015391855229902056,2946.0359007551815
0.001599607301861487,3067.631089543856
0.0016624009789266115,3194.060021409731
0.0017276596646690358,3325.496311963172
0.0017954801246878305,3462.1180524610513
0.0018659629231817451,3604.1079780159876
0.001939212572065829,3751.652434379084
0.0020153376859417325,3904.9420919871595
0.002094451143151469,4064.1716438618705
0.002176670253153458,4229.539367975743
0.002262116930469025,4401.247688135822
0.002350917875457286,4579.502080111228
0.002443204762186487,4764.511432114667
0.0025391144336803463,4956.487507933712
0.002638789104828933,5155.643503599572
0.002742376573264949,5362.195276530262
0.0028500304385181063,5576.360297992709
0.0029619103297725525,5798.357537572079
0.0030781821425650787,6028.4069174568795
0.003199018284775064,6266.7264731111445
0.0033245979322709396,6513.534016220264
0.003455107294592217,6769.045721788654
0.0035907398910610534,7033.475241298459
0.0037316968377327513,7307.033809006971
0.0038781871456107214,7589.9259604309755
0.0040304280305680515,7882.351087309702
0.00418864523543527,8184.501962678051
0.004353073364731888,8496.562313839571
0.00452395623253805,8818.70780345577
0.004701547224022131,9151.099359310821
0.004886109671160325,9493.884263523934
0.005077917243205399,9847.195732357435
0.005277254352483535,10211.147977061124
0.005484416576121017,10585.838119131868
0.005699711094326071,10971.333179465511
0.005923457145875801,11367.66931566066
0.006155986501483508,11774.861866081075
0.006397643955748424,12192.912633790247
0.0066487878384172625,12621.799674252372
0.0069097905457156435,13061.424046638978
0.007181039092537346,13511.590992574796
0.007462935686310132,13972.064752514747
0.007755898323389004,14442.611072935848
0.00806036140886134,14922.970752542631
0.008376776400682916,15412.795496661032
0.008705612479099857,15911.60284720708
0.009047357242349292,16418.841148831027
0.00940251742967013,16933.919874658794
0.009771619672696168,17456.199606640093
0.010155211276345676,17984.94117476863
0.010553861030365234,18519.237854094234
0.010968160052731372,19058.081093086108
0.011398722666160517,19600.331380251642
0.011846187309026826,20144.718050088133
0.012311217482038896,20689.855837262367
0.012794502732078732,21234.186291360347
0.013296759674662111,21776.025692693165
0.013818733056536317,22313.525888104676
0.014361196859990781,22844.652945592487
0.014924955450518284,23367.24136053119
0.015510844769528393,23878.888700905016
0.016119733573881575,24377.030836258957
0.01675252472408214,24858.935285323478
0.017410156523040152,25321.640991581586
0.018093604107387147,25762.07559070349
0.01880388089340914,26176.943993865098
0.019542040079740527,26562.800232038207
0.02030917620904734,26916.104988159528
0.021106426791015535,27233.121719275416
0.021934973989050584,27510.10225767839
0.02279604637318978,27743.233423347472
0.023690920741826323,27928.68630923723
0.02462092401494623,28062.746467516696
0.02558743520168586,28141.70192230821
0.02659188744512693,28162.05749974552
0.027635770147361564,28120.73882645283
0.028720631177978267,28015.188254278353
0.029848079169243254,27843.250778147092
0.03101978590138095,27602.733311451528
0.03223748878149028,27291.800766194832
0.0335029934197723,26910.640986618273
0.03481817630688963,26462.92551286329
0.03618498759642746,25952.83066114551
0.037605453996581675,25381.038389928275
0.03908168177536263,24746.29398815644
0.04061585988376978,24050.82208805527
0.04221026320156896,23305.76466313237
0.04386725591048496,22523.44540268436
0.0455892949998106,21712.93129362206
0.047378933909631396,20880.260602691895
0.049238826317067365,20032.764506383675
0.05117173007114603,19183.23067317629
0.05318051128214196,18344.383435125634
0.05526814857144601,17528.27198901178
0.057437737488265785,16745.61429365812
0.0596924950997073,16006.036412839307
0.0620357647610427,15317.756221881315
0.06447102107323864,14686.831322945553
0.06700187503509585,14117.403921451365
0.06963207939763882,13610.928198326752
0.0723655342286965,13166.640331564866
0.07520629269592405,12781.088549299455
0.07815856707684081,12447.685770464395
0.08122673500479707,12156.80192836426
0.08441534596012978,11895.203248241985
0.0877291280161335,11646.350106125883
0.09117299484984914,11391.432405748834
0.09475205302806537,11110.840726349596
0.09847160957933764,10786.300694480364
0.1023371798632519,10403.60559363476
0.10635449574860109,9954.668958969833
0.11052951411260206,9439.37385254145
0.1148684256737553,8866.499221151846
0.1193776641714435,8255.64253086222
0.1240639159058831,7633.825701018964
0.12893412965257148,7031.704686511948
0.13399552696593373,6480.658292683674
0.1392556128874462,6007.522931098332
0.14472218707411338,5629.863919049919
0.15040335536380234,5353.260222813076
0.15630754179458153,5169.820885630191
0.16244350109588662,5057.522020049864
0.16882033167003618,4981.111450335237
0.17544748908334581,4896.390941009278
0.1823348000868439,4759.120047865399
0.189492477187382,4537.911203103347
0.19693113379074215,4227.811608494436
0.20466179993919872,3856.405849416532
0.21269593866686892,3475.278799819694
0.22104546299710207,3139.9604453352417
0.22972275360711503,2891.22382070389
0.23874067718606454,2743.02304608024
0.2481126055137766,2675.8397182561534
0.25785243528842716,2640.6005255113105
0.26797460873256895,2575.898132417989
0.27849413500806414,2436.298627013272
0.28942661247167484,2222.0501702174265
0.3007882518043098,1983.0604856620073
0.31259590004822796,1785.5692584227968
0.324867065587837,1668.8147247318511
0.3376199441111335,1621.3705045923848
0.35087344559027084,1589.2097556679632
0.36464722232127456,1512.3915294555206
0.37896169806447155,1376.5421103229514
0.3938380983288488,1227.4204509959623
0.4092984818452433,1123.1776019595088
0.4253657732750382,1076.5726957444858
0.44206379720285277,1044.5982919215346
0.45941731346364734,977.2493314030771
0.47745205385661277,878.7356153459781
0.4961947603002895,797.7186562699343
0.5156732244854959,757.0153892914839
0.5359163290848509,724.9358372772375
0.556954090580013,667.2951260179889
0.5788177037701272,602.4976811653983
0.6015395880274836,562.1871389985278
0.6251534353689703,534.0408872370758
0.6496942604146115,491.47802906202173
0.6751984523072497,447.479347608658
0.7017038286703824,419.5380674325185
0.7292496916841444,391.800344014552
0.7578768863625915,357.59647895074374
0.7876278611187046,331.81665950709527
0.8185467307069019,310.28410238131113
0.850679341636415,288.26865903676736
0.8840733401525058,266.387607025684
0.9187782428863317,245.27722584325753
0.9548455102782278,225.41093964396026
0.9923286228832539,207.1167595853579
1.0312831606721837,190.53778084008073
1.0717668854455022,175.49217353768265
1.1138398264826193,161.75793391208222
1.1575643695533022,149.15060313591965
1.2030053494233226,137.5170088901342
1.2502301459914542,126.73086123262289
1.299308784200415,116.71182578165839
1.3503140378698726,107.41982111338636
1.4033215376054824,98.81658463472539
1.4584098829439835,90.86358643333145
1.5156607589006013,83.52246404339014
1.575159057091621,76.75470292933613
1.6369930016117014,70.51826373450152
1.7012542798525885,64.77200038113698
1.7680381784572046,59.47797877059748
1.8374437246107238,54.601226158401744
1.9095738328780953,50.10949415768303
1.9845354578058014,45.97334883198907
2.0624397525140905,42.166161548782554
2.143402233514853,38.663209888546454
2.227542951999554,35.44147275420951
2.314986671851158,32.4795297337279
2.405863054644063,29.757456379919045
2.5003068519063225,27.25664219860404
2.598458104929248,24.959771691329557
2.7004623524206774,22.850819561747404
2.806470846309834,20.914962002073157
2.916640776023701,19.138491983400304
3.031135501567576,17.50874354045175
3.150124795755327,16.01402424163942
3.2737850959485697,14.643533422105602
3.4022997656780634,13.38729559004316
3.5358593665351745,12.23610116588986
3.6746619407366854,11.181451061021058
3.8189133047818515,10.215503633416406
3.968827354637162,9.331026916818137
4.1246263829013445,8.521355423571704
4.286541408420921,7.780348128393207
4.4548125188449825,7.1023492641068575
4.629689226627261,6.482151310366787
4.811430839003257,5.9149589060554995
5.000306842491082,5.3963602442065195
5.196597302486189,4.922298855609533
5.400593278542364,4.489046154435807
5.612597255954967,4.093175981717483
5.8329235942862,3.7315402423228017
6.06189899349756,3.4012468695407394
6.29986297838068,3.0996411910115476
6.547168402004727,2.8242872479892505
6.804181968927091,2.5729503738172665
7.071284778942991,2.3435814061066975
7.348872892180382,2.1343042900903333
7.637357916378006,1.943400042792299
7.937167617217536,1.769292258468781
8.248746552614573,1.6105357405162817
8.572556731909314,1.4658060094679146
8.909078300934132,1.3338864756767135
9.258810253973934,1.2136555401608138
9.622271173675122,1.1040879116137516
9.999999999999984,1.0042479236398911
