k [1/Mpc],P(k) [Mpc^3]
0.0001,1010.2174450646465
0.00010392556829367125,1043.7954075181804
0.00010800523745162529,1078.4867559860054
0.00011224505680853065,1114.3281069638697
0.00011665131316981963,1151.3572538858484
0.00012123054013376525,1189.6132042655609
0.00012598952777950273,1229.1361998608818
0.00013093533273536104,1269.9677710167562
0.00013607528864243335,1312.1507100270542
0.00014141701702890234,1355.7291079714046
0.00014696843861124463,1400.7484498324625
0.00015273778503907136,1447.255639810221
0.00015873361110102093,1495.2990587382294
0.00016496480740980205,1544.9285978687271
0.0001714406135851971,1596.19569513646
0.00017817063195457305,1649.153375198926
0.00018516484179121546,1703.8561141533626
0.000192433614111598,1760.359972091014
0.00019998772705352857,1818.7227208743445
0.0002078383818579757,1879.003886780688
0.00021599721947827182,1941.264796219108
0.0002244763378413224,2005.5684831717767
0.0002332883097864157,2071.9797628970455
0.00024244620170823283,2140.5652942284414
0.0002519635929317015,2211.393411437712
0.0002618545958474233,2284.5343622711403
0.0002721338768375308,2360.0603105049877
0.0002828166780230032,2438.0453598840563
0.0002939188398646886,2518.565653081544
0.0003054568246515432,2601.6992031017016
0.00031744774091091926,2687.526071839445
0.00032990936877709396,2776.1281936101736
0.00034286018635565856,2867.5891670354254
0.00035631939712285854,2961.99468732738
0.000370306958400514,3059.43252214978
0.00038484361094874304,3159.992582511138
0.0003999509097203664,3263.766732148499
0.00041565125582259895,3370.848321220494
0.00043196792973341727,3481.332713851146
0.0004489251258218605,3595.3169719105954
0.0004665479882234472,3712.8998768927245
0.000484862648123908,3834.1821948223023
0.000503896262506515,3959.2664140693664
0.0005236770544204653,4088.2569377267464
0.0005442343548300266,4221.259419429224
0.0005655986461065005,4358.38042006462
0.0005878016072274912,4499.728076032359
0.0006108761607505036,4645.411447081349
0.0006348565216305217,4795.540815602883
0.0006597782479539537,4950.227487634333
0.0006856782936641739,5109.58323112883
0.0007125950633568407,5273.720730425695
0.0007405684692262436,5442.752053046455
0.0007696399902471156,5616.78889671135
0.0007998527336796708,5795.942901645856
0.000831251498989063,5980.324330341992
0.0008638828442740447,6170.042954459301
0.000897795155303332,6365.206452864107
0.0009330387172620361,6565.919966783507
0.0009696657893145519,6772.286774892319
0.001007730682094461,6984.405456512099
0.0010472898382363582,7202.371381496981
0.0010884019160690055,7426.276089161639
0.0011311278765939214,7656.206120492596
0.001175531073878369,7892.2437890027595
0.0012216773489967915,8134.463693744004
0.0012696351276599736,8382.933649857376
0.0013194755216767058,8637.714449015071
0.0013712724343984,8898.857210505133
0.0014251026703029975,9166.405188603447
0.0014810460488806749,9440.390254686577
0.0015391855229902056,9720.83269000514
0.001599607301861487,10007.742043426168
0.0016624009789266115,10301.11350415358
0.0017276596646690358,10600.929742934173
0.0017954801246878305,10907.157929767442
0.0018659629231817451,11219.74802724998
0.001939212572065829,11538.634491159373
0.0020153376859417325,11863.7310385675
0.002094451143151469,12194.932651628696
0.002176670253153458,12532.113813006026
0.002262116930469025,12875.124951284015
0.002350917875457286,13223.795537528886
0.002443204762186487,13577.929291525843
0.0025391144336803463,13937.304905692616
0.002638789104828933,14301.674848162662
0.002742376573264949,14670.758322906146
0.0028500304385181063,15044.246981372551
0.0029619103297725525,15421.799037989307
0.0030781821425650787,15803.038534895279
0.003199018284775064,16187.557329686386
0.0033245979322709396,16574.902452484468
0.003455107294592217,16964.585222398593
0.0035907398910610534,17356.080200704466
0.0037316968377327513,17748.822554266084
0.0038781871456107214,18142.207560167444
0.0040304280305680515,18535.54659845957
0.00418864523543527,18928.090649139598
0.004353073364731888,19319.090780089835
0.00452395623253805,19707.848131088438
0.004701547224022131,20093.62864891301
0.004886109671160325,20475.40616801305
0.005077917243205399,20851.91907520792
0.005277254352483535,21221.924161028477
0.005484416576121017,21584.402302663053
0.005699711094326071,21938.359804968546
0.005923457145875801,22282.559059606312
0.006155986501483508,22615.48738183217
0.006397643955748424,22935.614175519993
0.0066487878384172625,23241.56019339657
0.0069097905457156435,23531.994444777265
0.007181039092537346,23805.422273248416
0.007462935686310132,24060.07818416308
0.007755898323389004,24294.15171077221
0.00806036140886134,24505.69273283487
0.008376776400682916,24692.686046016763
0.008705612479099857,24853.10013644904
0.009047357242349292,24984.833909634875
0.00940251742967013,25085.817578317212
0.009771619672696168,25153.842418407537
0.010155211276345676,25186.61825090512
0.010553861030365234,25181.9014575936
0.010968160052731372,25137.280003073738
0.011398722666160517,25050.44892257335
0.011846187309026826,24919.099732266077
0.012311217482038896,24740.901680415365
0.012794502732078732,24513.773352286506
0.013296759674662111,24235.548501546196
0.013818733056536317,23904.32880527972
0.014361196859990781,23518.47157371515
0.014924955450518284,23076.407096058487
0.015510844769528393,22577.164235396325
0.016119733573881575,22019.964609791183
0.01675252472408214,21404.5565932479
0.017410156523040152,20731.426203484345
0.018093604107387147,20001.373338944177
0.01880388089340914,19216.251141751556
0.019542040079740527,18378.585140227504
0.02030917620904734,17491.711862254193
0.021106426791015535,16560.243382107208
0.021934973989050584,15589.445075962003
0.02279604637318978,14585.870824508807
0.023690920741826323,13557.102511990503
0.02462092401494623,12511.496513102273
0.02558743520168586,11458.601019081996
0.02659188744512693,10408.668994264768
0.027635770147361564,9372.51109080463
0.028720631177978267,8361.220208292352
0.029848079169243254,7385.702919286632
0.03101978590138095,6456.328493058451
0.03223748878149028,5583.7842249673995
0.0335029934197723,4777.346872891062
0.03481817630688963,4043.491743561133
0.03618498759642746,3386.425804298431
0.037605453996581675,2807.4747039156364
0.03908168177536263,2309.4477030901176
0.04061585988376978,1892.8379061768628
0.04221026320156896,1553.1343687293693
0.04386725591048496,1283.2979045321335
0.0455892949998106,1075.3249919731484
0.047378933909631396,922.5641864975727
0.049238826317067365,817.8631674552357
0.05117173007114603,755.012914118841
0.05318051128214196,728.8525054428859
0.05526814857144601,735.6802389341718
0.057437737488265785,771.8969218064492
0.0596924950997073,833.7510815418178
0.0620357647610427,915.4785962458237
0.06447102107323864,1008.641166709618
0.06700187503509585,1101.4951766502202
0.06963207939763882,1179.6494231555478
0.0723655342286965,1227.6432065325284
0.07520629269592405,1231.5848584042683
0.07815856707684081,1182.376783732082
0.08122673500479707,1079.0597500087347
0.08441534596012978,930.655353098082
0.0877291280161335,755.2355407847059
0.09117299484984914,575.7841559470115
0.09475205302806537,414.1543535523304
0.09847160957933764,285.6390778980504
0.1023371798632519,196.2620563224548
0.10635449574860109,143.8407360644116
0.11052951411260206,122.20977632926142
0.1148684256737553,126.08929182038214
0.1193776641714435,152.87878931896827
0.1240639159058831,199.3124575474662
0.12893412965257148,255.27030079238585
0.13399552696593373,301.26039983794686
0.1392556128874462,315.68565171864554
0.14472218707411338,288.0045959316744
0.15040335536380234,226.2564418476765
0.15630754179458153,153.56296478657305
0.16244350109588662,94.45404240063633
0.16882033167003618,60.39273111522662
0.17544748908334581,49.754072351148665
0.1823348000868439,58.222059727720556
0.189492477187382,81.6718152543688
0.19693113379074215,108.4684404902189
0.20466179993919872,118.96861661591784
0.21269593866686892,102.12320112150682
0.22104546299710207,69.20149682498383
0.22972275360711503,41.47060920539683
0.23874067718606454,29.46355207109927
0.2481126055137766,32.20700998531217
0.25785243528842716,44.528851181859196
0.26797460873256895,54.30591029801827
0.27849413500806414,48.913158476818936
0.28942661247167484,32.99854946196684
0.3007882518043098,21.302316353735012
0.31259590004822796,19.74606580213568
0.324867065587837,25.26744306100742
0.3376199441111335,28.732121545807303
0.35087344559027084,23.335417731046572
0.36464722232127456,15.715580537755782
0.37896169806447155,13.572705336811715
0.3938380983288488,15.990619734257198
0.4092984818452433,16.459002267147007
0.4253657732750382,12.554862431490687
0.44206379720285277,9.85248982852507
0.45941731346364734,10.427067027397214
0.47745205385661277,10.547495705592796
0.4961947603002895,8.380673434039279
0.5156732244854959,7.214022891602677
0.5359163290848509,7.34552129203415
0.556954090580013,6.9054544814997625
0.5788177037701272,6.242173397440934
0.6015395880274836,5.52775562304284
0.6251534353689703,4.870099849639192
0.6496942604146115,4.326534591024689
0.6751984523072497,3.8824352544181555
0.7017038286703824,3.5102035788228774
0.7292496916841444,3.1895113597351683
0.7578768863625915,2.905223125646243
0.7876278611187046,2.646066481913869
0.8185467307069019,2.4058497034405266
0.850679341636415,2.1838699588770045
0.8840733401525058,1.9797555859972613
0.9187782428863317,1.7929116238309148
0.9548455102782278,1.622574600170664
0.9923286228832539,1.4678464392447599
1.0312831606721837,1.3275575352695004
1.0717668854455022,1.2004361720824546
1.1138398264826193,1.0853072058245992
1.1575643695533022,0.9810905465007694
1.2030053494233226,0.8867948986893677
1.2502301459914542,0.8015048459119156
1.299308784200415,0.7243564940527208
1.3503140378698726,0.6545629543711575
1.4033215376054824,0.5914158568336347
1.4584098829439835,0.5342771536561025
1.5156607589006013,0.4825719119974957
1.575159057091621,0.4357870586701459
1.6369930016117014,0.39346590354151795
1.7012542798525885,0.3551933039228648
1.7680381784572046,0.3205913002451862
1.8374437246107238,0.28931596422608963
1.9095738328780953,0.26105434322987286
1.9845354578058014,0.23552051087996653
2.0624397525140905,0.2124543234524313
2.143402233514853,0.1916201405655389
2.227542951999554,0.1728045577459094
2.314986671851158,0.15581433268012743
2.405863054644063,0.14047459005880883
2.5003068519063225,0.1266272669724041
2.598458104929248,0.1141292397131021
2.7004623524206774,0.10285087368479069
2.806470846309834,0.09267477846208658
2.916640776023701,0.08349467329639311
3.031135501567576,0.07521430564739795
3.150124795755327,0.06774652663250812
3.2737850959485697,0.06101251514313845
3.4022997656780634,0.054940997938317325
3.5358593665351745,0.04946753712208105
3.6746619407366854,0.044533888429871785
3.8189133047818515,0.04008744268304666
3.968827354637162,0.036080662081735486
4.1246263829013445,0.03247058111207355
4.286541408420921,0.02921837413957016
4.4548125188449825,0.026288963164727286
4.629689226627261,0.023650651264290702
4.811430839003257,0.02127478855595033
5.000306842491082,0.019135511614634518
5.196597302486189,0.017209480379576276
5.400593278542364,0.01547563458056761
5.612597255954967,0.013914973639082366
5.8329235942862,0.012510362053027696
6.06189899349756,0.011246346796672677
6.29986297838068,0.01010898863758866
6.547168402004727,0.009085715440533805
6.804181968927091,0.008165189722771119
7.071284778942991,0.007337189602100339
7.348872892180382,0.006592503585010299
7.637357916378006,0.005922828299789874
7.937167617217536,0.005320678420246413
8.248746552614573,0.004779307173782564
8.572556731909314,0.004292634404562298
8.909078300934132,0.003855174149612836
9.258810253973934,0.0034619719978014156
9.622271173675122,0.0031085698193713653
9.999999999999984,0.0027909580126194464
