k [1/Mpc],P(k) [Mpc^3]
0.0001,16.319199265128802
0.00010392556829367125,17.0579840598926
0.00010800523745162529,17.830207746591405
0.00011224505680853065,18.63738300950886
0.00011665131316981963,19.48109087792622
0.00012123054013376525,20.362983817916785
0.00012598952777950273,21.284789052169707
0.00013093533273536104,22.24831209120439
0.00013607528864243335,23.255440063048454
0.00014141701702890234,24.308144620462365
0.00014696843861124463,25.408485748224788
0.00015273778503907136,26.558616431153492
0.00015873361110102093,27.760787255690275
0.00016496480740980205,29.01735048425021
0.0001714406135851971,30.330763932568008
0.00017817063195457305,31.703595454394442
0.00018516484179121546,33.13852876031353
0.000192433614111598,34.63837015401342
0.00019998772705352857,36.20605326244515
0.0002078383818579757,37.84464199037891
0.00021599721947827182,39.55733396338505
0.0002244763378413224,41.34747006837611
0.0002332883097864157,43.21854467552278
0.00024244620170823283,45.17421166939433
0.0002519635929317015,47.21828827825952
0.0002618545958474233,49.354759553969096
0.0002721338768375308,51.58778850307166
0.0002828166780230032,53.92172387842396
0.0002939188398646886,56.36110834970454
0.0003054568246515432,58.91068808423634
0.00031744774091091926,61.57542306427753
0.00032990936877709396,64.3604956086875
0.00034286018635565856,67.27131558422555
0.00035631939712285854,70.31352793275146
0.000370306958400514,73.49302848277551
0.00038484361094874304,76.81597866264462
0.0003999509097203664,80.28881566095993
0.00041565125582259895,83.91825942407567
0.00043196792973341727,87.71132019295374
0.0004489251258218605,91.67531693910556
0.0004665479882234472,95.81789029886723
0.000484862648123908,100.14701671713188
0.000503896262506515,104.67102227525011
0.0005236770544204653,109.3985937005889
0.0005442343548300266,114.33879722040565
0.0005655986461065005,119.50109108684079
0.0005878016072274912,124.89534124839413
0.0006108761607505036,130.53184169801278
0.0006348565216305217,136.4213269430861
0.0006597782479539537,142.57499408007996
0.0006856782936641739,149.0045183560549
0.0007125950633568407,155.72206863152388
0.0007405684692262436,162.74033381882748
0.0007696399902471156,170.07253339548478
0.0007998527336796708,177.73244342728805
0.000831251498989063,185.73441919877357
0.0008638828442740447,194.09340927907027
0.000897795155303332,202.8249884949302
0.0009330387172620361,211.94536985325013
0.0009696657893145519,221.4714306876004
0.001007730682094461,231.4207427591005
0.0010472898382363582,241.8115804050854
0.0010884019160690055,252.66296176940915
0.0011311278765939214,263.9946580733906
0.001175531073878369,275.8272135213744
0.0012216773489967915,288.1819901605864
0.0012696351276599736,301.0811604303732
0.0013194755216767058,314.54775710019703
0.0013712724343984,328.605690930994
0.0014251026703029975,343.2797550952376
0.0014810460488806749,358.595684804133
0.0015391855229902056,374.5801264560674
0.001599607301861487,391.2606859938858
0.0016624009789266115,408.6659624334982
0.0017276596646690358,426.8255170003805
0.0017954801246878305,445.76995633246383
0.0018659629231817451,465.5308942882709
0.001939212572065829,486.14097550115616
0.0020153376859417325,507.6339331820503
0.002094451143151469,530.0445174653314
0.002176670253153458,553.4085854056364
0.002262116930469025,577.7630419659357
0.002350917875457286,603.1458051883506
0.002443204762186487,629.5959086863303
0.0025391144336803463,657.1533516353634
0.002638789104828933,685.8591887198575
0.002742376573264949,715.7555342861317
0.0028500304385181063,746.8854806026842
0.0029619103297725525,779.2931745751833
0.0030781821425650787,813.0235256619494
0.003199018284775064,848.1222539640526
0.0033245979322709396,884.6359656871989
0.003455107294592217,922.6119485139359
0.0035907398910610534,962.0982866674076
0.0037316968377327513,1003.1435578560324
0.0038781871456107214,1045.7967406977348
0.0040304280305680515,1090.1072890169278
0.00418864523543527,1136.1245988112423
0.004353073364731888,1183.8982299193096
0.00452395623253805,1233.4776469065732
0.004701547224022131,1284.9119138824858
0.004886109671160325,1338.249823688257
0.005077917243205399,1393.5389886107157
0.005277254352483535,1450.8260229663804
0.005484416576121017,1510.1564144367226
0.005699711094326071,1571.5738901292411
0.005923457145875801,1635.1206063474995
0.006155986501483508,1700.8353562063235
0.006397643955748424,1768.7535439421033
0.0066487878384172625,1838.908283023405
0.0069097905457156435,1911.330936937454
0.007181039092537346,1986.0499002914592
0.007462935686310132,2063.083806358901
0.007755898323389004,2142.4396603484524
0.00806036140886134,2224.1191281319425
0.008376776400682916,2308.123166372356
0.008705612479099857,2394.4485645866084
0.009047357242349292,2483.079714714348
0.00940251742967013,2573.9833876270122
0.009771619672696168,2667.1164102730945
0.010155211276345676,2762.4291370552046
0.010553861030365234,2859.8637163348085
0.010968160052731372,2959.3470684376693
0.011398722666160517,3060.78245588389
0.011846187309026826,3164.057337025575
0.012311217482038896,3269.0390914919058
0.012794502732078732,3375.574936028576
0.013296759674662111,3483.4929650356753
0.013818733056536317,3592.5947891399965
0.014361196859990781,3702.6608052960128
0.014924955450518284,3813.444854870081
0.015510844769528393,3924.6718714447547
0.016119733573881575,4036.0426162957624
0.01675252472408214,4147.221093997014
0.017410156523040152,4257.842817005618
0.018093604107387147,4367.51333858572
0.01880388089340914,4475.802550552763
0.019542040079740527,4582.255228515391
0.02030917620904734,4686.380135587794
0.021106426791015535,4787.657065118188
0.021934973989050584,4885.542987784853
0.02279604637318978,4979.467159288655
0.023690920741826323,5068.843234800408
0.02462092401494623,5153.065892768237
0.02558743520168586,5231.516033946445
0.02659188744512693,5303.579691742977
0.027635770147361564,5368.673849231817
0.028720631177978267,5426.234220052604
0.029848079169243254,5475.691683686548
0.03101978590138095,5516.470693296535
0.03223748878149028,5548.070345737774
0.0335029934197723,5570.346039403312
0.03481817630688963,5583.331667350361
0.03618498759642746,5586.922293027883
0.037605453996581675,5580.695569899837
0.03908168177536263,5564.288348745671
0.04061585988376978,5537.951104153418
0.04221026320156896,5502.3353379992395
0.04386725591048496,5458.190641009559
0.0455892949998106,5406.460859557487
0.047378933909631396,5348.127712042602
0.049238826317067365,5284.1753711321635
0.05117173007114603,5215.579470352366
0.05318051128214196,5143.427526674129
0.05526814857144601,5069.244135691983
0.057437737488265785,4994.564277353916
0.0596924950997073,4920.702843590766
0.0620357647610427,4848.808068366241
0.06447102107323864,4779.680802822902
0.06700187503509585,4713.859298933407
0.06963207939763882,4651.417709397687
0.0723655342286965,4592.088617738272
0.07520629269592405,4535.057581426383
0.07815856707684081,4479.113534388558
0.08122673500479707,4422.570006010425
0.08441534596012978,4363.273096361917
0.0877291280161335,4298.72536968581
0.09117299484984914,4226.206862838448
0.09475205302806537,4143.121669078725
0.09847160957933764,4047.3894780343317
0.1023371798632519,3937.9481872796264
0.10635449574860109,3815.065800175269
0.11052951411260206,3680.5831033698664
0.1148684256737553,3537.7484512535075
0.1193776641714435,3391.0175161160914
0.1240639159058831,3245.6657367293947
0.12893412965257148,3107.2319877260065
0.13399552696593373,2980.7845513656725
0.1392556128874462,2870.045167353051
0.14472218707411338,2776.7218293804435
0.15040335536380234,2699.4726976345987
0.15630754179458153,2632.8992542537667
0.16244350109588662,2569.859112627314
0.16882033167003618,2502.1929769834933
0.17544748908334581,2422.6704336504417
0.1823348000868439,2327.0839399242936
0.189492477187382,2215.923692601702
0.19693113379074215,2094.765302886712
0.20466179993919872,1973.1175993097047
0.21269593866686892,1861.7171352781095
0.22104546299710207,1768.6388234017631
0.22972275360711503,1695.7924719292905
0.23874067718606454,1638.0969307722378
0.2481126055137766,1585.256362453067
0.25785243528842716,1525.4071304043846
0.26797460873256895,1451.0064571484145
0.27849413500806414,1363.9580146858812
0.28942661247167484,1274.6996082621038
0.3007882518043098,1196.081210645246
0.31259590004822796,1135.4117749943841
0.324867065587837,1089.1040291167853
0.3376199441111335,1044.9945192462033
0.35087344559027084,991.6111254994648
0.36464722232127456,928.1878499595385
0.37896169806447155,864.963911666333
0.3938380983288488,813.0184340936623
0.4092984818452433,773.2965669449078
0.4253657732750382,736.2511078220856
0.44206379720285277,693.0296970942554
0.45941731346364734,645.7558891021598
0.47745205385661277,603.7884189043704
0.4961947603002895,570.5673893552466
0.5156732244854959,539.4315325499742
0.5359163290848509,504.61438869702937
0.556954090580013,470.18837155370915
0.5788177037701272,441.4555845284815
0.6015395880274836,415.4598141378414
0.6251534353689703,388.0499490244802
0.6496942604146115,361.7535913842768
0.6751984523072497,339.06374410776374
0.7017038286703824,317.2334007634881
0.7292496916841444,295.42733298498655
0.7578768863625915,275.91604372743535
0.7876278611187046,257.6660068291446
0.8185467307069019,239.8775728821426
0.850679341636415,223.60838587303724
0.8840733401525058,208.37243432545736
0.9187782428863317,194.00662667347282
0.9548455102782278,180.4930701450533
0.9923286228832539,167.80830914849912
1.0312831606721837,155.92532006793664
1.0717668854455022,144.81427451113862
1.1138398264826193,134.44310353866936
1.1575643695533022,124.77262086698455
1.2030053494233226,115.75689526856537
1.2502301459914542,107.35253523648423
1.299308784200415,99.51915087251245
1.3503140378698726,92.21912529314741
1.4033215376054824,85.41747181361754
1.4584098829439835,79.08291756670445
1.5156607589006013,73.18719392505835
1.575159057091621,67.70339453731978
1.6369930016117014,62.60589359372137
1.7012542798525885,57.87032378323059
1.7680381784572046,53.473524747464324
1.8374437246107238,49.39326026662357
1.9095738328780953,45.60837992316407
1.9845354578058014,42.09899490410044
2.0624397525140905,38.846419544127826
2.143402233514853,35.83311064426192
2.227542951999554,33.04261153155277
2.314986671851158,30.459510868638766
2.405863054644063,28.06937110129933
2.5003068519063225,25.858666659632995
2.598458104929248,23.8147349617884
2.7004623524206774,21.925729295370363
2.806470846309834,20.18057138816481
2.916640776023701,18.568901259733963
3.031135501567576,17.081045417432485
3.150124795755327,15.707979837271742
3.2737850959485697,14.441291178968129
3.4022997656780634,13.273139872039541
3.5358593665351745,12.196223652532554
3.6746619407366854,11.20374209260902
3.8189133047818515,10.289369465860018
3.968827354637162,9.447225426501689
4.1246263829013445,8.671846344851806
4.286541408420921,7.9581582305188725
4.4548125188449825,7.3014500607835355
4.629689226627261,6.697349034422745
4.811430839003257,6.1418004864266775
5.000306842491082,5.631046674018052
5.196597302486189,5.161606516608054
5.400593278542364,4.73025654012443
5.612597255954967,4.3340113420410065
5.8329235942862,3.97010693311806
6.06189899349756,3.635987847566938
6.29986297838068,3.32929244023358
6.547168402004727,3.047838948779648
6.804181968927091,2.7896126382218616
7.071284778942991,2.55275650301221
7.348872892180382,2.3355586159157666
7.637357916378006,2.1364382857257396
7.937167617217536,1.95393648909708
8.248746552614573,1.7867070650482495
8.572556731909314,1.63350762463907
8.909078300934132,1.493183324760734
9.258810253973934,1.3646667464406346
9.622271173675122,1.2469783760997524
9.999999999999984,1.139219459814378
