k [1/Mpc],P(k) [Mpc^3]
0.0001,88.81853709818758
0.00010392556829367125,92.83694931327182
0.00010800523745162529,97.03692428359128
0.00011224505680853065,101.42663519834905
0.00011665131316981963,106.01462092378252
0.00012123054013376525,110.80980117407879
0.00012598952777950273,115.8214884895309
0.00013093533273536104,121.0594085925941
0.00013607528864243335,126.53371795462797
0.00014141701702890234,132.25502073289547
0.00014696843861124463,138.23439094788873
0.00015273778503907136,144.48338785667002
0.00015873361110102093,151.01407890408208
0.00016496480740980205,157.8390637288876
0.0001714406135851971,164.97149524449662
0.00017817063195457305,172.42510492748843
0.00018516484179121546,180.21421506342406
0.000192433614111598,188.3537634321316
0.00019998772705352857,196.85933755805738
0.0002078383818579757,205.7471927397752
0.00021599721947827182,215.03428709149998
0.0002244763378413224,224.73830592503703
0.0002332883097864157,234.87768714626816
0.00024244620170823283,245.47165908313283
0.0002519635929317015,256.54025020947586
0.0002618545958474233,268.10433193349303
0.0002721338768375308,280.1856504779888
0.0002828166780230032,292.8068414734462
0.0002939188398646886,305.99148726614516
0.0003054568246515432,319.76413197422863
0.00031744774091091926,334.1503211241635
0.00032990936877709396,349.17664769388244
0.00034286018635565856,364.8707569011264
0.00035631939712285854,381.26141287617565
0.000370306958400514,398.378506394926
0.00038484361094874304,416.2530781524132
0.0003999509097203664,434.91739992402285
0.00041565125582259895,454.404985927063
0.00043196792973341727,474.7506534559279
0.0004489251258218605,495.990515106822
0.0004665479882234472,518.161942756791
0.000484862648123908,541.3037085621347
0.000503896262506515,565.4560241335755
0.0005236770544204653,590.6605880668392
0.0005442343548300266,616.9605918808257
0.0005655986461065005,644.4006364635545
0.0005878016072274912,673.0268777485618
0.0006108761607505036,702.8870005410629
0.0006348565216305217,734.0302325622599
0.0006597782479539537,766.5074411951284
0.0006856782936641739,800.371030653804
0.0007125950633568407,835.6750552099818
0.0007405684692262436,872.4751655376788
0.0007696399902471156,910.828511218395
0.0007998527336796708,950.7939160583453
0.000831251498989063,992.4316687063176
0.0008638828442740447,1035.8036034758684
0.000897795155303332,1080.9730805646525
0.0009330387172620361,1128.0046608323942
0.0009696657893145519,1176.9643908954486
0.001007730682094461,1227.9195808398733
0.0010472898382363582,1280.9387489421317
0.0010884019160690055,1336.0916869363302
0.0011311278765939214,1393.4489385555967
0.001175531073878369,1453.0820510623632
0.0012216773489967915,1515.0632789979065
0.0012696351276599736,1579.4652445435927
0.0013194755216767058,1646.3612165813595
0.0013712724343984,1715.8245486744356
0.0014251026703029975,1787.928730348341
0.0014810460488806749,1862.7470705461521
0.0015391855229902056,1940.3518869863688
0.001599607301861487,2020.814974637043
0.0016624009789266115,2104.207031292814
0.0017276596646690358,2190.5974454123875
0.0017954801246878305,2280.0541274815578
0.0018659629231817451,2372.642363861518
0.001939212572065829,2468.425169316403
0.0020153376859417325,2567.462651992761
0.002094451143151469,2669.81141351051
0.002176670253153458,2775.5246191135634
0.002262116930469025,2884.6506692864377
0.002350917875457286,2997.233256439567
0.002443204762186487,3113.3108291524
0.0025391144336803463,3232.915493542296
0.002638789104828933,3356.073263956609
0.002742376573264949,3482.802821130262
0.0028500304385181063,3613.1151402213222
0.0029619103297725525,3747.013103786133
0.0030781821425650787,3884.4899044802055
0.003199018284775064,4025.5293514966943
0.0033245979322709396,4170.104329002299
0.003455107294592217,4318.175888535294
0.0035907398910610534,4469.693752882581
0.0037316968377327513,4624.595383854303
0.0038781871456107214,4782.805587771991
0.0040304280305680515,4944.230629850413
0.00418864523543527,5108.75255472052
0.004353073364731888,5276.238317474743
0.00452395623253805,5446.560228000891
0.004701547224022131,5619.589537711365
0.004886109671160325,5795.160560870782
0.005077917243205399,5973.020360147836
0.005277254352483535,6152.879661646874
0.005484416576121017,6334.460025743472
0.005699711094326071,6517.496564501152
0.005923457145875801,6701.708125687399
0.006155986501483508,6886.8011497519765
0.006397643955748424,7072.4657608500465
0.0066487878384172625,7258.350676700931
0.0069097905457156435,7444.048245659476
0.007181039092537346,7629.124540311113
0.007462935686310132,7813.119157724258
0.007755898323389004,7995.547694977072
0.00806036140886134,8175.9018127987465
0.008376776400682916,8353.645900566937
0.008705612479099857,8528.223822775512
0.009047357242349292,8699.05461561107
0.00940251742967013,8865.535306744947
0.009771619672696168,9027.043413141044
0.010155211276345676,9182.921718340756
0.010553861030365234,9332.496779686564
0.010968160052731372,9475.082102350507
0.011398722666160517,9609.979657042943
0.011846187309026826,9736.489385980614
0.012311217482038896,9853.90354732156
0.012794502732078732,9961.517828225413
0.013296759674662111,10058.640995370111
0.013818733056536317,10144.599608824432
0.014361196859990781,10218.745439352646
0.014924955450518284,10280.470708812805
0.015510844769528393,10329.21108980128
0.016119733573881575,10364.45588924929
0.01675252472408214,10385.782050022122
0.017410156523040152,10392.829982957579
0.018093604107387147,10385.347823208022
0.01880388089340914,10363.200929919898
0.019542040079740527,10326.341451761746
0.02030917620904734,10274.909358117618
0.021106426791015535,10209.152906394871
0.021934973989050584,10129.463527068678
0.02279604637318978,10036.435746786963
0.023690920741826323,9930.741375804913
0.02462092401494623,9813.28160744156
0.02558743520168586,9685.093056375374
0.02659188744512693,9547.258832977788
0.027635770147361564,9400.972605466155
0.028720631177978267,9247.437769064225
0.029848079169243254,9088.062111508545
0.03101978590138095,8924.422147990705
0.03223748878149028,8757.829100290799
0.0335029934197723,8588.565589881406
0.03481817630688963,8416.635936761004
0.03618498759642746,8243.05829327588
0.037605453996581675,8070.292088258964
0.03908168177536263,7900.304410895731
0.04061585988376978,7731.201864258038
0.04221026320156896,7559.365937308244
0.04386725591048496,7382.452056268789
0.0455892949998106,7200.729460854386
0.047378933909631396,7014.775818842338
0.049238826317067365,6824.311949324422
0.05117173007114603,6628.618079699696
0.05318051128214196,6426.539222218784
0.05526814857144601,6216.48250098447
0.057437737488265785,5998.178798479171
0.0596924950997073,5773.10722789605
0.0620357647610427,5544.388285466047
0.06447102107323864,5316.677703564975
0.06700187503509585,5094.247426045342
0.06963207939763882,4880.434245578029
0.0723655342286965,4676.3439289831085
0.07520629269592405,4482.378465608104
0.07815856707684081,4298.865513801193
0.08122673500479707,4126.287170616209
0.08441534596012978,3963.608546073309
0.0877291280161335,3807.3343718788656
0.09117299484984914,3651.8667982441443
0.09475205302806537,3492.7036698833513
0.09847160957933764,3328.360684622158
0.1023371798632519,3160.839532895341
0.10635449574860109,2994.355619715124
0.11052951411260206,2833.434622693352
0.1148684256737553,2681.2702031122662
0.1193776641714435,2539.15419240552
0.1240639159058831,2407.5402444094498
0.12893412965257148,2286.272558970734
0.13399552696593373,2171.7442952800266
0.1392556128874462,2058.625933161908
0.14472218707411338,1945.5833047539536
0.15040335536380234,1834.4776997183058
0.15630754179458153,1726.424370104218
0.16244350109588662,1623.9660481703133
0.16882033167003618,1529.5328614126338
0.17544748908334581,1441.452421589153
0.1823348000868439,1357.64476259105
0.189492477187382,1277.0008131368593
0.19693113379074215,1199.0196672065895
0.20466179993919872,1124.4544785546718
0.21269593866686892,1054.2802681949188
0.22104546299710207,988.6326715140483
0.22972275360711503,926.6248380753606
0.23874067718606454,867.6858901035004
0.2481126055137766,811.6759011151336
0.25785243528842716,758.8787109208605
0.26797460873256895,709.2283039740176
0.27849413500806414,662.5115905440823
0.28942661247167484,618.4190117794573
0.3007882518043098,576.8889546270952
0.31259590004822796,537.9115346518456
0.324867065587837,501.28543065741815
0.3376199441111335,466.9005808321061
0.35087344559027084,434.65000348845547
0.36464722232127456,404.42286109006056
0.37896169806447155,376.1207788786968
0.3938380983288488,349.6343256470488
0.4092984818452433,324.85610121335435
0.4253657732750382,301.68969061276215
0.44206379720285277,280.04511347855316
0.45941731346364734,259.8347902435589
0.47745205385661277,240.97310791977665
0.4961947603002895,223.37984704974681
0.5156732244854959,206.980638046581
0.5359163290848509,191.70752690837054
0.556954090580013,177.48757325533487
0.5788177037701272,164.2610866343235
0.6015395880274836,151.96301653854576
0.6251534353689703,140.5304553869725
0.6496942604146115,129.90671197298715
0.6751984523072497,120.03970515575077
0.7017038286703824,110.88039041547793
0.7292496916841444,102.38241876991673
0.7578768863625915,94.50203327710064
0.7876278611187046,87.19796786254389
0.8185467307069019,80.43128285669754
0.850679341636415,74.16514149540122
0.8840733401525058,68.36493165852508
0.9187782428863317,62.99820522228527
0.9548455102782278,58.0345640465809
0.9923286228832539,53.44554906048571
1.0312831606721837,49.204505368943806
1.0717668854455022,45.28648586053782
1.1138398264826193,41.66819514626296
1.1575643695533022,38.3278948664199
1.2030053494233226,35.24531089211403
1.2502301459914542,32.40154816889038
1.299308784200415,29.779024263778282
1.3503140378698726,27.361370333953957
1.4033215376054824,25.133345237124367
1.4584098829439835,23.080765815821923
1.5156607589006013,21.190440749762086
1.575159057091621,19.450098143902576
1.6369930016117014,17.848317488724366
1.7012542798525885,16.374498771484696
1.7680381784572046,15.018811360786298
1.8374437246107238,13.77214205429127
1.9095738328780953,12.626046432406445
1.9845354578058014,11.572705472582362
2.0624397525140905,10.604881203951754
2.143402233514853,9.715873844508733
2.227542951999554,8.899484281965977
2.314986671851158,8.149979008287376
2.405863054644063,7.462056028493031
2.5003068519063225,6.830810046502621
2.598458104929248,6.251709735490323
2.7004623524206774,5.720572631285847
2.806470846309834,5.233539546936093
2.916640776023701,4.7870507553435555
3.031135501567576,4.377824522101407
3.150124795755327,4.002836616925653
3.2737850959485697,3.659299769838058
3.4022997656780634,3.3446458266107264
3.5358593665351745,3.056509288286658
3.6746619407366854,2.79271188938371
3.8189133047818515,2.5512472874320316
3.968827354637162,2.3302688442317145
4.1246263829013445,2.1280782484683862
4.286541408420921,1.9431140354293945
4.4548125188449825,1.7739409429334831
4.629689226627261,1.6192400547552086
4.811430839003257,1.4777996770783606
5.000306842491082,1.3485069203392805
5.196597302486189,1.2303399046286403
5.400593278542364,1.1223605521490934
5.612597255954967,1.0237079169601133
5.8329235942862,0.9335917259578097
6.06189899349756,0.8512867834625489
6.29986297838068,0.7761281620126997
6.547168402004727,0.7075063433559938
6.804181968927091,0.6448627161064675
7.071284778942991,0.5876855301240779
7.348872892180382,0.5355066074902549
7.637357916378006,0.48789719493066214
7.937167617217536,0.4444644248556413
8.248746552614573,0.4048484049668686
8.572556731909314,0.36871953229725957
8.909078300934132,0.3357752705074166
9.258810253973934,0.3057372942075247
9.622271173675122,0.2783512950880375
9.999999999999984,0.2533851537006193
