k [1/Mpc],P(k) [Mpc^3]
0.0001,138.31549520022887
0.00010392556829367125,144.57648011966518
0.00010800523745162529,151.12075044265967
0.00011224505680853065,157.96112265974742
0.00011665131316981963,165.11098987765317
0.00012123054013376525,172.58433147800852
0.00012598952777950273,180.39575065885927
0.00013093533273536104,188.56051536177665
0.00013607528864243335,197.09459265284295
0.00014141701702890234,206.01466870523817
0.00014696843861124463,215.33816515254298
0.00015273778503907136,225.0832791171581
0.00015873361110102093,235.2690299003428
0.00016496480740980205,245.91530229079743
0.0001714406135851971,257.04287613142435
0.00017817063195457305,268.67345418820037
0.00018516484179121546,280.82970553214955
0.000192433614111598,293.53531126424525
0.00019998772705352857,306.8149994329092
0.0002078383818579757,320.69460131075186
0.00021599721947827182,335.20111361745666
0.0002244763378413224,350.3627517732778
0.0002332883097864157,366.20898711815124
0.00024244620170823283,382.77057172128804
0.0002519635929317015,400.07961535536344
0.0002618545958474233,418.1696531185432
0.0002721338768375308,437.0757066067024
0.0002828166780230032,456.8343497193766
0.0002939188398646886,477.48376466943785
0.0003054568246515432,499.06381734306785
0.00031744774091091926,521.6161220038025
0.00032990936877709396,545.1840981472524
0.00034286018635565856,569.8130687005433
0.00035631939712285854,595.5503103434321
0.000370306958400514,622.4451431077696
0.00038484361094874304,650.549038955497
0.0003999509097203664,679.9157105985925
0.00041565125582259895,710.6012059712735
0.00043196792973341727,742.6639362221033
0.0004489251258218605,776.1647618986389
0.0004665479882234472,811.1671561871656
0.000484862648123908,847.7373064565274
0.000503896262506515,885.94423060419
0.0005236770544204653,925.8598239217786
0.0005442343548300266,967.5589274203352
0.0005655986461065005,1011.1195270579822
0.0005878016072274912,1056.6228325653663
0.0006108761607505036,1104.153427530484
0.0006348565216305217,1153.7993783114732
0.0006597782479539537,1205.6522997603113
0.0006856782936641739,1259.8075622576948
0.0007125950633568407,1316.3642946754687
0.0007405684692262436,1375.4255474557076
0.0007696399902471156,1437.0985094680987
0.0007998527336796708,1501.4945845141974
0.000831251498989063,1568.7296003583629
0.0008638828442740447,1638.9237528981998
0.000897795155303332,1712.201708239907
0.0009330387172620361,1788.692926806594
0.0009696657893145519,1868.5316567212005
0.001007730682094461,1951.857196937997
0.0010472898382363582,2038.813863108667
0.0010884019160690055,2129.5509573791132
0.0011311278765939214,2224.2231744821715
0.001175531073878369,2322.9903261234667
0.0012216773489967915,2426.0176605954407
0.0012696351276599736,2533.475992705048
0.0013194755216767058,2645.5414931710893
0.0013712724343984,2762.396156324051
0.0014251026703029975,2884.2273192240295
0.0014810460488806749,3011.2278384523675
0.0015391855229902056,3143.596363343985
0.001599607301861487,3281.5366938150532
0.0016624009789266115,3425.258424975207
0.0017276596646690358,3574.9764994698594
0.0017954801246878305,3730.9110581065993
0.0018659629231817451,3893.2878304349492
0.001939212572065829,4062.337001885519
0.0020153376859417325,4238.29384152068
0.002094451143151469,4421.398052527212
0.002176670253153458,4611.892897559778
0.002262116930469025,4810.026137420724
0.002350917875457286,5016.048842805345
0.002443204762186487,5230.215583674771
0.0025391144336803463,5452.783827505611
0.002638789104828933,5684.0122208169805
0.002742376573264949,5924.161627293267
0.0028500304385181063,6173.493047768946
0.0029619103297725525,6432.267303394678
0.0030781821425650787,6700.745166725967
0.003199018284775064,6979.184927148545
0.0033245979322709396,7267.843149807073
0.003455107294592217,7566.971856436798
0.0035907398910610534,7876.816966237176
0.0037316968377327513,8197.619157906067
0.0038781871456107214,8529.609831933805
0.0040304280305680515,8873.01187225777
0.00418864523543527,9228.036185299468
0.004353073364731888,9594.877607771961
0.00452395623253805,9973.717532879476
0.004701547224022131,10364.719057619495
0.004886109671160325,10768.02678577614
0.005077917243205399,11183.760642805277
0.005277254352483535,11612.003493644388
0.005484416576121017,12052.81187462819
0.005699711094326071,12506.233710475646
0.005923457145875801,12972.30519378634
0.006155986501483508,13451.01090761627
0.006397643955748424,13942.205853545445
0.0066487878384172625,14445.675658276472
0.0069097905457156435,14961.205782598445
0.007181039092537346,15488.59476266526
0.007462935686310132,16027.583793773378
0.007755898323389004,16577.763501981695
0.00806036140886134,17138.623866994356
0.008376776400682916,17709.6167532716
0.008705612479099857,18290.180737189126
0.009047357242349292,18879.685803064374
0.00940251742967013,19477.344119030487
0.009771619672696168,20082.238131896807
0.010155211276345676,20693.349459209734
0.010553861030365234,21309.536029552226
0.010968160052731372,21929.553479105638
0.011398722666160517,22552.025874350875
0.011846187309026826,23175.448868738742
0.012311217482038896,23798.20317949542
0.012794502732078732,24418.519567510833
0.013296759674662111,25034.51210551883
0.013818733056536317,25644.13926348177
0.014361196859990781,26245.193875506913
0.014924955450518284,26835.35703645482
0.015510844769528393,27412.16562133618
0.016119733573881575,27973.050411247023
0.01675252472408214,28515.337868939656
0.017410156523040152,29036.241027596912
0.018093604107387147,29532.91510284433
0.01880388089340914,30002.470121764236
0.019542040079740527,30441.994902481652
0.02030917620904734,30848.60196870712
0.021106426791015535,31219.479659616107
0.021934973989050584,31551.888814345915
0.02279604637318978,31843.315231825374
0.023690920741826323,32091.473920527424
0.02462092401494623,32294.297737526387
0.02558743520168586,32450.178686192787
0.02659188744512693,32557.784888970342
0.027635770147361564,32616.46864408669
0.028720631177978267,32626.371371075435
0.029848079169243254,32587.92573468572
0.03101978590138095,32502.00709915079
0.03223748878149028,32369.797797397685
0.0335029934197723,32194.288300165863
0.03481817630688963,31981.4209861795
0.03618498759642746,31737.060040323548
0.037605453996581675,31463.4548070392
0.03908168177536263,31160.888809449953
0.04061585988376978,30832.0668308431
0.04221026320156896,30485.797101878146
0.04386725591048496,30131.41816994395
0.0455892949998106,29775.622025946337
0.047378933909631396,29422.93812420913
0.049238826317067365,29076.74919165594
0.05117173007114603,28737.642098196167
0.05318051128214196,28405.160795617874
0.05526814857144601,28075.445243326296
0.057437737488265785,27743.19635189779
0.0596924950997073,27401.371368379707
0.0620357647610427,27042.05087365175
0.06447102107323864,26656.170239670202
0.06700187503509585,26234.20051080827
0.06963207939763882,25765.863311883455
0.0723655342286965,25241.46343844199
0.07520629269592405,24652.81622172543
0.07815856707684081,23996.323996631898
0.08122673500479707,23274.630445105624
0.08441534596012978,22498.353099380747
0.0877291280161335,21686.14661883225
0.09117299484984914,20860.75451656559
0.09475205302806537,20048.610360419912
0.09847160957933764,19277.519105825686
0.1023371798632519,18563.31677778314
0.10635449574860109,17915.438639865333
0.11052951411260206,17338.301512607515
0.1148684256737553,16823.149804518653
0.1193776641714435,16347.861262213797
0.1240639159058831,15880.666541918536
0.12893412965257148,15387.75549453835
0.13399552696593373,14842.67132989225
0.1392556128874462,14233.746622919756
0.14472218707411338,13568.688321340534
0.15040335536380234,12874.629132159278
0.15630754179458153,12191.24120887352
0.16244350109588662,11558.95454664074
0.16882033167003618,11006.940589310918
0.17544748908334581,10540.907386242014
0.1823348000868439,10134.78954427509
0.189492477187382,9741.17753170276
0.19693113379074215,9318.865128636007
0.20466179993919872,8850.889734915801
0.21269593866686892,8349.825424057197
0.22104546299710207,7855.477921517436
0.22972275360711503,7409.396245553827
0.23874067718606454,7027.004650018097
0.2481126055137766,6693.41977962346
0.25785243528842716,6371.699052602699
0.26797460873256895,6030.177884430656
0.27849413500806414,5669.131045998305
0.28942661247167484,5319.32368421943
0.3007882518043098,5009.059916928019
0.31259590004822796,4735.779516911873
0.324867065587837,4475.840486243459
0.3376199441111335,4210.483465208417
0.35087344559027084,3945.8088087836977
0.36464722232127456,3700.6078731407406
0.37896169806447155,3480.7993611497836
0.3938380983288488,3272.1052104801756
0.4092984818452433,3065.6305493162326
0.4253657732750382,2868.3942246710635
0.44206379720285277,2687.0742665312814
0.45941731346364734,2517.581859820491
0.47745205385661277,2353.903455592448
0.4961947603002895,2199.0292887436085
0.5156732244854959,2055.2248890862033
0.5359163290848509,1919.3959250117302
0.556954090580013,1790.513780759993
0.5788177037701272,1670.070168291642
0.6015395880274836,1556.9428787621962
0.6251534353689703,1450.4023156362573
0.6496942604146115,1350.6025192982274
0.6751984523072497,1257.0720625927247
0.7017038286703824,1169.3408107919458
0.7292496916841444,1087.2505124095526
0.7578768863625915,1010.428234362574
0.7876278611187046,938.5856582297413
0.8185467307069019,871.4470788471127
0.850679341636415,808.7446007123177
0.8840733401525058,750.2196066749985
0.9187782428863317,695.6253429866402
0.9548455102782278,644.7267379017542
0.9923286228832539,597.3001133181
1.0312831606721837,553.1328793770587
1.0717668854455022,512.023217033058
1.1138398264826193,473.7797313529058
1.1575643695533022,438.22110236205225
1.2030053494233226,405.175731743103
1.2502301459914542,374.48138019343185
1.299308784200415,345.9846451942383
1.3503140378698726,319.5406124955916
1.4033215376054824,295.0127409640207
1.4584098829439835,272.2725023146802
1.5156607589006013,251.19900987388013
1.575159057091621,231.67863888257656
1.6369930016117014,213.60458356051842
1.7012542798525885,196.87661051335266
1.7680381784572046,181.40077493691365
1.8374437246107238,167.08908724065697
1.9095738328780953,153.85919140938265
1.9845354578058014,141.63404271123102
2.0624397525140905,130.34160231200403
2.143402233514853,119.91458212212142
2.227542951999554,110.29017368084912
2.314986671851158,101.40978524379398
2.405863054644063,93.21878706971599
2.5003068519063225,85.66622974517466
2.598458104929248,78.70464907190134
2.7004623524206774,72.28988769549014
2.806470846309834,66.38088617899044
2.916640776023701,60.939484621879515
3.031135501567576,55.93023301509027
3.150124795755327,51.32021015386059
3.2737850959485697,47.078864691653564
3.4022997656780634,43.17785922944921
3.5358593665351745,39.59092170248878
3.6746619407366854,36.29370522024815
3.8189133047818515,33.2636464760632
3.968827354637162,30.47984584162394
4.1246263829013445,27.92296524147222
4.286541408420921,25.575119046726602
4.4548125188449825,23.419771293796057
4.629689226627261,21.441639493793886
4.811430839003257,19.626604457935848
5.000306842491082,17.96162694751889
5.196597302486189,16.434669599385845
5.400593278542364,15.034623880000963
5.612597255954967,13.751241927206765
5.8329235942862,12.575067957203128
6.06189899349756,11.497377754579288
6.29986297838068,10.510133892653307
6.547168402004727,9.60593472259739
6.804181968927091,8.77796599000235
7.071284778942991,8.019957124677966
7.348872892180382,7.326149155400242
7.637357916378006,6.691247298167764
7.937167617217536,6.11037808357911
8.248746552614573,5.579057353422734
8.572556731909314,5.093160601374657
8.909078300934132,4.648884121305503
9.258810253973934,4.2427049894238
9.622271173675122,3.871391803394557
9.999999999999984,3.5319862940868845
