k [1/Mpc],P(k) [Mpc^3]
0.0001,146.4370120150592
0.00010392556829367125,153.06225204307208
0.00010800523745162529,159.98683830655278
0.00011224505680853065,167.22424621522805
0.00011665131316981963,174.78855254838126
0.00012123054013376525,182.6944620256304
0.00012598952777950273,190.95733222377365
0.00013093533273536104,199.59320469516538
0.00013607528864243335,208.618824438985
0.00014141701702890234,218.0516699516184
0.00014696843861124463,227.9099938453065
0.00015273778503907136,238.21285375717028
0.00015873361110102093,248.980149642941
0.00016496480740980205,260.23265853212945
0.0001714406135851971,271.9920709157764
0.00017817063195457305,284.28102906056466
0.00018516484179121546,297.1231361081752
0.000192433614111598,310.54301169148675
0.00019998772705352857,324.5663492150564
0.0002078383818579757,339.21996031104374
0.00021599721947827182,354.5318214172399
0.0002244763378413224,370.5310964549341
0.0002332883097864157,387.24819049544226
0.00024244620170823283,404.7148033294787
0.0002519635929317015,422.9639409359372
0.0002618545958474233,442.03000450269866
0.0002721338768375308,461.948837733819
0.0002828166780230032,482.75777971431154
0.0002939188398646886,504.4957344533148
0.0003054568246515432,527.2031889532178
0.00031744774091091926,550.9223014955406
0.00032990936877709396,575.6969202532626
0.00034286018635565856,601.5725942194922
0.00035631939712285854,628.5967184660047
0.000370306958400514,656.8185892225017
0.00038484361094874304,686.2894808657488
0.0003999509097203664,717.0626681873067
0.00041565125582259895,749.1933861979028
0.00043196792973341727,782.7390078493885
0.0004489251258218605,817.759039625768
0.0004665479882234472,854.3151917043657
0.000484862648123908,892.4715067231956
0.000503896262506515,932.2943704662315
0.0005236770544204653,973.852628424439
0.0005442343548300266,1017.217500960364
0.0005655986461065005,1062.4625674930396
0.0005878016072274912,1109.6639959766649
0.0006108761607505036,1158.900455999616
0.0006348565216305217,1210.2532625681456
0.0006597782479539537,1263.8063995613104
0.0006856782936641739,1319.6464477694424
0.0007125950633568407,1377.8627700662223
0.0007405684692262436,1438.5471809940989
0.0007696399902471156,1501.7940658479827
0.0007998527336796708,1567.7005229989563
0.000831251498989063,1636.3660665272719
0.0008638828442740447,1707.8929159341778
0.000897795155303332,1782.385606646061
0.0009330387172620361,1859.9508981398951
0.0009696657893145519,1940.6979944401662
0.001007730682094461,2024.7377599881845
0.0010472898382363582,2112.183147378074
0.0010884019160690055,2203.149027967725
0.0011311278765939214,2297.7518450768475
0.001175531073878369,2396.1098304432717
0.0012216773489967915,2498.3419276467503
0.0012696351276599736,2604.5680121831965
0.0013194755216767058,2714.9087604887104
0.0013712724343984,2829.4847446851463
0.0014251026703029975,2948.4168988043057
0.0014810460488806749,3071.8252877460855
0.0015391855229902056,3199.8288822512204
0.001599607301861487,3332.5456773478013
0.0016624009789266115,3470.0913131346606
0.0017276596646690358,3612.579467594689
0.0017954801246878305,3760.1206213079713
0.0018659629231817451,3912.8211873895666
0.001939212572065829,4070.7837917159673
0.0020153376859417325,4234.105109039739
0.002094451143151469,4402.876170434945
0.002176670253153458,4577.181329869915
0.002262116930469025,4757.096510572004
0.002350917875457286,4942.689830262688
0.002443204762186487,5134.019304952678
0.0025391144336803463,5331.132520101204
0.002638789104828933,5534.065556849888
0.002742376573264949,5742.8395777927735
0.0028500304385181063,5957.462247733891
0.0029619103297725525,6177.924638096293
0.0030781821425650787,6404.200028910958
0.003199018284775064,6636.243776103695
0.0033245979322709396,6873.987136254952
0.003455107294592217,7117.339823956359
0.0035907398910610534,7366.188480060766
0.0037316968377327513,7620.394390754149
0.0038781871456107214,7879.792020234272
0.0040304280305680515,8144.16836933825
0.00418864523543527,8413.27094868443
0.004353073364731888,8686.833030364274
0.00452395623253805,8964.5959541372
0.004701547224022131,9246.270772413443
0.004886109671160325,9531.417289707035
0.005077917243205399,9819.462393326652
0.005277254352483535,10109.813895099922
0.005484416576121017,10401.959350317984
0.005699711094326071,10695.37466091324
0.005923457145875801,10989.391267694717
0.006155986501483508,11283.172921787738
0.006397643955748424,11575.83663490011
0.0066487878384172625,11866.537497748286
0.0069097905457156435,12154.41880807489
0.007181039092537346,12438.501753207185
0.007462935686310132,12717.622768791072
0.007755898323389004,12990.544834124661
0.00806036140886134,13255.903476152247
0.008376776400682916,13512.24173978591
0.008705612479099857,13758.03353761979
0.009047357242349292,13991.651627684938
0.00940251742967013,14211.420788508603
0.009771619672696168,14415.519476627918
0.010155211276345676,14602.006702618477
0.010553861030365234,14768.892395237095
0.010968160052731372,14914.009360472266
0.011398722666160517,15035.170733262163
0.011846187309026826,15130.104292220693
0.012311217482038896,15196.438583601761
0.012794502732078732,15231.868602424107
0.013296759674662111,15233.95238325206
0.013818733056536317,15200.330011881259
0.014361196859990781,15128.723294718016
0.014924955450518284,15016.824307659124
0.015510844769528393,14862.642188636555
0.016119733573881575,14664.253826189479
0.01675252472408214,14420.034873567121
0.017410156523040152,14128.822774424563
0.018093604107387147,13789.652948584966
0.01880388089340914,13402.286829948549
0.019542040079740527,12966.985919044453
0.02030917620904734,12484.639367129135
0.021106426791015535,11957.134783448844
0.021934973989050584,11386.959819372807
0.02279604637318978,10777.703142746532
0.023690920741826323,10133.919654426583
0.02462092401494623,9460.989453486816
0.02558743520168586,8765.478309320617
0.02659188744512693,8054.821891598786
0.027635770147361564,7337.251899978263
0.028720631177978267,6621.613845978929
0.029848079169243254,5917.016030740322
0.03101978590138095,5232.548379228076
0.03223748878149028,4577.970432914659
0.0335029934197723,3962.304557935002
0.03481817630688963,3392.6133091070255
0.03618498759642746,2874.3264277873504
0.037605453996581675,2410.6107973590324
0.03908168177536263,2006.0238874678391
0.04061585988376978,1663.2522324925212
0.04221026320156896,1380.6081824883966
0.04386725591048496,1153.999499287164
0.0455892949998106,978.2156287427831
0.047378933909631396,849.0009409531061
0.049238826317067365,761.3931277943237
0.05117173007114603,711.0487953450593
0.05318051128214196,694.3867069912262
0.05526814857144601,709.0348148939798
0.057437737488265785,752.5831685914676
0.0596924950997073,822.3341476318295
0.0620357647610427,913.4332827802615
0.06447102107323864,1018.0803350950578
0.06700187503509585,1124.7206826215443
0.06963207939763882,1218.5174805072038
0.0723655342286965,1282.8258166943162
0.07520629269592405,1301.8968909068726
0.07815856707684081,1264.4011001271006
0.08122673500479707,1167.3233881878757
0.08441534596012978,1018.4771642752885
0.0877291280161335,836.1064195769271
0.09117299484984914,644.8453479490736
0.09475205302806537,469.21816246240684
0.09847160957933764,327.3760680078194
0.1023371798632519,227.5528991684606
0.10635449574860109,168.71148473587732
0.11052951411260206,145.0058162390978
0.1148684256737553,151.34720358495335
0.1193776641714435,185.6351240830534
0.1240639159058831,244.82969095162375
0.12893412965257148,317.2098414115019
0.13399552696593373,378.7085701252803
0.1392556128874462,401.4529472846321
0.14472218707411338,370.5065995431357
0.15040335536380234,294.45179446513515
0.15630754179458153,202.16988452325174
0.16244350109588662,125.79612011596575
0.16882033167003618,81.36695984170613
0.17544748908334581,67.81234694676375
0.1823348000868439,80.27576072712095
0.189492477187382,113.91628020688538
0.19693113379074215,153.0501308706891
0.20466179993919872,169.8163269924873
0.21269593866686892,147.46473462071054
0.22104546299710207,101.08715286086353
0.22972275360711503,61.28266088313316
0.23874067718606454,44.04524444641273
0.2481126055137766,48.7058415468608
0.25785243528842716,68.12223007765894
0.26797460873256895,84.04486547113734
0.27849413500806414,76.57844059397736
0.28942661247167484,52.2627650399076
0.3007882518043098,34.13037701251822
0.31259590004822796,32.00453768059959
0.324867065587837,41.42943362728969
0.3376199441111335,47.657594516561225
0.35087344559027084,39.15585620663451
0.36464722232127456,26.67646606079972
0.37896169806447155,23.30671206123367
0.3938380983288488,27.777720784251144
0.4092984818452433,28.92354626624353
0.4253657732750382,22.31910193447824
0.44206379720285277,17.718521297210867
0.45941731346364734,18.969695838793893
0.47745205385661277,19.41173177719609
0.4961947603002895,15.6030882555816
0.5156732244854959,13.587072271180176
0.5359163290848509,13.995477285412814
0.556954090580013,13.30987819564275
0.5788177037701272,12.171227077559257
0.6015395880274836,10.903453958564228
0.6251534353689703,9.717842295079185
0.6496942604146115,8.733511251962257
0.6751984523072497,7.9281096522499315
0.7017038286703824,7.251276294502193
0.7292496916841444,6.665350997691351
0.7578768863625915,6.141791739278343
0.7876278611187046,5.658913655000552
0.8185467307069019,5.20496161638863
0.850679341636415,4.779610812296856
0.8840733401525058,4.383227984005337
0.9187782428863317,4.015670667874663
0.9548455102782278,3.676381746586551
0.9923286228832539,3.364443767162055
1.0312831606721837,3.0782417547062737
1.0717668854455022,2.815821809952492
1.1138398264826193,2.5753455189939936
1.1575643695533022,2.3550960874089935
1.2030053494233226,2.153473086858207
1.2502301459914542,1.9689701727618243
1.299308784200415,1.800122520571201
1.3503140378698726,1.6455756483267694
1.4033215376054824,1.5040979401087349
1.4584098829439835,1.374568787199697
1.5156607589006013,1.2559681811964365
1.575159057091621,1.14738098515239
1.6369930016117014,1.047990016457256
1.7012542798525885,0.9570431825349831
1.7680381784572046,0.8738466373027398
1.8374437246107238,0.7977606435711811
1.9095738328780953,0.7281952711526329
1.9845354578058014,0.6646031393013355
2.0624397525140905,0.606479254086957
2.143402233514853,0.5533606246153244
2.227542951999554,0.5048228609639343
2.314986671851158,0.4604770047442575
2.405863054644063,0.41996687734983834
2.5003068519063225,0.38296688436812343
2.598458104929248,0.34917861230405495
2.7004623524206774,0.3183284232915499
2.806470846309834,0.290165458099608
2.916640776023701,0.26445978921718405
3.031135501567576,0.24100055946071278
3.150124795755327,0.2195944483606348
3.2737850959485697,0.2000644725280786
3.4022997656780634,0.18224864622004205
3.5358593665351745,0.16599873486178482
3.6746619407366854,0.15117912554154866
3.8189133047818515,0.13766587091282317
3.968827354637162,0.12534561781486953
4.1246263829013445,0.11411465996235835
4.286541408420921,0.1038781359312929
4.4548125188449825,0.09454929221639478
4.629689226627261,0.08604876686288289
4.811430839003257,0.078303923159413
5.000306842491082,0.07124839239512572
5.196597302486189,0.06482155892274104
5.400593278542364,0.05896806849233259
5.612597255954967,0.05363737885007239
5.8329235942862,0.04878336562771452
6.06189899349756,0.04436393649458283
6.29986297838068,0.040340663253012304
6.547168402004727,0.0366784672855568
6.804181968927091,0.03334533239848916
7.071284778942991,0.03031204486394575
7.348872892180382,0.027551965766992613
7.637357916378006,0.025040793151115275
7.937167617217536,0.02275635349702614
8.248746552614573,0.02067841880649519
8.572556731909314,0.01878853885250964
8.909078300934132,0.01706985487247282
9.258810253973934,0.015506939794174526
9.622271173675122,0.014085747486504475
9.999999999999984,0.01279349777032029
