k [1/Mpc],P(k) [Mpc^3]
0.0001,224.16187400288575
0.00010392556829367125,233.63308148128658
0.00010800523745162529,243.50429928342646
0.00011224505680853065,253.79239280215302
0.00011665131316981963,264.51493414927535
0.00012123054013376525,275.6902386836147
0.00012598952777950273,287.33739560770084
0.00013093533273536104,299.4762948434448
0.00013607528864243335,312.127653832163
0.00014141701702890234,325.3130577372252
0.00014696843861124463,339.05500116873367
0.00015273778503907136,353.37692747732996
0.00015873361110102093,368.30326155093184
0.00016496480740980205,383.8594330848026
0.0001714406135851971,400.0719279760291
0.00017817063195457305,416.96834227155034
0.00018516484179121546,434.57743141366046
0.000192433614111598,452.9291522899215
0.00019998772705352857,472.0546946082797
0.0002078383818579757,491.98653611783334
0.00021599721947827182,512.7585047987203
0.0002244763378413224,534.4058301305538
0.0002332883097864157,556.9652045009178
0.00024244620170823283,580.4748359523054
0.0002519635929317015,604.9745088183992
0.0002618545958474233,630.5056483135378
0.0002721338768375308,657.111353690575
0.0002828166780230032,684.8364880259862
0.0002939188398646886,713.7277558404513
0.0003054568246515432,743.833772734956
0.00031744774091091926,775.2051439712898
0.00032990936877709396,807.8944929931247
0.00034286018635565856,841.9565602496098
0.00035631939712285854,877.44830459426
0.000370306958400514,914.428972180857
0.00038484361094874304,952.9602041359166
0.0003999509097203664,993.1060940651948
0.00041565125582259895,1034.9332830829596
0.00043196792973341727,1078.5110598822582
0.0004489251258218605,1123.911351664831
0.0004665479882234472,1171.2089069088486
0.000484862648123908,1220.4814261853796
0.000503896262506515,1271.809667375136
0.0005236770544204653,1325.2775495038632
0.0005442343548300266,1380.9721190730334
0.0005655986461065005,1438.9837336514195
0.0005878016072274912,1499.4062026825789
0.0006108761607505036,1562.3368425585081
0.0006348565216305217,1627.8766723770786
0.0006597782479539537,1696.1304074838092
0.0006856782936641739,1767.206605548367
0.0007125950633568407,1841.2178502007448
0.0007405684692262436,1918.2807444752023
0.0007696399902471156,1998.5161563397626
0.0007998527336796708,2082.0491952621537
0.000831251498989063,2169.009279491149
0.0008638828442740447,2259.530418289881
0.000897795155303332,2353.751071053779
0.0009330387172620361,2451.8144369827037
0.0009696657893145519,2553.8684884079676
0.001007730682094461,2660.0658731573285
0.0010472898382363582,2770.5643127667167
0.0010884019160690055,2885.526293054861
0.0011311278765939214,3005.1192954134785
0.001175531073878369,3129.5159317809944
0.0012216773489967915,3258.8934588215375
0.0012696351276599736,3393.4343946886943
0.0013194755216767058,3533.326157668257
0.0013712724343984,3678.7610432753763
0.0014251026703029975,3829.936571413386
0.0014810460488806749,3987.05453899989
0.0015391855229902056,4150.321684039721
0.001599607301861487,4319.949391964448
0.0016624009789266115,4496.153183486642
0.0017276596646690358,4679.153349813979
0.0017954801246878305,4869.173578428918
0.0018659629231817451,5066.441357568376
0.001939212572065829,5271.187945896165
0.0020153376859417325,5483.647102285783
0.002094451143151469,5704.055998539569
0.002176670253153458,5932.653711588923
0.002262116930469025,6169.680956148535
0.002350917875457286,6415.380372929929
0.002443204762186487,6669.99416490099
0.0025391144336803463,6933.7651690626135
0.002638789104828933,7206.93536440169
0.002742376573264949,7489.744504727576
0.0028500304385181063,7782.430982525945
0.0029619103297725525,8085.2284792766195
0.0030781821425650787,8398.366589409643
0.003199018284775064,8722.069367232876
0.0033245979322709396,9056.551825425768
0.003455107294592217,9402.021980770769
0.0035907398910610534,9758.676722253453
0.0037316968377327513,10126.701250554386
0.0038781871456107214,10506.268574565542
0.0040304280305680515,10897.53330525735
0.00418864523543527,11300.634357179388
0.004353073364731888,11715.689106748325
0.00452395623253805,12142.790113928395
0.004701547224022131,12582.007897123773
0.004886109671160325,13033.382922146455
0.005077917243205399,13496.927485491158
0.005277254352483535,13972.614815940911
0.005484416576121017,14460.365517305045
0.005699711094326071,14960.063522560573
0.005923457145875801,15471.57041778095
0.006155986501483508,15994.719511027595
0.006397643955748424,16529.27114379545
0.0066487878384172625,17074.83612831484
0.0069097905457156435,17630.945985978502
0.007181039092537346,18197.093248074096
0.007462935686310132,18772.73198542436
0.007755898323389004,19357.24880231034
0.00806036140886134,19949.94031073166
0.008376776400682916,20550.023881388814
0.008705612479099857,21156.594285469713
0.009047357242349292,21768.58900139918
0.00940251742967013,22384.842808066398
0.009771619672696168,23004.044630429158
0.010155211276345676,23624.75716071196
0.010553861030365234,24245.412247214674
0.010968160052731372,24864.263233387992
0.011398722666160517,25479.43946199223
0.011846187309026826,26088.88388006593
0.012311217482038896,26690.363560290014
0.012794502732078732,27281.50443374562
0.013296759674662111,27859.698754478424
0.013818733056536317,28422.19824517663
0.014361196859990781,28966.062006955188
0.014924955450518284,29488.133068511976
0.015510844769528393,29985.14597134181
0.016119733573881575,30453.61770850353
0.01675252472408214,30889.951876868145
0.017410156523040152,31290.447708373857
0.018093604107387147,31651.2347790067
0.01880388089340914,31968.448054876117
0.019542040079740527,32238.164090474453
0.02030917620904734,32456.482921875737
0.021106426791015535,32619.63312483519
0.021934973989050584,32723.938557137182
0.02279604637318978,32765.969792309606
0.023690920741826323,32742.64877136246
0.02462092401494623,32651.308580975317
0.02558743520168586,32489.75903156965
0.02659188744512693,32256.4907213908
0.027635770147361564,31950.60249703183
0.028720631177978267,31572.18872762101
0.029848079169243254,31122.65249506202
0.03101978590138095,30604.048694505625
0.03223748878149028,30019.31013712121
0.0335029934197723,29372.050600024304
0.03481817630688963,28667.838259863962
0.03618498759642746,27916.71919699379
0.037605453996581675,27129.026404624252
0.03908168177536263,26312.35611887155
0.04061585988376978,25471.95249340827
0.04221026320156896,24614.461221865105
0.04386725591048496,23753.692073521142
0.0455892949998106,22904.11850491325
0.047378933909631396,22078.578009030003
0.049238826317067365,21288.345281775895
0.05117173007114603,20542.983217176345
0.05318051128214196,19850.49025255374
0.05526814857144601,19216.68252122406
0.057437737488265785,18643.954146578195
0.0596924950997073,18132.52519834807
0.0620357647610427,17679.44155135285
0.06447102107323864,17278.948839017514
0.06700187503509585,16921.986729284057
0.06963207939763882,16595.830964278615
0.0723655342286965,16284.583333727778
0.07520629269592405,15968.50740869379
0.07815856707684081,15625.797483279866
0.08122673500479707,15234.664581961693
0.08441534596012978,14776.153169879715
0.0877291280161335,14237.700453544932
0.09117299484984914,13616.018112568927
0.09475205302806537,12918.436316838704
0.09847160957933764,12164.795500549277
0.1023371798632519,11379.96157042017
0.10635449574860109,10595.403707690746
0.11052951411260206,9848.40354789151
0.1148684256737553,9175.451464381431
0.1193776641714435,8606.008128447129
0.1240639159058831,8156.302693652641
0.12893412965257148,7825.592946144171
0.13399552696593373,7595.171035900934
0.1392556128874462,7429.624072318803
0.14472218707411338,7280.773832771709
0.15040335536380234,7096.025763679521
0.15630754179458153,6831.3287391733975
0.16244350109588662,6465.125938243054
0.16882033167003618,6008.016290034557
0.17544748908334581,5503.699349284712
0.1823348000868439,5016.435057901794
0.189492477187382,4606.817866986125
0.19693113379074215,4309.778421928116
0.20466179993919872,4125.699504522258
0.21269593866686892,4018.1519392785744
0.22104546299710207,3920.794248446833
0.22972275360711503,3765.9970760207834
0.23874067718606454,3522.8055303174156
0.2481126055137766,3215.553114646932
0.25785243528842716,2911.007198022855
0.26797460873256895,2675.1377955646153
0.27849413500806414,2531.6719679923176
0.28942661247167484,2448.95433049414
0.3007882518043098,2359.762525079976
0.31259590004822796,2212.830068100549
0.324867065587837,2016.8655334694888
0.3376199441111335,1831.7882245794985
0.35087344559027084,1705.9365418662187
0.36464722232127456,1630.9749956568483
0.37896169806447155,1554.4696900918368
0.3938380983288488,1440.0210449501203
0.4092984818452433,1310.2826391809947
0.4253657732750382,1211.05831497418
0.44206379720285277,1146.623933860299
0.45941731346364734,1080.1585545849453
0.47745205385661277,993.0518000976058
0.4961947603002895,911.1440509481048
0.5156732244854959,853.1526524294723
0.5359163290848509,799.7375404302754
0.556954090580013,736.2507733292848
0.5788177037701272,678.8497118777819
0.6015395880274836,634.1084841066975
0.6251534353689703,587.902653032776
0.6496942604146115,541.1880846666128
0.6751984523072497,502.6368150554395
0.7017038286703824,465.6309699454463
0.7292496916841444,429.3435161031705
0.7578768863625915,397.6608105681748
0.7876278611187046,368.20127449484903
0.8185467307069019,340.32188461340195
0.850679341636415,314.1192952066032
0.8840733401525058,289.6472425508265
0.9187782428863317,266.9218524423215
0.9548455102782278,245.92832730562432
0.9923286228832539,226.59832356350114
1.0312831606721837,208.78746409046084
1.0717668854455022,192.3563735311132
1.1138398264826193,177.1813558352005
1.1575643695533022,163.1524437801017
1.2030053494233226,150.17208510259377
1.2502301459914542,138.16212765351267
1.299308784200415,127.05945259989927
1.3503140378698726,116.8042234120325
1.4033215376054824,107.33939544980825
1.4584098829439835,98.6107380484702
1.5156607589006013,90.56654107526923
1.575159057091621,83.15595408121152
1.6369930016117014,76.33075680111594
1.7012542798525885,70.04627745786081
1.7680381784572046,64.2611438716586
1.8374437246107238,58.937046796505
1.9095738328780953,54.03864094233212
1.9845354578058014,49.53350275829332
2.0624397525140905,45.39156931476275
2.143402233514853,41.58491824072489
2.227542951999554,38.08763124122987
2.314986671851158,34.875663170787796
2.405863054644063,31.92667238855504
2.5003068519063225,29.21991543192859
2.598458104929248,26.736205326573646
2.7004623524206774,24.457805782089682
2.806470846309834,22.368328070427616
2.916640776023701,20.452635563586956
3.031135501567576,18.696760247825797
3.150124795755327,17.087812001528146
3.2737850959485697,15.613895624474305
3.4022997656780634,14.264038416811431
3.5358593665351745,13.02812264518311
3.6746619407366854,11.896820305472994
3.8189133047818515,10.86153037526812
3.968827354637162,9.914332170274227
4.1246263829013445,9.0479356760807
4.286541408420921,8.255633554556685
4.4548125188449825,7.531256600121942
4.629689226627261,6.869132825344341
4.811430839003257,6.264049097983185
5.000306842491082,5.711214899858336
5.196597302486189,5.206229412317079
5.400593278542364,4.745051078259809
5.612597255954967,4.32396914614644
5.8329235942862,3.939575202621284
6.06189899349756,3.5887411871067845
6.29986297838068,3.2685989432298723
6.547168402004727,2.9765193077482297
6.804181968927091,2.710092792745507
7.071284778942991,2.467112739767694
7.348872892180382,2.2455611711634402
7.637357916378006,2.0435896882378732
7.937167617217536,1.8595047496796129
8.248746552614573,1.6917551881697042
8.572556731909314,1.5389206080985205
8.909078300934132,1.3996959699328484
9.258810253973934,1.2728810642402544
9.622271173675122,1.1573804429118149
9.999999999999984,1.052195006010131
