k [1/Mpc],P(k) [Mpc^3]
0.0001,30.86235859503644
0.00010392556829367125,32.25937316279717
0.00010800523745162529,33.71959724802155
0.00011224505680853065,35.24589059629522
0.00011665131316981963,36.84124161366653
0.00012123054013376525,38.508769521797745
0.00012598952777950273,40.251732734607494
0.00013093533273536104,42.073537990343695
0.00013607528864243335,43.97774802301839
0.00014141701702890234,45.968086021125515
0.00014696843861124463,48.04843927655595
0.00015273778503907136,50.22286811614522
0.00015873361110102093,52.495616319629214
0.00016496480740980205,54.871120783095165
0.0001714406135851971,57.35401811621773
0.00017817063195457305,59.949150860644984
0.00018516484179121546,62.66157716982493
0.000192433614111598,65.49658101161026
0.00019998772705352857,68.45967995940545
0.0002078383818579757,71.55663774920494
0.00021599721947827182,74.79347816339514
0.0002244763378413224,78.17649691321604
0.0002332883097864157,81.71226994346736
0.00024244620170823283,85.40765896827706
0.0002519635929317015,89.26982864636446
0.0002618545958474233,93.30626166955389
0.0002721338768375308,97.52477241214166
0.0002828166780230032,101.9335216141883
0.0002939188398646886,106.54102887896686
0.0003054568246515432,111.35618948804547
0.00031744774091091926,116.38828883871139
0.00032990936877709396,121.64701512997372
0.00034286018635565856,127.1424812738205
0.00035631939712285854,132.8852361233771
0.000370306958400514,138.88628446524896
0.00038484361094874304,145.1571112465472
0.0003999509097203664,151.7097013932974
0.00041565125582259895,158.55656089003764
0.00043196792973341727,165.71072302570118
0.0004489251258218605,173.18576762401122
0.0004665479882234472,180.99585746718864
0.000484862648123908,189.1557609534435
0.000503896262506515,197.68087805729036
0.0005236770544204653,206.58725078666353
0.0005442343548300266,215.8915784283424
0.0005655986461065005,225.6112620016522
0.0005878016072274912,235.76442184679777
0.0006108761607505036,246.36993111331458
0.0006348565216305217,257.4474400617978
0.0006597782479539537,269.01739072884106
0.0006856782936641739,281.10106312276247
0.0007125950633568407,293.72057588461223
0.0007405684692262436,306.8989226760338
0.0007696399902471156,320.6600205666867
0.0007998527336796708,335.028727104653
0.000831251498989063,350.0308869575439
0.0008638828442740447,365.693319455241
0.000897795155303332,382.04384136598554
0.0009330387172620361,399.111339214719
0.0009696657893145519,416.9257678066125
0.001007730682094461,435.51820893964066
0.0010472898382363582,454.9208637882758
0.0010884019160690055,475.1670461642437
0.0011311278765939214,496.2912731280559
0.001175531073878369,518.3292034911825
0.0012216773489967915,541.3177091315798
0.0012696351276599736,565.2949039844797
0.0013194755216767058,590.3000970505814
0.0013712724343984,616.3738967539925
0.0014251026703029975,643.5581036429343
0.0014810460488806749,671.8957498372871
0.0015391855229902056,701.4311599949651
0.001599607301861487,732.2098080239019
0.0016624009789266115,764.2784609144766
0.0017276596646690358,797.6850788535828
0.0017954801246878305,832.4787818948734
0.0018659629231817451,868.7099371088833
0.001939212572065829,906.4299058076084
0.0020153376859417325,945.6911836146134
0.002094451143151469,986.5472555403527
0.002176670253153458,1029.0524008199195
0.002262116930469025,1073.2619023608197
0.002350917875457286,1119.2317816075029
0.002443204762186487,1167.0188407961653
0.0025391144336803463,1216.6805286860954
0.002638789104828933,1268.2745571165253
0.002742376573264949,1321.8591326431292
0.0028500304385181063,1377.492492423903
0.0029619103297725525,1435.2328335239636
0.0030781821425650787,1495.138342165382
0.003199018284775064,1557.2666505001625
0.0033245979322709396,1621.6750059501212
0.003455107294592217,1688.4196421654044
0.0035907398910610534,1757.5554311363705
0.0037316968377327513,1829.1360755394173
0.0038781871456107214,1903.2132078030118
0.0040304280305680515,1979.8365600557959
0.00418864523543527,2059.053191881376
0.004353073364731888,2140.9065772267413
0.00452395623253805,2225.4371903866004
0.004701547224022131,2312.6814232201205
0.004886109671160325,2402.671541192812
0.005077917243205399,2495.434303290848
0.005277254352483535,2590.9881991809993
0.005484416576121017,2689.3458438246853
0.005699711094326071,2790.5179306721225
0.005923457145875801,2894.5125353838544
0.006155986501483508,3001.3262179746944
0.006397643955748424,3110.9266249239713
0.0066487878384172625,3223.265923083504
0.0069097905457156435,3338.296242284806
0.007181039092537346,3455.972629867631
0.007462935686310132,3576.2373386970326
0.007755898323389004,3698.999025099971
0.00806036140886134,3824.143888166153
0.008376776400682916,3951.5496223248083
0.008705612479099857,4081.0909570327376
0.009047357242349292,4212.627316789792
0.00940251742967013,4345.982912545351
0.009771619672696168,4480.95301050904
0.010155211276345676,4617.310378840893
0.010553861030365234,4754.800186962724
0.010968160052731372,4893.1447797763985
0.011398722666160517,5032.037145015445
0.011846187309026826,5171.141617593424
0.012311217482038896,5310.096886685686
0.012794502732078732,5448.50818168626
0.013296759674662111,5585.9546953422205
0.013818733056536317,5721.980900729326
0.014361196859990781,5856.094312568449
0.014924955450518284,5987.777513184457
0.015510844769528393,6116.480905104024
0.016119733573881575,6241.63121810165
0.01675252472408214,6362.631905383091
0.017410156523040152,6478.861110596108
0.018093604107387147,6589.684076547638
0.01880388089340914,6694.455963117736
0.019542040079740527,6792.527197828416
0.02030917620904734,6883.253497632788
0.021106426791015535,6966.007496200791
0.021934973989050584,7040.178004130457
0.02279604637318978,7105.204027334131
0.023690920741826323,7160.575715286444
0.02462092401494623,7205.831826055339
0.02558743520168586,7240.613567095362
0.02659188744512693,7264.623756354083
0.027635770147361564,7277.717872031304
0.028720631177978267,7279.927469090209
0.029848079169243254,7271.349088085563
0.03101978590138095,7252.1780491789195
0.03223748878149028,7222.678166505638
0.0335029934197723,7183.516704280731
0.03481817630688963,7136.019586420587
0.03618498759642746,7081.4952894377275
0.037605453996581675,7020.445709917543
0.03908168177536263,6952.934110419983
0.04061585988376978,6879.564009673113
0.04221026320156896,6802.30078959461
0.04386725591048496,6723.228161758902
0.0455892949998106,6643.839311168523
0.047378933909631396,6565.144895692125
0.049238826317067365,6487.899703729918
0.05117173007114603,6412.234683658771
0.05318051128214196,6338.0480773681165
0.05526814857144601,6264.478593381869
0.057437737488265785,6190.343845028288
0.0596924950997073,6114.072381713164
0.0620357647610427,6033.897142179903
0.06447102107323864,5947.795534521421
0.06700187503509585,5853.641361342669
0.06963207939763882,5749.141207143109
0.0723655342286965,5632.131779400299
0.07520629269592405,5500.786831663404
0.07815856707684081,5354.303616342085
0.08122673500479707,5193.272018611939
0.08441534596012978,5020.06113014075
0.0877291280161335,4838.83336806237
0.09117299484984914,4654.663496098362
0.09475205302806537,4473.449640473965
0.09847160957933764,4301.395925347301
0.1023371798632519,4142.035845512787
0.10635449574860109,3997.4746928425197
0.11052951411260206,3868.6979932098784
0.1148684256737553,3753.7521100832732
0.1193776641714435,3647.7009015220774
0.1240639159058831,3543.455668762095
0.12893412965257148,3433.472347821223
0.13399552696593373,3311.847630869366
0.1392556128874462,3175.9781634842575
0.14472218707411338,3027.5835981448427
0.15040335536380234,2872.71806011034
0.15630754179458153,2720.233603344086
0.16244350109588662,2579.1513791403695
0.16882033167003618,2455.980416437198
0.17544748908334581,2351.994353201948
0.1823348000868439,2261.3772140847336
0.189492477187382,2173.550502683124
0.19693113379074215,2079.3198685541706
0.20466179993919872,1974.9004440078565
0.21269593866686892,1863.0978840813134
0.22104546299710207,1752.7940466706405
0.22972275360711503,1653.2597708736002
0.23874067718606454,1567.9366729222993
0.2481126055137766,1493.503827368051
0.25785243528842716,1421.7182300248392
0.26797460873256895,1345.5145570765321
0.27849413500806414,1264.9541181960376
0.28942661247167484,1186.9015455412175
0.3007882518043098,1117.6723414572298
0.31259590004822796,1056.6952420362
0.324867065587837,998.6950044943292
0.3376199441111335,939.4858498942701
0.35087344559027084,880.4289514189918
0.36464722232127456,825.717227380434
0.37896169806447155,776.6713188979036
0.3938380983288488,730.1053596369533
0.4092984818452433,684.03463542485
0.4253657732750382,640.0252627196858
0.44206379720285277,599.5673114218496
0.45941731346364734,561.748443568528
0.47745205385661277,525.2268550202854
0.4961947603002895,490.6697573684492
0.5156732244854959,458.58265864284357
0.5359163290848509,428.27512013611107
0.556954090580013,399.5176266489479
0.5788177037701272,372.6430241100292
0.6015395880274836,347.4009138801662
0.6251534353689703,323.62850096757154
0.6496942604146115,301.36015642788635
0.6751984523072497,280.49069064443177
0.7017038286703824,260.9152023801017
0.7292496916841444,242.59838095540587
0.7578768863625915,225.45701375181636
0.7876278611187046,209.42676823382163
0.8185467307069019,194.44612626403764
0.850679341636415,180.4553122761174
0.8840733401525058,167.3966209838845
0.9187782428863317,155.2149941839155
0.9548455102782278,143.85798027999317
0.9923286228832539,133.27566994134295
1.0312831606721837,123.42062795876524
1.0717668854455022,114.2478224163005
1.1138398264826193,105.71454733185394
1.1575643695533022,97.78034475046618
1.2030053494233226,90.40692591209583
1.2502301459914542,83.55809033516549
1.299308784200415,77.19960929108808
1.3503140378698726,71.29914804006872
1.4033215376054824,65.82624013712919
1.4584098829439835,60.752207045488326
1.5156607589006013,56.05007530228589
1.575159057091621,51.69449179683956
1.6369930016117014,47.66162493829714
1.7012542798525885,43.92910963332443
1.7680381784572046,40.47598396272282
1.8374437246107238,37.282614795062756
1.9095738328780953,34.33062601948347
1.9845354578058014,31.602826632626535
2.0624397525140905,29.083142597880418
2.143402233514853,26.756559913041
2.227542951999554,24.609064116206003
2.314986671851158,22.62758162206563
2.405863054644063,20.79992288770811
2.5003068519063225,19.11471956235301
2.598458104929248,17.561380951839315
2.7004623524206774,16.130054218606723
2.806470846309834,14.811577763912831
2.916640776023701,13.597436963042757
3.031135501567576,12.479721849796091
3.150124795755327,11.45108671048199
3.2737850959485697,10.504714618254921
3.4022997656780634,9.634282644733364
3.5358593665351745,8.833928699900268
3.6746619407366854,8.098220258173875
3.8189133047818515,7.422122765324737
3.968827354637162,6.800972883941004
4.1246263829013445,6.230455706148737
4.286541408420921,5.706580408711265
4.4548125188449825,5.2256573194243146
4.629689226627261,4.784276454095128
4.811430839003257,4.379287395869112
5.000306842491082,4.007780697326243
5.196597302486189,3.667070459697495
5.400593278542364,3.3546780341160223
5.612597255954967,3.0683168134574488
5.8329235942862,2.8058769271681228
6.06189899349756,2.5654117396662715
6.29986297838068,2.345127858649173
6.547168402004727,2.143373753028518
6.804181968927091,1.9586289571266948
7.071284778942991,1.7894943176129352
7.348872892180382,1.63468483431574
7.637357916378006,1.4930190812329216
7.937167617217536,1.3634096403564626
8.248746552614573,1.24485596074649
8.572556731909314,1.1364377406464006
8.909078300934132,1.0373062584983894
9.258810253973934,0.9466754437526747
9.622271173675122,0.8638242730887462
9.999999999999984,0.7880926674416657
