k [1/Mpc],P(k) [Mpc^3]
0.0001,357.1055060107191
0.00010392556829367125,370.05034458513995
0.00010800523745162529,383.4641490269888
0.00011224505680853065,397.3638641136263
0.00011665131316981963,411.7670437684087
0.00012123054013376525,426.69188535842716
0.00012598952777950273,442.1572498295938
0.00013093533273536104,458.1826734887214
0.00013607528864243335,474.7883808707559
0.00014141701702890234,491.99531995668104
0.00014696843861124463,509.82518536795925
0.00015273778503907136,528.3004441640035
0.00015873361110102093,547.4443661177431
0.00016496480740980205,567.2810429938028
0.0001714406135851971,587.8354240645681
0.00017817063195457305,609.1333531113395
0.00018516484179121546,631.2016024587866
0.000192433614111598,654.0678971003493
0.00019998772705352857,677.7609125227998
0.0002078383818579757,702.3103219307031
0.00021599721947827182,727.7468535376175
0.0002244763378413224,754.1023337760065
0.0002332883097864157,781.4097166096175
0.00024244620170823283,809.7030924516604
0.0002519635929317015,839.0177288026907
0.0002618545958474233,869.3901224147871
0.0002721338768375308,900.8580054480215
0.0002828166780230032,933.4604163005079
0.0002939188398646886,967.2377434338825
0.0003054568246515432,1002.2317657622297
0.00031744774091091926,1038.485707947027
0.00032990936877709396,1076.0442625105507
0.00034286018635565856,1114.953652407677
0.00035631939712285854,1155.2616309475811
0.000370306958400514,1197.0174554047323
0.00038484361094874304,1240.272037053949
0.0003999509097203664,1285.077999645656
0.00041565125582259895,1331.489735626898
0.00043196792973341727,1379.563435670824
0.0004489251258218605,1429.3570630585
0.0004665479882234472,1480.9304802788306
0.000484862648123908,1534.3454379703746
0.000503896262506515,1589.6656127007748
0.0005236770544204653,1646.9567166735612
0.0005442343548300266,1706.2863999501956
0.0005655986461065005,1767.7244077020725
0.0005878016072274912,1831.3426698500768
0.0006108761607505036,1897.2153366455416
0.0006348565216305217,1965.4188476599988
0.0006597782479539537,2036.0317119010488
0.0006856782936641739,2109.13465950171
0.0007125950633568407,2184.810806925981
0.0007405684692262436,2263.1456269245386
0.0007696399902471156,2344.2270820353465
0.0007998527336796708,2428.1454182170587
0.000831251498989063,2514.9932090885777
0.0008638828442740447,2604.865537804781
0.000897795155303332,2697.8597103205266
0.0009330387172620361,2794.0755426845644
0.0009696657893145519,2893.615243747259
0.001007730682094461,2996.5833073995395
0.0010472898382363582,3103.0867674925566
0.0010884019160690055,3213.234692845913
0.0011311278765939214,3327.138459479433
0.001175531073878369,3444.9116097841024
0.0012216773489967915,3566.669297965444
0.0012696351276599736,3692.5289078273054
0.0013194755216767058,3822.6094323027132
0.0013712724343984,3957.0315459731482
0.0014251026703029975,4095.9177398359693
0.0014810460488806749,4239.3914241617185
0.0015391855229902056,4387.577552929053
0.001599607301861487,4540.6016855717735
0.0016624009789266115,4698.589568971778
0.0017276596646690358,4861.667893106334
0.0017954801246878305,5029.96323688286
0.0018659629231817451,5203.602470440366
0.001939212572065829,5382.711862945356
0.0020153376859417325,5567.415836709378
0.002094451143151469,5757.83814276752
0.002176670253153458,5954.100289172213
0.002262116930469025,6156.321704548357
0.002350917875457286,6364.619359921907
0.002443204762186487,6579.105512326148
0.0025391144336803463,6799.889172780537
0.002638789104828933,7027.0744656626475
0.002742376573264949,7260.760067909158
0.0028500304385181063,7501.039374193442
0.0029619103297725525,7747.996918264369
0.0030781821425650787,8001.710003365062
0.003199018284775064,8262.247035074224
0.0033245979322709396,8529.665599491038
0.003455107294592217,8804.01379563368
0.0035907398910610534,9085.325343261891
0.0037316968377327513,9373.620773668508
0.0038781871456107214,9668.906791666745
0.0040304280305680515,9971.172463151957
0.00418864523543527,10280.39150147859
0.004353073364731888,10596.51526307916
0.00452395623253805,10919.472586505455
0.004701547224022131,11249.171634183265
0.004886109671160325,11585.492852291181
0.005077917243205399,11928.292822557887
0.005277254352483535,12277.392660146981
0.005484416576121017,12632.572794405905
0.005699711094326071,12993.587045442511
0.005923457145875801,13360.174908974393
0.006155986501483508,13732.053150075995
0.006397643955748424,14108.86297623355
0.0066487878384172625,14490.12078294949
0.0069097905457156435,14875.293312964855
0.007181039092537346,15263.859364224225
0.007462935686310132,15655.294146734175
0.007755898323389004,16048.99894149501
0.00806036140886134,16444.218759757918
0.008376776400682916,16840.125786116936
0.008705612479099857,17235.873394616192
0.009047357242349292,17630.599977781003
0.00940251742967013,18023.37592400184
0.009771619672696168,18413.103760034814
0.010155211276345676,18798.59154422895
0.010553861030365234,19178.55017488014
0.010968160052731372,19551.570190739152
0.011398722666160517,19916.17404572405
0.011846187309026826,20270.776720572016
0.012311217482038896,20613.714795649747
0.012794502732078732,20943.23030018605
0.013296759674662111,21257.401844360542
0.013818733056536317,21554.24741613935
0.014361196859990781,21831.653219129043
0.014924955450518284,22087.402616051302
0.015510844769528393,22319.23552906352
0.016119733573881575,22524.749723832218
0.01675252472408214,22701.531014861575
0.017410156523040152,22847.10359836378
0.018093604107387147,22958.923849865172
0.01880388089340914,23034.519359860446
0.019542040079740527,23071.381275726533
0.02030917620904734,23067.101728085414
0.021106426791015535,23019.40449262669
0.021934973989050584,22926.10688715764
0.02279604637318978,22785.301212401788
0.023690920741826323,22595.339925884386
0.02462092401494623,22354.911237874392
0.02558743520168586,22063.129208536553
0.02659188744512693,21719.553766965946
0.027635770147361564,21324.26027332862
0.028720631177978267,20878.129028541105
0.029848079169243254,20382.84139807567
0.03101978590138095,19840.602623338873
0.03223748878149028,19254.14548162097
0.0335029934197723,18626.70316464403
0.03481817630688963,17963.483690370373
0.03618498759642746,17272.25402165015
0.037605453996581675,16560.490131715553
0.03908168177536263,15833.64245199734
0.04061585988376978,15096.14134823193
0.04221026320156896,14354.094131595728
0.04386725591048496,13617.474470015279
0.0455892949998106,12895.587472481617
0.047378933909631396,12197.528551306188
0.049238826317067365,11531.438235954607
0.05117173007114603,10904.381630533024
0.05318051128214196,10322.547299601956
0.05526814857144601,9790.300384606999
0.057437737488265785,9310.378490129608
0.0596924950997073,8883.821459239865
0.0620357647610427,8510.132301186984
0.06447102107323864,8186.869987652727
0.06700187503509585,7910.070306873868
0.06963207939763882,7673.601654016258
0.0723655342286965,7469.413750823543
0.07520629269592405,7287.114330070345
0.07815856707684081,7114.108620987112
0.08122673500479707,6936.484187173801
0.08441534596012978,6740.061002781018
0.0877291280161335,6512.131463144263
0.09117299484984914,6243.0883881107375
0.09475205302806537,5928.933990367279
0.09847160957933764,5572.103344982866
0.1023371798632519,5179.222130045544
0.10635449574860109,4763.446045091888
0.11052951411260206,4343.638742319498
0.1148684256737553,3941.6251650410672
0.1193776641714435,3579.00497400234
0.1240639159058831,3273.1051805734464
0.12893412965257148,3034.025278715568
0.13399552696593373,2863.3338063621395
0.1392556128874462,2753.8833149982793
0.14472218707411338,2690.076744544291
0.15040335536380234,2648.8519660991324
0.15630754179458153,2602.511340526805
0.16244350109588662,2524.1178107602495
0.16882033167003618,2394.946703062416
0.17544748908334581,2212.156665891703
0.1823348000868439,1992.5702541243031
0.189492477187382,1767.643142334463
0.19693113379074215,1570.7933761454713
0.20466179993919872,1425.9765318978884
0.21269593866686892,1341.1952881922948
0.22104546299710207,1305.12167352531
0.22972275360711503,1289.1906908812412
0.23874067718606454,1258.0274985143742
0.2481126055137766,1185.6534891442582
0.25785243528842716,1071.4703586719913
0.26797460873256895,942.4897237624691
0.27849413500806414,834.873926668364
0.28942661247167484,770.7034098401932
0.3007882518043098,745.2519080737833
0.31259590004822796,730.7343814834053
0.324867065587837,694.9647557137533
0.3376199441111335,628.300097354527
0.35087344559027084,552.8067550134906
0.36464722232127456,498.41605962435654
0.37896169806447155,473.59128986183254
0.3938380983288488,458.79574800385666
0.4092984818452433,428.7307563207371
0.4253657732750382,382.5063446037254
0.44206379720285277,342.48326240209576
0.45941731346364734,321.5691082781919
0.47745205385661277,307.00835294705547
0.4961947603002895,281.99858470196045
0.5156732244854959,252.18405607206662
0.5359163290848509,232.42547681599945
0.556954090580013,219.57003126051256
0.5788177037701272,201.58559290838272
0.6015395880274836,181.8516066915645
0.6251534353689703,168.69529437300383
0.6496942604146115,156.90550374671056
0.6751984523072497,142.41719216513425
0.7017038286703824,130.802613205073
0.7292496916841444,121.11261810078376
0.7578768863625915,110.46070479162019
0.7876278611187046,100.8188884621902
0.8185467307069019,92.31720710326192
0.850679341636415,84.71880372681802
0.8840733401525058,77.83646890111713
0.9187782428863317,71.52244268256254
0.9548455102782278,65.66164533215381
0.9923286228832539,60.1959363815225
1.0312831606721837,55.11890945080663
1.0717668854455022,50.42296707865018
1.1138398264826193,46.09638093370598
1.1575643695533022,42.12425416276845
1.2030053494233226,38.48877391950997
1.2502301459914542,35.16424298752496
1.299308784200415,32.12255142534494
1.3503140378698726,29.338349103880105
1.4033215376054824,26.788814983366922
1.4584098829439835,24.453376735601115
1.5156607589006013,22.313720314385375
1.575159057091621,20.354281686325294
1.6369930016117014,18.560916543010677
1.7012542798525885,16.92045711159802
1.7680381784572046,15.420661168095828
1.8374437246107238,14.050160828752286
1.9095738328780953,12.798328386579957
1.9845354578058014,11.655195715914052
2.0624397525140905,10.611587347931692
2.143402233514853,9.659078395323899
2.227542951999554,8.7899352804158
2.314986671851158,7.997061925110625
2.405863054644063,7.273963619992681
2.5003068519063225,6.614691275488866
2.598458104929248,6.013783027618242
2.7004623524206774,5.466226001020584
2.806470846309834,4.967421320266893
2.916640776023701,4.513151053202532
3.031135501567576,4.099545539867081
3.150124795755327,3.723058922599726
3.2737850959485697,3.3804446382973428
3.4022997656780634,3.0687311735042213
3.5358593665351745,2.785199678222416
3.6746619407366854,2.5273631062763764
3.8189133047818515,2.2929469691317994
3.968827354637162,2.07987233976976
4.1246263829013445,1.8862397090838527
4.286541408420921,1.710314031081787
4.4548125188449825,1.5505109592769541
4.629689226627261,1.405384145819288
4.811430839003257,1.2736136168537548
5.000306842491082,1.1539951315733443
5.196597302486189,1.0454303499466584
5.400593278542364,0.9469178009057345
5.612597255954967,0.857544537194326
5.8329235942862,0.7764781675827946
6.06189899349756,0.7029602707880688
6.29986297838068,0.6363002372368919
6.547168402004727,0.5758693550442462
6.804181968927091,0.5210953949243725
7.071284778942991,0.471457849498075
7.348872892180382,0.4264837480314159
7.637357916378006,0.38574280065869737
7.937167617217536,0.34884351060013086
8.248746552614573,0.3154297789014519
8.572556731909314,0.2851777771041549
8.909078300934132,0.2577922061883499
9.258810253973934,0.23300370529152356
9.622271173675122,0.2105680333167499
9.999999999999984,0.1902638378949135
