k [1/Mpc],P(k) [Mpc^3]
0.0001,354.30760137547514
0.00010392556829367125,367.1515990259397
0.00010800523745162529,380.46095308513594
0.00011224505680853065,394.2525278143083
0.00011665131316981963,408.5437871970118
0.00012123054013376525,423.3527861049271
0.00012598952777950273,438.6982207843423
0.00013093533273536104,454.59947646133975
0.00013607528864243335,471.07665413929243
0.00014141701702890234,488.1505736927602
0.00014696843861124463,505.84276960967895
0.00015273778503907136,524.1755377625915
0.00015873361110102093,543.1719935073771
0.00016496480740980205,562.856113059434
0.0001714406135851971,583.2527325568394
0.00017817063195457305,604.3875359422537
0.00018516484179121546,626.2871049196578
0.000192433614111598,648.9789762740608
0.00019998772705352857,672.4916837053729
0.0002078383818579757,696.8547784538981
0.00021599721947827182,722.0988186914425
0.0002244763378413224,748.2554151969357
0.0002332883097864157,775.3573172840826
0.00024244620170823283,803.4384992552388
0.0002519635929317015,832.5341537814568
0.0002618545958474233,862.6806294552833
0.0002721338768375308,893.9154624588429
0.0002828166780230032,926.2775126415492
0.0002939188398646886,959.8070640771275
0.0003054568246515432,994.5458347953899
0.00031744774091091926,1030.5369673294424
0.00032990936877709396,1067.8250554367482
0.00034286018635565856,1106.4562241526398
0.00035631939712285854,1146.4780675226496
0.000370306958400514,1187.9397573321958
0.00038484361094874304,1230.8922125670892
0.0003999509097203664,1275.3882320165283
0.00041565125582259895,1321.4824317250627
0.00043196792973341727,1369.2310530609113
0.0004489251258218605,1418.69207615143
0.0004665479882234472,1469.9254238989852
0.000484862648123908,1522.9930275987579
0.000503896262506515,1577.9588846592476
0.0005236770544204653,1634.8890829040072
0.0005442343548300266,1693.8518624816686
0.0005655986461065005,1754.917651438163
0.0005878016072274912,1818.1588993158307
0.0006108761607505036,1883.650309540636
0.0006348565216305217,1951.468927809429
0.0006597782479539537,2021.6941837395202
0.0006856782936641739,2094.407995540972
0.0007125950633568407,2169.69472917214
0.0007405684692262436,2247.6413214085555
0.0007696399902471156,2328.337175102645
0.0007998527336796708,2411.873978852625
0.000831251498989063,2498.3461053483616
0.0008638828442740447,2587.850746896632
0.000897795155303332,2680.4879721339025
0.0009330387172620361,2776.3604690535235
0.0009696657893145519,2875.572977611886
0.001007730682094461,2978.2329561742886
0.0010472898382363582,3084.450773759217
0.0010884019160690055,3194.3397582834764
0.0011311278765939214,3308.015987577108
0.001175531073878369,3425.5974300008616
0.0012216773489967915,3547.2046307355045
0.0012696351276599736,3672.9606514287607
0.0013194755216767058,3802.9909261710914
0.0013712724343984,3937.4234785944614
0.0014251026703029975,4076.38794379139
0.0014810460488806749,4220.016075249465
0.0015391855229902056,4368.441710871355
0.001599607301861487,4521.800296633195
0.0016624009789266115,4680.229317698672
0.0017276596646690358,4843.8669974894865
0.0017954801246878305,5012.852588449104
0.0018659629231817451,5187.326507707972
0.001939212572065829,5367.429237168372
0.0020153376859417325,5553.302108885746
0.002094451143151469,5745.0860605350135
0.002176670253153458,5942.921440502739
0.002262116930469025,6146.948263638168
0.002350917875457286,6357.304179194485
0.002443204762186487,6574.1255660772795
0.0025391144336803463,6797.5461864287645
0.002638789104828933,7027.696226434421
0.002742376573264949,7264.703151075799
0.0028500304385181063,7508.6888752069335
0.0029619103297725525,7759.770727228005
0.0030781821425650787,8018.060287773791
0.003199018284775064,8283.66123316836
0.0033245979322709396,8556.670851424791
0.003455107294592217,8837.176068997574
0.0035907398910610534,9125.254002413329
0.0037316968377327513,9420.97133459526
0.0038781871456107214,9724.379989342407
0.0040304280305680515,10035.51990123443
0.00418864523543527,10354.41370924291
0.004353073364731888,10681.066099160718
0.00452395623253805,11015.465042970854
0.004701547224022131,11357.575020169075
0.004886109671160325,11707.340509100512
0.005077917243205399,12064.67583165718
0.005277254352483535,12429.46039650566
0.005484416576121017,12801.5504529396
0.005699711094326071,13180.78757447978
0.005923457145875801,13566.99182652356
0.006155986501483508,13959.91669176925
0.006397643955748424,14359.212510036925
0.0066487878384172625,14764.486544380707
0.0069097905457156435,15175.348334528493
0.007181039092537346,15591.393784367327
0.007462935686310132,16012.147012849206
0.007755898323389004,16437.00007849961
0.00806036140886134,16865.28083376482
0.008376776400682916,17296.28765298053
0.008705612479099857,17729.286884896464
0.009047357242349292,18163.470067200804
0.00940251742967013,18597.87755937976
0.009771619672696168,19031.463921720693
0.010155211276345676,19463.082275974033
0.010553861030365234,19891.475898652403
0.010968160052731372,20315.307581204237
0.011398722666160517,20733.104120012173
0.011846187309026826,21143.299592386906
0.012311217482038896,21544.213486481298
0.012794502732078732,21934.018310879193
0.013296759674662111,22310.805471537155
0.013818733056536317,22672.492720445105
0.014361196859990781,23016.883596954518
0.014924955450518284,23341.683746272432
0.015510844769528393,23644.430949920537
0.016119733573881575,23922.61499005186
0.01675252472408214,24173.58902034575
0.017410156523040152,24394.618529669515
0.018093604107387147,24582.95495174285
0.01880388089340914,24735.728477133885
0.019542040079740527,24850.11887305809
0.02030917620904734,24923.320543907015
0.021106426791015535,24952.568979024712
0.021934973989050584,24935.269472278927
0.02279604637318978,24868.885322592392
0.023690920741826323,24751.12031039578
0.02462092401494623,24580.09371519628
0.02558743520168586,24354.419421155544
0.02659188744512693,24073.103675815822
0.027635770147361564,23735.127639054343
0.028720631177978267,23339.77683164863
0.029848079169243254,22888.031634700346
0.03101978590138095,22383.880876836505
0.03223748878149028,21831.717942443196
0.0335029934197723,21232.824607745097
0.03481817630688963,20586.675921771974
0.03618498759642746,19895.690742689956
0.037605453996581675,19169.91466121592
0.03908168177536263,18420.26166657361
0.04061585988376978,17654.50357239451
0.04221026320156896,16877.54322435259
0.04386725591048496,16095.298205809431
0.0455892949998106,15318.13424742889
0.047378933909631396,14556.219829004585
0.049238826317067365,13819.01183827128
0.05117173007114603,13114.730016420393
0.05318051128214196,12450.645316397038
0.05526814857144601,11832.801812335312
0.057437737488265785,11265.502226566972
0.0596924950997073,10751.48122449518
0.0620357647610427,10291.38935297734
0.06447102107323864,9884.186205133517
0.06700187503509585,9526.86910892634
0.06963207939763882,9214.200016270219
0.0723655342286965,8938.821855392653
0.07520629269592405,8690.876700408497
0.07815856707684081,8458.24031589339
0.08122673500479707,8227.226945164022
0.08441534596012978,7983.571549815621
0.0877291280161335,7713.925795494902
0.09117299484984914,7407.760827951503
0.09475205302806537,7058.763742586984
0.09847160957933764,6666.1624814350125
0.1023371798632519,6235.473947457099
0.10635449574860109,5779.303150591669
0.11052951411260206,5315.982029135651
0.1148684256737553,4866.767628570083
0.1193776641714435,4453.037709203457
0.1240639159058831,4093.5559035208134
0.12893412965257148,3800.883660143257
0.13399552696593373,3579.546346765071
0.1392556128874462,3425.1304418306813
0.14472218707411338,3323.949231250609
0.15040335536380234,3253.552662957831
0.15630754179458153,3185.1961488724946
0.16244350109588662,3089.13424430304
0.16882033167003618,2942.6209807656483
0.17544748908334581,2738.896142780722
0.1823348000868439,2492.266691798582
0.189492477187382,2234.1260407055483
0.19693113379074215,2000.6533600540326
0.20466179993919872,1820.1648790803595
0.21269593866686892,1704.775811851629
0.22104546299710207,1645.780279701161
0.22972275360711503,1615.1045643158816
0.23874067718606454,1574.6270545551545
0.2481126055137766,1492.5593145301748
0.25785243528842716,1362.6084850699244
0.26797460873256895,1210.55728857571
0.27849413500806414,1077.1766956756796
0.28942661247167484,991.1417481168413
0.3007882518043098,951.6264534317073
0.31259590004822796,929.8679162362938
0.324867065587837,888.1117146748562
0.3376199441111335,810.3618012408259
0.35087344559027084,717.8975924471083
0.36464722232127456,646.6847504160027
0.37896169806447155,611.1876327477166
0.3938380983288488,591.52167538952
0.4092984818452433,556.027399460307
0.4253657732750382,499.29003342401916
0.44206379720285277,447.06962181060504
0.45941731346364734,418.2506267754337
0.47745205385661277,399.99409544974895
0.4961947603002895,369.5051433480879
0.5156732244854959,330.9959224422898
0.5359163290848509,304.32626003411525
0.556954090580013,288.02153331281227
0.5788177037701272,265.6137667580152
0.6015395880274836,239.56239632994132
0.6251534353689703,222.09541121579244
0.6496942604146115,207.37085941328223
0.6751984523072497,188.42629656879325
0.7017038286703824,173.05846536315119
0.7292496916841444,160.56619970342223
0.7578768863625915,147.94029119370006
0.7876278611187046,135.94763190361277
0.8185467307069019,124.68762915379268
0.850679341636415,114.22346631674083
0.8840733401525058,104.58785524922644
0.9187782428863317,95.78176669875653
0.9548455102782278,87.74147725568916
0.9923286228832539,80.38704784928083
1.0312831606721837,73.64856309272143
1.0717668854455022,67.46484986426341
1.1138398264826193,61.78230192743822
1.1575643695533022,56.55653970671847
1.2030053494233226,51.75295580370458
1.2502301459914542,47.33992868629535
1.299308784200415,43.2879160528848
1.3503140378698726,39.56935075189106
1.4033215376054824,36.15852257432351
1.4584098829439835,33.03133249753348
1.5156607589006013,30.16531879776552
1.575159057091621,27.53967912192162
1.6369930016117014,25.135161729602263
1.7012542798525885,22.933960772715583
1.7680381784572046,20.91960779317216
1.8374437246107238,19.07686536573012
1.9095738328780953,17.391670382222433
1.9845354578058014,15.851055320069149
2.0624397525140905,14.443068553942911
2.143402233514853,13.156699951676636
2.227542951999554,11.981812057631508
2.314986671851158,10.90907489448336
2.405863054644063,9.9299047919948
2.5003068519063225,9.036408179792565
2.598458104929248,8.221329289223029
2.7004623524206774,7.478000804881764
2.806470846309834,6.800296770730591
2.916640776023701,6.182593637310723
3.031135501567576,5.619731945247783
3.150124795755327,5.106979846863999
3.2737850959485697,4.639999290898586
3.4022997656780634,4.21481398193757
3.5358593665351745,3.82778056834172
3.6746619407366854,3.4755630128485913
3.8189133047818515,3.1551077889912724
3.968827354637162,2.86362090363052
4.1246263829013445,2.5985466369304433
4.286541408420921,2.357547721193022
4.4548125188449825,2.1384876441928693
4.629689226627261,1.9394141737000632
4.811430839003257,1.7585440156509649
5.000306842491082,1.5942486892367174
5.196597302486189,1.4450411856868932
5.400593278542364,1.3095639078514743
5.612597255954967,1.1865784232050438
5.8329235942862,1.0749553772117262
6.06189899349756,0.9736651563122307
6.29986297838068,0.8817694284083952
6.547168402004727,0.7984141393383503
6.804181968927091,0.7228214845973606
7.071284778942991,0.6542826740922657
7.348872892180382,0.5921520045475562
7.637357916378006,0.5358414248238901
7.937167617217536,0.4848143646447313
8.248746552614573,0.4385798793257133
8.572556731909314,0.3966919507088405
8.909078300934132,0.3587459131650976
9.258810253973934,0.3243746116490388
9.622271173675122,0.29324525110532823
9.999999999999984,0.26506098457785754
