k [1/Mpc],P(k) [Mpc^3]
0.0001,149.33656321301882
0.00010392556829367125,156.09383732792398
0.00010800523745162529,163.1565212236105
0.00011224505680853065,170.53837574273865
0.00011665131316981963,178.25379154073548
0.00012123054013376525,186.3178014490132
0.00012598952777950273,194.74608739556027
0.00013093533273536104,203.55502342516587
0.00013607528864243335,212.76171888737818
0.00014141701702890234,222.38405484718172
0.00014696843861124463,232.44070907473633
0.00015273778503907136,242.9511731130691
0.00015873361110102093,253.93579448190053
0.00016496480740980205,265.41582119537514
0.0001714406135851971,277.41343790182793
0.00017817063195457305,289.9518094688567
0.00018516484179121546,303.0551134161657
0.000192433614111598,316.74858379118837
0.00019998772705352857,331.0585592267386
0.0002078383818579757,346.01250963776045
0.00021599721947827182,361.63909991638883
0.0002244763378413224,377.9682365365248
0.0002332883097864157,395.03111448288604
0.00024244620170823283,412.860279113705
0.0002519635929317015,431.4896518046045
0.0002618545958474233,450.95460173583655
0.0002721338768375308,471.2919981882991
0.0002828166780230032,492.54024049031347
0.0002939188398646886,514.7393567802469
0.0003054568246515432,537.9310568842378
0.00031744774091091926,562.158802099616
0.00032990936877709396,587.4678581496739
0.00034286018635565856,613.9052758217185
0.00035631939712285854,641.5200338210632
0.000370306958400514,670.3631185147101
0.00038484361094874304,700.4875933136204
0.0003999509097203664,731.9486768066495
0.00041565125582259895,764.8037081402144
0.00043196792973341727,799.1122853578856
0.0004489251258218605,834.9363324207333
0.0004665479882234472,872.340110642658
0.000484862648123908,911.3903868235897
0.000503896262506515,952.1564549929152
0.0005236770544204653,994.7102363954723
0.0005442343548300266,1039.1263451185437
0.0005655986461065005,1085.4820059841043
0.0005878016072274912,1133.8572794654863
0.0006108761607505036,1184.3350552860932
0.0006348565216305217,1237.0011031742497
0.0006597782479539537,1291.9442261570389
0.0006856782936641739,1349.2561067721413
0.0007125950633568407,1409.0315204413853
0.0007405684692262436,1471.3682976101682
0.0007696399902471156,1536.367210202534
0.0007998527336796708,1604.1322649575222
0.000831251498989063,1674.7704416700374
0.0008638828442740447,1748.3918419469733
0.000897795155303332,1825.1096970159876
0.0009330387172620361,1905.039929037353
0.0009696657893145519,1988.3016012500095
0.001007730682094461,2075.0165846642353
0.0010472898382363582,2165.3095042948125
0.0010884019160690055,2259.3079114873854
0.0011311278765939214,2357.1415125882904
0.001175531073878369,2458.9426023309866
0.0012216773489967915,2564.845730153677
0.0012696351276599736,2674.9872505990984
0.0013194755216767058,2789.5057160312604
0.0013712724343984,2908.540877809561
0.0014251026703029975,3032.233862073672
0.0014810460488806749,3160.726906713406
0.0015391855229902056,3294.1622445154317
0.001599607301861487,3432.6827415227954
0.0016624009789266115,3576.430790356363
0.0017276596646690358,3725.547998297992
0.0017954801246878305,3880.1752420189555
0.0018659629231817451,4040.4511162234016
0.001939212572065829,4206.512342364542
0.0020153376859417325,4378.492371239476
0.002094451143151469,4556.520206997276
0.002176670253153458,4740.721076503593
0.002262116930469025,4931.214786467314
0.002350917875457286,5128.115596993535
0.002443204762186487,5331.530836295587
0.0025391144336803463,5541.558505935813
0.002638789104828933,5758.288360782939
0.002742376573264949,5981.800025498937
0.0028500304385181063,6212.162289494179
0.0029619103297725525,6449.432337025967
0.0030781821425650787,6693.6525668109125
0.003199018284775064,6944.851355629485
0.0033245979322709396,7203.040021350563
0.003455107294592217,7468.210851432633
0.0035907398910610534,7740.338183034182
0.0037316968377327513,8019.375137288709
0.0038781871456107214,8305.2536527013
0.0040304280305680515,8597.876963451054
0.00418864523543527,8897.110515232609
0.004353073364731888,9202.793346236742
0.00452395623253805,9514.758680569887
0.004701547224022131,9832.828109207217
0.004886109671160325,10156.771328465218
0.005077917243205399,10486.241272731628
0.005277254352483535,10820.833166700042
0.005484416576121017,11160.13546659357
0.005699711094326071,11503.73550949117
0.005923457145875801,11851.186965698562
0.006155986501483508,12202.016259694647
0.006397643955748424,12555.716247728365
0.0066487878384172625,12911.710317276973
0.0069097905457156435,13269.325766450234
0.007181039092537346,13627.836903524121
0.007462935686310132,13986.455207743747
0.007755898323389004,14344.33547674984
0.00806036140886134,14700.582001232706
0.008376776400682916,15054.243651334047
0.008705612479099857,15404.32210888359
0.009047357242349292,15749.75822899777
0.00940251742967013,16089.434840873439
0.009771619672696168,16422.1883183652
0.010155211276345676,16746.785937091896
0.010553861030365234,17061.95174063859
0.010968160052731372,17366.36791656335
0.011398722666160517,17658.67351167636
0.011846187309026826,17937.487733398753
0.012311217482038896,18201.40905781435
0.012794502732078732,18449.028938659394
0.013296759674662111,18678.946616688103
0.013818733056536317,18889.779179778478
0.014361196859990781,19080.173750534876
0.014924955450518284,19248.849408005997
0.015510844769528393,19394.602841743843
0.016119733573881575,19516.31577909866
0.01675252472408214,19613.03271981215
0.017410156523040152,19683.90883810791
0.018093604107387147,19728.301796669355
0.01880388089340914,19745.811212358094
0.019542040079740527,19736.18756000961
0.02030917620904734,19699.52765555746
0.021106426791015535,19636.141106061797
0.021934973989050584,19546.621349029792
0.02279604637318978,19432.027563128475
0.023690920741826323,19293.559121190567
0.02462092401494623,19132.64978870485
0.02558743520168586,18950.899293797374
0.02659188744512693,18750.209487644035
0.027635770147361564,18533.423206851687
0.028720631177978267,18303.475714314794
0.029848079169243254,18061.673536431885
0.03101978590138095,17807.579205949172
0.03223748878149028,17541.50474603636
0.0335029934197723,17268.382594858715
0.03481817630688963,16994.551103050253
0.03618498759642746,16722.65367060238
0.037605453996581675,16449.172325172352
0.03908168177536263,16170.237174494654
0.04061585988376978,15882.75765160338
0.04221026320156896,15584.210115426102
0.04386725591048496,15272.614193494384
0.0455892949998106,14946.849778045042
0.047378933909631396,14605.918178215348
0.049238826317067365,14248.259409827797
0.05117173007114603,13872.7175030518
0.05318051128214196,13480.227954360302
0.05526814857144601,13072.06529919595
0.057437737488265785,12647.586907326964
0.0596924950997073,12208.348394426104
0.0620357647610427,11762.019512055615
0.06447102107323864,11317.595313676755
0.06700187503509585,10883.94464956117
0.06963207939763882,10467.486082087
0.0723655342286965,10072.027924982847
0.07520629269592405,9698.86342074789
0.07815856707684081,9347.181969271436
0.08122673500479707,9013.086015932668
0.08441534596012978,8688.688549522689
0.0877291280161335,8363.759628373333
0.09117299484984914,8029.890045528033
0.09475205302806537,7683.951922765522
0.09847160957933764,7328.687683346492
0.1023371798632519,6971.010895497257
0.10635449574860109,6620.1609795597205
0.11052951411260206,6285.293264353392
0.1148684256737553,5972.353846519918
0.1193776641714435,5682.982886713652
0.1240639159058831,5415.065601349436
0.12893412965257148,5161.391489521519
0.13399552696593373,4910.816151608411
0.1392556128874462,4657.673903080353
0.14472218707411338,4405.520401413688
0.15040335536380234,4159.095148100066
0.15630754179458153,3923.645073733124
0.16244350109588662,3705.520769779299
0.16882033167003618,3503.373429602697
0.17544748908334581,3310.745848823319
0.1823348000868439,3123.6418094812593
0.189492477187382,2941.368975816145
0.19693113379074215,2765.9226919130288
0.20466179993919872,2599.672095056307
0.21269593866686892,2444.5984177109067
0.22104546299710207,2297.882670002758
0.22972275360711503,2157.4896491495447
0.23874067718606454,2023.449665564333
0.2481126055137766,1896.236637568402
0.25785243528842716,1776.6331049374667
0.26797460873256895,1663.7553665664338
0.27849413500806414,1556.786248463375
0.28942661247167484,1455.6310674369927
0.3007882518043098,1360.3411393036959
0.31259590004822796,1270.6630374479575
0.324867065587837,1186.1673780603119
0.3376199441111335,1106.610394005836
0.35087344559027084,1031.9220542468458
0.36464722232127456,961.7086559185319
0.37896169806447155,895.8292914970287
0.3938380983288488,834.0302080993952
0.4092984818452433,776.0740137257343
0.4253657732750382,721.7943250195726
0.44206379720285277,670.9823661359356
0.45941731346364734,623.4295238242927
0.47745205385661277,578.9663897687594
0.4961947603002895,537.4326303278484
0.5156732244854959,498.661405909082
0.5359163290848509,462.4885285734021
0.556954090580013,428.7612759258674
0.5788177037701272,397.3109493353448
0.6015395880274836,368.00759356027754
0.6251534353689703,340.72405735569686
0.6496942604146115,315.33528295679696
0.6751984523072497,291.7225906772117
0.7017038286703824,269.7734840046353
0.7292496916841444,249.38141385494728
0.7578768863625915,230.4451935234257
0.7876278611187046,212.8690533076478
0.8185467307069019,196.56276237912124
0.850679341636415,181.4413838030016
0.8840733401525058,167.4250269163704
0.9187782428863317,154.4386158031201
0.9548455102782278,142.41167418335613
0.9923286228832539,131.27805948708405
1.0312831606721837,120.97573417001658
1.0717668854455022,111.44655346897838
1.1138398264826193,102.63605870841353
1.1575643695533022,94.4932420371088
1.2030053494233226,86.97036615292325
1.2502301459914542,80.02283034721005
1.299308784200415,73.60899250526191
1.3503140378698726,67.68999631484306
1.4033215376054824,62.22960329280443
1.4584098829439835,57.19402255858501
1.5156607589006013,52.551778006715715
1.575159057091621,48.2735727377709
1.6369930016117014,44.332152670008554
1.7012542798525885,40.702177192529795
1.7680381784572046,37.360085215356605
1.8374437246107238,34.28397571259678
1.9095738328780953,31.453521989976416
1.9845354578058014,28.849869227059248
2.0624397525140905,26.455535590735227
2.143402233514853,24.254319419557234
2.227542951999554,22.23121307848131
2.314986671851158,20.37231996218883
2.405863054644063,18.66477673621765
2.5003068519063225,17.096681411430897
2.598458104929248,15.65702597126785
2.7004623524206774,14.335630463153953
2.806470846309834,13.123080149056372
2.916640776023701,12.010679088912772
3.031135501567576,10.990399599872138
3.150124795755327,10.054833440172489
3.2737850959485697,9.197146281350841
3.4022997656780634,8.41103462081945
3.5358593665351745,7.690686706342515
3.6746619407366854,7.030746673934217
3.8189133047818515,6.426280362887243
3.968827354637162,5.8727435174748335
4.1246263829013445,5.365952108998936
4.286541408420921,4.9020544620525675
4.4548125188449825,4.477506492453455
4.629689226627261,4.089048296864693
4.811430839003257,3.733682211870863
5.000306842491082,3.4086524652787342
5.196597302486189,3.11142532028331
5.400593278542364,2.839671617108689
5.612597255954967,2.591252421014525
5.8329235942862,2.364204076244327
6.06189899349756,2.15672425683188
6.29986297838068,1.9671593980553175
6.547168402004727,1.793994794384437
6.804181968927091,1.6358415145661462
7.071284778942991,1.4914249999052618
7.348872892180382,1.359575980159412
7.637357916378006,1.2392220760817847
7.937167617217536,1.1293773404659067
8.248746552614573,1.029132765275897
8.572556731909314,0.9376567990038644
8.909078300934132,0.8541897074338107
9.258810253973934,0.7780373492830215
9.622271173675122,0.7085662695094936
9.999999999999984,0.6452087262937317
