k [1/Mpc],P(k) [Mpc^3]
0.0001,7497.952385544936
0.00010392556829367125,7746.754856268973
0.00010800523745162529,8003.759629344797
0.00011224505680853065,8269.230822784913
0.00011665131316981963,8543.440633299726
0.00012123054013376525,8826.669547093525
0.00012598952777950273,9119.20641885113
0.00013093533273536104,9421.347422899975
0.00013607528864243335,9733.396974250616
0.00014141701702890234,10055.668400213424
0.00014696843861124463,10388.484062054742
0.00015273778503907136,10732.175634775665
0.00015873361110102093,11087.083078409833
0.00016496480740980205,11453.55512034538
0.0001714406135851971,11831.949852674112
0.00017817063195457305,12222.633781413877
0.00018516484179121546,12625.98303802913
0.000192433614111598,13042.38264445537
0.00019998772705352857,13472.226367719344
0.0002078383818579757,13915.917695150567
0.00021599721947827182,14373.867875887358
0.0002244763378413224,14846.497326152026
0.0002332883097864157,15334.23539175661
0.00024244620170823283,15837.519212926325
0.0002519635929317015,16356.795306447599
0.0002618545958474233,16892.516599418064
0.0002721338768375308,17445.143281076722
0.0002828166780230032,18015.143872973964
0.0002939188398646886,18602.993120769635
0.0003054568246515432,19209.173731469808
0.00031744774091091926,19834.172661758515
0.00032990936877709396,20478.48018172514
0.00034286018635565856,21142.592857448682
0.00035631939712285854,21827.010610805584
0.000370306958400514,22532.23816455666
0.00038484361094874304,23258.78153397722
0.0003999509097203664,24007.143893007553
0.00041565125582259895,24777.830614793573
0.00043196792973341727,25571.346520217296
0.0004489251258218605,26388.196127464213
0.0004665479882234472,27228.881052252444
0.000484862648123908,28093.89184903643
0.000503896262506515,28983.714227334083
0.0005236770544204653,29898.824428010026
0.0005442343548300266,30839.68756652315
0.0005655986461065005,31806.758529563434
0.0005878016072274912,32800.46957413506
0.0006108761607505036,33821.236425619114
0.0006348565216305217,34869.452559681
0.0006597782479539537,35945.48144470885
0.0006856782936641739,37049.66344766935
0.0007125950633568407,38182.29799202301
0.0007405684692262436,39343.647633468696
0.0007696399902471156,40533.93748014377
0.0007998527336796708,41753.33896482558
0.000831251498989063,43001.9813506923
0.0008638828442740447,44279.93796119524
0.000897795155303332,45587.222925889
0.0009330387172620361,46923.79600988176
0.0009696657893145519,48289.544589027944
0.001007730682094461,49684.291403876276
0.0010472898382363582,51107.778754349405
0.0010884019160690055,52559.65411793783
0.0011311278765939214,54039.48585773829
0.001175531073878369,55546.7393618126
0.0012216773489967915,57080.78299936263
0.0012696351276599736,58640.88552402394
0.0013194755216767058,60226.19544601546
0.0013712724343984,61835.7565409335
0.0014251026703029975,63468.49293530087
0.0014810460488806749,65123.206692831554
0.0015391855229902056,66798.5794973226
0.001599607301861487,68493.14447465594
0.0016624009789266115,70205.30371080867
0.0017276596646690358,71933.32090923535
0.0017954801246878305,73675.31289122441
0.0018659629231817451,75429.25799415672
0.001939212572065829,77192.95568224635
0.0020153376859417325,78964.0458683315
0.002094451143151469,80740.01402417761
0.002176670253153458,82518.17104001132
0.002262116930469025,84295.67680998007
0.002350917875457286,86069.48383217758
0.002443204762186487,87836.3486957372
0.0025391144336803463,89592.88051056338
0.002638789104828933,91335.53857004507
0.002742376573264949,93060.63870950794
0.0028500304385181063,94764.10492785956
0.0029619103297725525,96441.38146113887
0.0030781821425650787,98087.86988376892
0.003199018284775064,99699.78075859808
0.0033245979322709396,101273.67091334278
0.003455107294592217,102804.83002168183
0.0035907398910610534,104285.79194504509
0.0037316968377327513,105708.68752933033
0.0038781871456107214,107067.57049186064
0.0040304280305680515,108357.98820161575
0.00418864523543527,109574.8845457268
0.004353073364731888,110710.70085078978
0.00452395623253805,111757.29824653115
0.004701547224022131,112707.5397728807
0.004886109671160325,113555.56807879833
0.005077917243205399,114295.4435041333
0.005277254352483535,114919.31200231485
0.005484416576121017,115418.68389716443
0.005699711094326071,115784.91993853629
0.005923457145875801,116008.90320227903
0.006155986501483508,116081.79303731123
0.006397643955748424,115994.41936071058
0.0066487878384172625,115737.69020332907
0.0069097905457156435,115302.78935479015
0.007181039092537346,114680.12947394938
0.007462935686310132,113860.83022129764
0.007755898323389004,112835.5064137368
0.00806036140886134,111594.35639255881
0.008376776400682916,110128.84654561052
0.008705612479099857,108429.66158513911
0.009047357242349292,106488.97101989252
0.00940251742967013,104299.92625354504
0.009771619672696168,101855.60572857659
0.010155211276345676,99152.16305981434
0.010553861030365234,96184.19786273477
0.010968160052731372,92948.15685873102
0.011398722666160517,89445.94040132508
0.011846187309026826,85683.86182389257
0.012311217482038896,81674.25571176372
0.012794502732078732,77418.47994370756
0.013296759674662111,72911.60295633804
0.013818733056536317,68171.1099187006
0.014361196859990781,63264.495746652254
0.014924955450518284,58271.17143967854
0.015510844769528393,53176.12240434224
0.016119733573881575,47855.19901760896
0.01675252472408214,42299.81905168796
0.017410156523040152,36906.694389499615
0.018093604107387147,32110.690658619933
0.01880388089340914,27743.04150518675
0.019542040079740527,22742.21485050578
0.02030917620904734,16861.590229510755
0.021106426791015535,11999.900535410297
0.021934973989050584,9638.545179645056
0.02279604637318978,9191.185681091518
0.023690920741826323,6114.903689507793
0.02462092401494623,1408.8375248394664
0.02558743520168586,134.78977274173096
0.02659188744512693,25.650078667725012
0.027635770147361564,41.876404363608316
0.028720631177978267,317.56086602343646
0.029848079169243254,1997.4922934488015
0.03101978590138095,4101.876297214157
0.03223748878149028,4943.394355650617
0.0335029934197723,6370.895068631868
0.03481817630688963,8557.551609255714
0.03618498759642746,10310.467908347562
0.037605453996581675,11312.758654746067
0.03908168177536263,11923.283686857496
0.04061585988376978,12021.225509332166
0.04221026320156896,11450.649782793458
0.04386725591048496,10314.905897825382
0.0455892949998106,8709.267846568284
0.047378933909631396,6795.6957173876035
0.049238826317067365,4939.945607412818
0.05117173007114603,3079.2308084214783
0.05318051128214196,1566.2180552071795
0.05526814857144601,776.7517344093627
0.057437737488265785,70.25147111399363
0.0596924950997073,7.079790176078833
0.0620357647610427,74.79820191293926
0.06447102107323864,561.2881816408429
0.06700187503509585,542.8965564226883
0.06963207939763882,559.1909807872049
0.0723655342286965,385.98667499298307
0.07520629269592405,157.6745456718126
0.07815856707684081,16.527575460812216
0.08122673500479707,28.70347365673988
0.08441534596012978,430.033802469248
0.0877291280161335,712.7834173044749
0.09117299484984914,1094.7674637568127
0.09475205302806537,1161.1439941109127
0.09847160957933764,956.316055009354
0.1023371798632519,561.5344979576435
0.10635449574860109,196.57473608892744
0.11052951411260206,15.729810221168934
0.1148684256737553,13.557801043566563
0.1193776641714435,108.79328692958171
0.1240639159058831,97.08026766506475
0.12893412965257148,113.00665969006562
0.13399552696593373,0.007081737196668761
0.1392556128874462,130.83867347929979
0.14472218707411338,249.65749660801447
0.15040335536380234,280.82478905968804
0.15630754179458153,176.31907987417097
0.16244350109588662,46.20122663388217
0.16882033167003618,1.9932598122194811
0.17544748908334581,24.396287064854242
0.1823348000868439,17.616400741748436
0.189492477187382,1.2048168655591627
0.19693113379074215,40.854972827564545
0.20466179993919872,85.38075230394703
0.21269593866686892,55.836170763702526
0.22104546299710207,6.8000676059397005
0.22972275360711503,1.8462224841789459
0.23874067718606454,3.9105455140911234
0.2481126055137766,3.025611081860361
0.25785243528842716,24.449448357045164
0.26797460873256895,24.097459502610675
0.27849413500806414,3.6850589360854538
0.28942661247167484,0.24126458035581047
0.3007882518043098,0.046267529709574914
0.31259590004822796,7.399237851504848
0.324867065587837,9.999493502500314
0.3376199441111335,1.5301526964235839
0.35087344559027084,0.006346189211127332
0.36464722232127456,1.4753880444740821
0.37896169806447155,4.793953253152816
0.3938380983288488,1.5435505648082368
0.4092984818452433,0.21060961006267995
0.4253657732750382,1.2500901242042999
0.44206379720285277,3.8012193597194677
0.45941731346364734,4.427761114391861
0.47745205385661277,2.775272244275662
0.4961947603002895,1.3148241837545545
0.5156732244854959,0.6596427708106329
0.5359163290848509,0.42285526417675195
0.556954090580013,0.33309568639184295
0.5788177037701272,0.3042663533953098
0.6015395880274836,0.304130394691849
0.6251534353689703,0.31390628977806057
0.6496942604146115,0.31624537306966155
0.6751984523072497,0.30409118569968363
0.7017038286703824,0.2815776053555818
0.7292496916841444,0.25361515742743806
0.7578768863625915,0.22444157299008768
0.7876278611187046,0.19712903374477664
0.8185467307069019,0.17345675064335073
0.850679341636415,0.1533453468497651
0.8840733401525058,0.13609906866260169
0.9187782428863317,0.12116970276986104
0.9548455102782278,0.10812757240099576
0.9923286228832539,0.0966343581128558
1.0312831606721837,0.08642996457129738
1.0717668854455022,0.07734056168649611
1.1138398264826193,0.0692300091768554
1.1575643695533022,0.06198112204298069
1.2030053494233226,0.05549276353753113
1.2502301459914542,0.04967742292029927
1.299308784200415,0.04446115734172867
1.3503140378698726,0.03978433275635037
1.4033215376054824,0.035593789936702265
1.4584098829439835,0.031841128791371597
1.5156607589006013,0.028482360217579068
1.575159057091621,0.02547756484182286
1.6369930016117014,0.022790119511614543
1.7012542798525885,0.020386328223328906
1.7680381784572046,0.018236041761577657
1.8374437246107238,0.01631235763552546
1.9095738328780953,0.014591263997833928
1.9845354578058014,0.013051325141755294
2.0624397525140905,0.011673435878546811
2.143402233514853,0.010440554249598995
2.227542951999554,0.009337435113516689
2.314986671851158,0.00835043809515412
2.405863054644063,0.007467358073486033
2.5003068519063225,0.006677277122782227
2.598458104929248,0.005970459731179137
2.7004623524206774,0.005338201895888785
2.806470846309834,0.004772698425659998
2.916640776023701,0.00426695138919237
3.031135501567576,0.003814688045798036
3.150124795755327,0.003410282165142376
3.2737850959485697,0.0030486680965721297
3.4022997656780634,0.0027253087148502056
3.5358593665351745,0.0024361507993384103
3.6746619407366854,0.0021775729447752186
3.8189133047818515,0.0019463391328027044
3.968827354637162,0.0017395611744376142
4.1246263829013445,0.0015546682056025152
4.286541408420921,0.0013893596822280787
4.4548125188449825,0.0012415744753273507
4.629689226627261,0.0011094662936764089
4.811430839003257,0.0009913815699288816
5.000306842491082,0.0008858378132403532
5.196597302486189,0.0007915050913836954
5.400593278542364,0.0007071940553066472
5.612597255954967,0.0006318414989266629
5.8329235942862,0.0005644969700769338
6.06189899349756,0.0005043108131851431
6.29986297838068,0.0004505237036230811
6.547168402004727,0.00040245700829456707
6.804181968927091,0.0003595039166736089
7.071284778942991,0.0003211218376329954
7.348872892180382,0.0002868256170695491
7.637357916378006,0.0002561814417412176
7.937167617217536,0.00022880109289004894
8.248746552614573,0.00020433736513056475
8.572556731909314,0.00018248001251343506
8.909078300934132,0.00016295180938506685
9.258810253973934,0.0001455050269301997
9.622271173675122,0.0001299184460931778
9.999999999999984,0.000115995346336577
