k [1/Mpc],P(k) [Mpc^3]
0.0001,133.22700002701364
0.00010392556829367125,139.25717060257216
0.00010800523745162529,145.56013608824054
0.00011224505680853065,152.14821829134758
0.00011665131316981963,159.0342920902258
0.00012123054013376525,166.2318086146469
0.00012598952777950273,173.75482425163375
0.00013093533273536104,181.61803234780132
0.00013607528864243335,189.8367901616692
0.00014141701702890234,198.42714273274913
0.00014696843861124463,207.4058475726575
0.00015273778503907136,216.79041245323873
0.00015873361110102093,226.59911906164146
0.00016496480740980205,236.8510580442023
0.0001714406135851971,247.56618013848035
0.00017817063195457305,258.7653568860482
0.00018516484179121546,270.47040258874574
0.000192433614111598,282.7040735035495
0.00019998772705352857,295.4900965284534
0.0002078383818579757,308.8532557214293
0.00021599721947827182,322.8194764072419
0.0002244763378413224,337.4158551881626
0.0002332883097864157,352.6706665425354
0.00024244620170823283,368.6133844101527
0.0002519635929317015,385.2747801651336
0.0002618545958474233,402.6869998371163
0.0002721338768375308,420.88361894417017
0.0002828166780230032,439.8996808678651
0.0002939188398646886,459.77173156488567
0.0003054568246515432,480.53791236028223
0.00031744774091091926,502.23802116915033
0.00032990936877709396,524.9135827241572
0.00034286018635565856,548.607920209256
0.00035631939712285854,573.3661884011216
0.000370306958400514,599.2354819276944
0.00038484361094874304,626.2649027875474
0.0003999509097203664,654.5056309530622
0.00041565125582259895,684.01103220206
0.00043196792973341727,714.8367075721059
0.0004489251258218605,747.0406051834517
0.0004665479882234472,780.6830938921628
0.000484862648123908,815.8270148571917
0.000503896262506515,852.5378344550998
0.0005236770544204653,890.8836971905887
0.0005442343548300266,930.9355435203676
0.0005655986461065005,972.7672093360185
0.0005878016072274912,1016.4554375259274
0.0006108761607505036,1062.080077753102
0.0006348565216305217,1109.724162050504
0.0006597782479539537,1159.474014065301
0.0006856782936641739,1211.419377094749
0.0007125950633568407,1265.6533542916432
0.0007405684692262436,1322.2726495242914
0.0007696399902471156,1381.3776468218152
0.0007998527336796708,1443.0724700246265
0.000831251498989063,1507.465191646366
0.0008638828442740447,1574.667708107491
0.000897795155303332,1644.7959721688403
0.0009330387172620361,1717.9700934342143
0.0009696657893145519,1794.3142633589152
0.001007730682094461,1873.9570685087454
0.0010472898382363582,1957.0311954863027
0.0010884019160690055,2043.6735996639159
0.0011311278765939214,2134.0257577219522
0.001175531073878369,2228.2334050136596
0.0012216773489967915,2326.4469108284566
0.0012696351276599736,2428.820822698125
0.0013194755216767058,2535.513782153466
0.0013712724343984,2646.6890543866584
0.0014251026703029975,2762.51417652649
0.0014810460488806749,2883.161236932863
0.0015391855229902056,3008.806341909853
0.001599607301861487,3139.629063710812
0.0016624009789266115,3275.813183614391
0.0017276596646690358,3417.5458906186327
0.0017954801246878305,3565.0180064518595
0.0018659629231817451,3718.423713999341
0.001939212572065829,3877.9594747736533
0.0020153376859417325,4043.824804731592
0.002094451143151469,4216.221018254105
0.002176670253153458,4395.351064995928
0.002262116930469025,4581.419596684221
0.002350917875457286,4774.631076571855
0.002443204762186487,4975.190620975877
0.0025391144336803463,5183.302615496868
0.002638789104828933,5399.169767927768
0.002742376573264949,5622.993439978479
0.0028500304385181063,5854.970461393217
0.0029619103297725525,6095.293948593239
0.0030781821425650787,6344.151965286099
0.003199018284775064,6601.725204555364
0.0033245979322709396,6868.187909566049
0.003455107294592217,7143.702947281884
0.0035907398910610534,7428.422070425528
0.0037316968377327513,7722.485049403233
0.0038781871456107214,8026.014642970602
0.0040304280305680515,8339.118922320224
0.00418864523543527,8661.885494452985
0.004353073364731888,8994.379982265702
0.00452395623253805,9336.64450872765
0.004701547224022131,9688.68259928054
0.004886109671160325,10050.467713980264
0.005077917243205399,10421.953441733043
0.005277254352483535,10803.075339950668
0.005484416576121017,11193.728172087123
0.005699711094326071,11593.68969546461
0.005923457145875801,12002.65632236661
0.006155986501483508,12420.298547249742
0.006397643955748424,12846.28872377791
0.0066487878384172625,13280.24995052542
0.0069097905457156435,13721.66270628681
0.007181039092537346,14169.884860590777
0.007462935686310132,14624.21430054357
0.007755898323389004,15083.916874375558
0.00806036140886134,15548.192299755457
0.008376776400682916,16016.079847048022
0.008705612479099857,16486.451566603762
0.009047357242349292,16958.067944935923
0.00940251742967013,17429.51550119122
0.009771619672696168,17899.25553489012
0.010155211276345676,18365.603492351216
0.010553861030365234,18826.709189458765
0.010968160052731372,19280.595791571042
0.011398722666160517,19725.042976307705
0.011846187309026826,20157.661173412776
0.012311217482038896,20575.885889101286
0.012794502732078732,20976.897635338606
0.013296759674662111,21357.75737337573
0.013818733056536317,21715.271829002522
0.014361196859990781,22046.065749440906
0.014924955450518284,22346.64804473499
0.015510844769528393,22613.250211003404
0.016119733573881575,22842.069777538716
0.01675252472408214,23029.14215049463
0.017410156523040152,23170.383643033758
0.018093604107387147,23261.81024377212
0.01880388089340914,23299.29903395561
0.019542040079740527,23278.93216719144
0.02030917620904734,23196.977389517513
0.021106426791015535,23049.862816396297
0.021934973989050584,22834.56466129683
0.02279604637318978,22548.350488720975
0.023690920741826323,22189.135630026336
0.02462092401494623,21755.744455170876
0.02558743520168586,21247.91862395862
0.02659188744512693,20666.510934699567
0.027635770147361564,20012.96360941012
0.028720631177978267,19289.616358568856
0.029848079169243254,18500.94917275638
0.03101978590138095,17655.13446506418
0.03223748878149028,16761.559313595077
0.0335029934197723,15828.361686091961
0.03481817630688963,14862.568632063814
0.03618498759642746,13872.783289480269
0.037605453996581675,12871.69427132218
0.03908168177536263,11872.549188352921
0.04061585988376978,10889.481465182342
0.04221026320156896,9936.94973466931
0.04386725591048496,9027.815746501556
0.0455892949998106,8174.650936161066
0.047378933909631396,7387.042277724409
0.049238826317067365,6673.158698123927
0.05117173007114603,6038.055836599823
0.05318051128214196,5485.014992764701
0.05526814857144601,5014.750699061319
0.057437737488265785,4626.34475924353
0.0596924950997073,4317.113866897437
0.0620357647610427,4083.2049169858938
0.06447102107323864,3919.027119538959
0.06700187503509585,3817.180955804323
0.06963207939763882,3768.2095531513937
0.0723655342286965,3759.722657610322
0.07520629269592405,3776.2398502103256
0.07815856707684081,3799.6113270926703
0.08122673500479707,3809.92302965534
0.08441534596012978,3786.520331939067
0.0877291280161335,3709.863728349343
0.09117299484984914,3565.116306970309
0.09475205302806537,3346.1704994258416
0.09847160957933764,3058.3241419261726
0.1023371798632519,2719.257198032668
0.10635449574860109,2356.5281103527564
0.11052951411260206,2002.0046451085925
0.1148684256737553,1685.2143776069097
0.1193776641714435,1428.1989030996897
0.1240639159058831,1243.379941638588
0.12893412965257148,1134.21494267082
0.13399552696593373,1097.0407090441397
0.1392556128874462,1121.8085653619241
0.14472218707411338,1190.1538115745716
0.15040335536380234,1272.3228138271324
0.15630754179458153,1328.5765420275093
0.16244350109588662,1320.5209174105617
0.16882033167003618,1229.1149264240853
0.17544748908334581,1066.276790611906
0.1823348000868439,871.5415761598057
0.189492477187382,694.2466017144583
0.19693113379074215,571.5502680462815
0.20466179993919872,517.7476342299658
0.21269593866686892,528.0196881318639
0.22104546299710207,580.3467251882294
0.22972275360711503,632.8123060831564
0.23874067718606454,636.4721775840492
0.2481126055137766,569.1733660151748
0.25785243528842716,458.23314831287405
0.26797460873256895,358.0000815683544
0.27849413500806414,306.9285745203742
0.28942661247167484,310.57303150871
0.3007882518043098,344.36741789376356
0.31259590004822796,361.286574206445
0.324867065587837,326.73879635628873
0.3376199441111335,259.8837643512492
0.35087344559027084,210.02698619367658
0.36464722232127456,201.68081698606096
0.37896169806447155,219.30663473216703
0.3938380983288488,221.59068597397197
0.4092984818452433,188.7749403698198
0.4253657732750382,151.81725229899683
0.44206379720285277,141.84473951388205
0.45941731346364734,150.01637780405906
0.47745205385661277,143.51615688172743
0.4961947603002895,118.84126297489617
0.5156732244854959,104.83734646950505
0.5359163290848509,106.83649661564372
0.556954090580013,101.63527667752139
0.5788177037701272,85.9388120516896
0.6015395880274836,79.5084140763607
0.6251534353689703,78.48508399287945
0.6496942604146115,70.0272086525086
0.6751984523072497,60.67182515291759
0.7017038286703824,54.418852523354296
0.7292496916841444,50.15199601386422
0.7578768863625915,47.05014066899885
0.7876278611187046,44.51689151438477
0.8185467307069019,42.085963752343446
0.850679341636415,39.43869666860146
0.8840733401525058,36.617270280207364
0.9187782428863317,33.76061404179132
0.9548455102782278,30.979900493992204
0.9923286228832539,28.358245647511644
1.0312831606721837,25.953277073420622
1.0717668854455022,23.78581587370214
1.1138398264826193,21.827270277289962
1.1575643695533022,20.047224227434747
1.2030053494233226,18.420458777228674
1.2502301459914542,16.92606225814299
1.299308784200415,15.546799820281933
1.3503140378698726,14.271477441733929
1.4033215376054824,13.094065934736658
1.4584098829439835,12.008832020960094
1.5156607589006013,11.010085054739047
1.575159057091621,10.092232210411643
1.6369930016117014,9.249768994414739
1.7012542798525885,8.476786694797372
1.7680381784572046,7.767434491214919
1.8374437246107238,7.116374871085126
1.9095738328780953,6.518742223558868
1.9845354578058014,5.970098105510324
2.0624397525140905,5.4664158909545115
2.143402233514853,5.004128021643574
2.227542951999554,4.579973094028018
2.314986671851158,4.190930417245769
2.405863054644063,3.834204017912747
2.5003068519063225,3.5072075043006063
2.598458104929248,3.2075422002039087
2.7004623524206774,2.9329773349849684
2.806470846309834,2.6814569286945518
2.916640776023701,2.451089187255307
3.031135501567576,2.240133767723815
3.150124795755327,2.0469900419173603
3.2737850959485697,1.8701874009174753
3.4022997656780634,1.7083748466925133
3.5358593665351745,1.5603100262064769
3.6746619407366854,1.42485071194331
3.8189133047818515,1.3009470082758121
3.968827354637162,1.187634114713779
4.1246263829013445,1.0840254601659973
4.286541408420921,0.9893067097070501
4.4548125188449825,0.9027302025345298
4.629689226627261,0.8236096558789988
4.811430839003257,0.7513152724678235
5.000306842491082,0.6852691629020936
5.196597302486189,0.6249410065647344
5.400593278542364,0.5698444790289929
5.612597255954967,0.5195337712911618
5.8329235942862,0.47360029557118793
6.06189899349756,0.4316696525662445
6.29986297838068,0.39339903243417923
6.547168402004727,0.3584747578845215
6.804181968927091,0.32660946116161393
7.071284778942991,0.29753988854241603
7.348872892180382,0.2710249356863289
7.637357916378006,0.24684380079157547
7.937167617217536,0.22479351646111173
8.248746552614573,0.20468774234779458
8.572556731909314,0.18635636135903932
8.909078300934132,0.16964410502527483
9.258810253973934,0.15440925265557323
9.622271173675122,0.14052272793023787
9.999999999999984,0.1278689723267606
