k [1/Mpc],P(k) [Mpc^3]
0.0001,203.17087599551647
0.00010392556829367125,210.53496364974734
0.00010800523745162529,218.1657511997792
0.00011224505680853065,226.07287119323954
0.00011665131316981963,234.2662994107112
0.00012123054013376525,242.75636482026175
0.00012598952777950273,251.55376691934737
0.00013093533273536104,260.66959550188096
0.00013607528864243335,270.1153420711851
0.00014141701702890234,279.9029057129589
0.00014696843861124463,290.0445991950384
0.00015273778503907136,300.5531722773285
0.00015873361110102093,311.4418137459672
0.00016496480740980205,322.72416818314144
0.0001714406135851971,334.41437291492497
0.00017817063195457305,346.5271051653902
0.00018516484179121546,359.0775745569992
0.000192433614111598,372.08148522166897
0.00019998772705352857,385.5550375327836
0.0002078383818579757,399.51500377136705
0.00021599721947827182,413.9787959872571
0.0002244763378413224,428.9644606866786
0.0002332883097864157,444.49064331485084
0.00024244620170823283,460.57657232655043
0.0002519635929317015,477.24213775659643
0.0002618545958474233,494.50793930252615
0.0002721338768375308,512.3953036279202
0.0002828166780230032,530.9262798082178
0.0002939188398646886,550.1236295000716
0.0003054568246515432,570.0108853806347
0.00031744774091091926,590.6123683000951
0.00032990936877709396,611.9532128340494
0.00034286018635565856,634.0593918958897
0.00035631939712285854,656.957694687744
0.000370306958400514,680.675789795033
0.00038484361094874304,705.2422378266295
0.0003999509097203664,730.6865054481951
0.00041565125582259895,757.039018469104
0.00043196792973341727,784.3311466762874
0.0004489251258218605,812.5952557683104
0.0004665479882234472,841.8647139158912
0.000484862648123908,872.1738727740791
0.000503896262506515,903.5581552696971
0.0005236770544204653,936.0540321555444
0.0005442343548300266,969.6990656657434
0.0005655986461065005,1004.5319302523577
0.0005878016072274912,1040.5923404552432
0.0006108761607505036,1077.921171702998
0.0006348565216305217,1116.5604481516243
0.0006597782479539537,1156.5533628025266
0.0006856782936641739,1197.9443132426388
0.0007125950633568407,1240.7787494356617
0.0007405684692262436,1285.1033195752611
0.0007696399902471156,1330.965850996809
0.0007998527336796708,1378.4153111202543
0.000831251498989063,1427.5019096638453
0.0008638828442740447,1478.276880338747
0.000897795155303332,1530.7926041281942
0.0009330387172620361,1585.102602525651
0.0009696657893145519,1641.2613685099675
0.001007730682094461,1699.3245562381692
0.0010472898382363582,1759.3486121050787
0.0010884019160690055,1821.3908360979783
0.0011311278765939214,1885.509512253158
0.001175531073878369,1951.7635792552453
0.0012216773489967915,2020.212870001993
0.0012696351276599736,2090.9176217530976
0.0013194755216767058,2163.9383267015187
0.0013712724343984,2239.336108282095
0.0014251026703029975,2317.1723374439616
0.0014810460488806749,2397.508791822248
0.0015391855229902056,2480.4071355192623
0.001599607301861487,2565.9284090601477
0.0016624009789266115,2654.133594149512
0.0017276596646690358,2745.0829083742133
0.0017954801246878305,2838.835952715007
0.0018659629231817451,2935.4514592302157
0.001939212572065829,3034.986416790928
0.0020153376859417325,3137.4966838578443
0.002094451143151469,3243.03600762449
0.002176670253153458,3351.6559275540026
0.002262116930469025,3463.4058591106777
0.002350917875457286,3578.3317077291076
0.002443204762186487,3696.476585836689
0.0025391144336803463,3817.879856651678
0.002638789104828933,3942.576548585945
0.002742376573264949,4070.5977290509304
0.0028500304385181063,4201.96833844757
0.0029619103297725525,4336.707989085995
0.0030781821425650787,4474.830206722629
0.003199018284775064,4616.341032424048
0.0033245979322709396,4761.2399481277635
0.003455107294592217,4909.516743811882
0.0035907398910610534,5061.152088599947
0.0037316968377327513,5216.117319531372
0.0038781871456107214,5374.371464794273
0.0040304280305680515,5535.863312882351
0.00418864523543527,5700.528057228301
0.004353073364731888,5868.286903382675
0.00452395623253805,6039.046714680705
0.004701547224022131,6212.69098331009
0.004886109671160325,6389.086306832296
0.005077917243205399,6568.0896039539575
0.005277254352483535,6749.549757106833
0.005484416576121017,6933.293943908042
0.005699711094326071,7119.081865900111
0.005923457145875801,7306.630475142913
0.006155986501483508,7495.64942715966
0.006397643955748424,7685.85820656641
0.0066487878384172625,7876.955584826087
0.0069097905457156435,8068.565807395325
0.007181039092537346,8260.253684029445
0.007462935686310132,8451.56361360119
0.007755898323389004,8642.03678902698
0.00806036140886134,8831.19230469716
0.008376776400682916,9018.475339034483
0.008705612479099857,9203.256919329968
0.009047357242349292,9384.868336590087
0.00940251742967013,9562.569096569723
0.009771619672696168,9735.577038328207
0.010155211276345676,9903.059571162783
0.010553861030365234,10064.125879082954
0.010968160052731372,10217.850734003176
0.011398722666160517,10363.215288680683
0.011846187309026826,10499.150507083357
0.012311217482038896,10624.537198717793
0.012794502732078732,10738.168037669499
0.013296759674662111,10838.82098882468
0.013818733056536317,10925.193142732734
0.014361196859990781,10995.94122423819
0.014924955450518284,11049.717087478872
0.015510844769528393,11085.089808412102
0.016119733573881575,11100.66866477916
0.01675252472408214,11095.040829903352
0.017410156523040152,11066.794029372963
0.018093604107387147,11014.62128236615
0.01880388089340914,10937.20555025209
0.019542040079740527,10833.381366538031
0.02030917620904734,10702.120446060082
0.021106426791015535,10542.515261957555
0.021934973989050584,10353.95058258063
0.02279604637318978,10135.976304957245
0.023690920741826323,9888.459810163915
0.02462092401494623,9611.688224573434
0.02558743520168586,9306.354222048218
0.02659188744512693,8973.622685066868
0.027635770147361564,8614.885436642171
0.028720631177978267,8231.882243182616
0.029848079169243254,7827.210744430438
0.03101978590138095,7404.939335432044
0.03223748878149028,6969.511704337825
0.0335029934197723,6524.712158780072
0.03481817630688963,6073.7473563529375
0.03618498759642746,5620.35710076014
0.037605453996581675,5169.796904474117
0.03908168177536263,4727.365724746208
0.04061585988376978,4298.529214721086
0.04221026320156896,3888.6891995084416
0.04386725591048496,3502.436626441013
0.0455892949998106,3144.084968745141
0.047378933909631396,2816.6513985952565
0.049238826317067365,2522.5014633605033
0.05117173007114603,2262.7394917658976
0.05318051128214196,2037.7584799078295
0.05526814857144601,1846.9778869026463
0.057437737488265785,1689.2261663955096
0.0596924950997073,1562.718553134903
0.0620357647610427,1465.2978032580197
0.06447102107323864,1394.2493472195692
0.06700187503509585,1346.3016797888006
0.06963207939763882,1317.565285275442
0.0723655342286965,1303.2578972010078
0.07520629269592405,1297.6918729780348
0.07815856707684081,1294.4600322308152
0.08122673500479707,1286.7765330996115
0.08441534596012978,1267.8406773053543
0.0877291280161335,1231.4585655899573
0.09117299484984914,1173.2025748300214
0.09475205302806537,1091.653544019849
0.09847160957933764,989.1399303836299
0.1023371798632519,871.8905411522192
0.10635449574860109,749.068893005747
0.11052951411260206,630.8871424985373
0.1148684256737553,526.4767655178514
0.1193776641714435,442.33388249754734
0.1240639159058831,381.7709048824136
0.12893412965257148,345.2484942248079
0.13399552696593373,331.0523159404105
0.1392556128874462,335.6062936408006
0.14472218707411338,352.9814598564041
0.15040335536380234,374.09644040036136
0.15630754179458153,387.26682908682767
0.16244350109588662,381.5983275505709
0.16882033167003618,352.1203530959163
0.17544748908334581,302.8349882274611
0.1823348000868439,245.39271287178846
0.189492477187382,193.78705959596508
0.19693113379074215,158.16227434447433
0.20466179993919872,142.03783696265307
0.21269593866686892,143.60630281498544
0.22104546299710207,156.47623263231281
0.22972275360711503,169.15047340138588
0.23874067718606454,168.66119905553631
0.2481126055137766,149.52636898412993
0.25785243528842716,119.34306260863212
0.26797460873256895,92.43389627496869
0.27849413500806414,78.56387840239255
0.28942661247167484,78.81099160033051
0.3007882518043098,86.63284226163286
0.31259590004822796,90.105186521793
0.324867065587837,80.78600461856189
0.3376199441111335,63.701848102520216
0.35087344559027084,51.0370356993961
0.36464722232127456,48.586139381313686
0.37896169806447155,52.37656691198793
0.3938380983288488,52.46554856474609
0.4092984818452433,44.310282216416276
0.4253657732750382,35.32797623135133
0.44206379720285277,32.722639273838354
0.45941731346364734,34.309249961419276
0.47745205385661277,32.53949460570054
0.4961947603002895,26.712511608239392
0.5156732244854959,23.361511776349193
0.5359163290848509,23.60163120640036
0.556954090580013,22.258931535600738
0.5788177037701272,18.658926078568708
0.6015395880274836,17.113854964201277
0.6251534353689703,16.747860771894096
0.6496942604146115,14.814141480262283
0.6751984523072497,12.72430851813269
0.7017038286703824,11.314463586167587
0.7292496916841444,10.33737496397416
0.7578768863625915,9.614361147659196
0.7876278611187046,9.018240123645782
0.8185467307069019,8.452237632724756
0.850679341636415,7.852255716727802
0.8840733401525058,7.227619882206797
0.9187782428863317,6.6062823820966186
0.9548455102782278,6.009858863872213
0.9923286228832539,5.453823425427857
1.0312831606721837,4.948247047842562
1.0717668854455022,4.4958796993982455
1.1138398264826193,4.090096112510896
1.1575643695533022,3.7241382394669063
1.2030053494233226,3.3924186824089153
1.2502301459914542,3.0903124813848293
1.299308784200415,2.8140054020486884
1.3503140378698726,2.5608863999795997
1.4033215376054824,2.329342550137608
1.4584098829439835,2.1178591066514127
1.5156607589006013,1.924972044933147
1.575159057091621,1.7492764351138743
1.6369930016117014,1.5894232298133613
1.7012542798525885,1.4440338789328129
1.7680381784572046,1.3117805429534155
1.8374437246107238,1.1914610827991596
1.9095738328780953,1.0819876652189346
1.9845354578058014,0.98237528589058
2.0624397525140905,0.8917355666467354
2.143402233514853,0.8092808960042489
2.227542951999554,0.7342961675622944
2.314986671851158,0.6661257823267357
2.405863054644063,0.6041690437276565
2.5003068519063225,0.5478758673314341
2.598458104929248,0.4967416168429595
2.7004623524206774,0.45030247374266075
2.806470846309834,0.40813506557741214
2.916640776023701,0.3698534348383626
3.031135501567576,0.33510580649887556
3.150124795755327,0.303571634212249
3.2737850959485697,0.2749590659033376
3.4022997656780634,0.24900240597706708
3.5358593665351745,0.22545960012130678
3.6746619407366854,0.2041101750329503
3.8189133047818515,0.1847533646476171
3.968827354637162,0.16720639055972003
4.1246263829013445,0.15130286386773828
4.286541408420921,0.13689137278917543
4.4548125188449825,0.12383418641947258
4.629689226627261,0.11200604702270829
4.811430839003257,0.10129306577932923
5.000306842491082,0.09159170550389555
5.196597302486189,0.08280783643088624
5.400593278542364,0.0748559313687718
5.612597255954967,0.06765830520831433
5.8329235942862,0.06114440940408372
6.06189899349756,0.055250188706771196
6.29986297838068,0.04991751918919848
6.547168402004727,0.045093686832256875
6.804181968927091,0.04073084158828138
7.071284778942991,0.036785551939755294
7.348872892180382,0.0332184060100431
7.637357916378006,0.02999364327565448
7.937167617217536,0.027078726533095475
8.248746552614573,0.024444082980350758
8.572556731909314,0.022062950664601493
8.909078300934132,0.019911116011891404
9.258810253973934,0.01796667074460396
9.622271173675122,0.016209824702697256
9.999999999999984,0.014622929266543058
