k [1/Mpc],P(k) [Mpc^3]
0.0001,334.9721785871679
0.00010392556829367125,347.11351031068267
0.00010800523745162529,359.6945447069407
0.00011224505680853065,372.7311588536238
0.00011665131316981963,386.2398035286145
0.00012123054013376525,400.23752961393507
0.00012598952777950273,414.7420018650333
0.00013093533273536104,429.7714991596647
0.00013607528864243335,445.3449367547582
0.00014141701702890234,461.4819065413054
0.00014696843861124463,478.2027066514844
0.00015273778503907136,495.52836223035075
0.00015873361110102093,513.4806434240985
0.00016496480740980205,532.0820887570342
0.0001714406135851971,551.3560374480302
0.00017817063195457305,571.3266468498167
0.00018516484179121546,592.0189266528047
0.000192433614111598,613.4587522606614
0.00019998772705352857,635.6728679575864
0.0002078383818579757,658.6889553792954
0.00021599721947827182,682.5357087795485
0.0002244763378413224,707.2428623541352
0.0002332883097864157,732.8411690326035
0.00024244620170823283,759.362352998249
0.0002519635929317015,786.8392181204043
0.0002618545958474233,815.3057206689091
0.0002721338768375308,844.7970110739726
0.0002828166780230032,875.3494437338903
0.0002939188398646886,907.0005415273328
0.0003054568246515432,939.7890816407369
0.00031744774091091926,973.7551562478127
0.00032990936877709396,1008.9402080662594
0.00034286018635565856,1045.3870733882288
0.00035631939712285854,1083.1399214017147
0.000370306958400514,1122.2443334763946
0.00038484361094874304,1162.7473948772204
0.0003999509097203664,1204.6977210236003
0.00041565125582259895,1248.1455190328782
0.00043196792973341727,1293.1425218413694
0.0004489251258218605,1339.7420327333245
0.0004665479882234472,1387.9990413830533
0.000484862648123908,1437.9701863753037
0.000503896262506515,1489.7138660040036
0.0005236770544204653,1543.2902207242441
0.0005442343548300266,1598.7611321162817
0.0005655986461065005,1656.1903473901816
0.0005878016072274912,1715.6433445588402
0.0006108761607505036,1777.1874669488352
0.0006348565216305217,1840.8920139767652
0.0006597782479539537,1906.8282334376204
0.0006856782936641739,1975.0694010576728
0.0007125950633568407,2045.6904855896391
0.0007405684692262436,2118.768248588103
0.0007696399902471156,2194.3814699637796
0.0007998527336796708,2272.6108108244416
0.000831251498989063,2353.538988270775
0.0008638828442740447,2437.2506132401663
0.000897795155303332,2523.8321537194406
0.0009330387172620361,2613.372041632184
0.0009696657893145519,2705.960004777279
0.001007730682094461,2801.687483828441
0.0010472898382363582,2900.6476127840947
0.0010884019160690055,3002.934963670478
0.0011311278765939214,3108.6458354273277
0.001175531073878369,3217.877549771076
0.0012216773489967915,3330.728645748936
0.0012696351276599736,3447.2987537124172
0.0013194755216767058,3567.6876142346305
0.0013712724343984,3691.995923184044
0.0014251026703029975,3820.324979438729
0.0014810460488806749,3952.7765685824884
0.0015391855229902056,4089.452793326084
0.001599607301861487,4230.454329534177
0.0016624009789266115,4375.8814391325
0.0017276596646690358,4525.8336176385
0.0017954801246878305,4680.409026917101
0.0018659629231817451,4839.704855278353
0.001939212572065829,5003.815594360923
0.0020153376859417325,5172.833499795223
0.002094451143151469,5346.848034266033
0.002176670253153458,5525.944214813458
0.002262116930469025,5710.203829206114
0.002350917875457286,5899.703849972036
0.002443204762186487,6094.516280030694
0.0025391144336803463,6294.707911156325
0.002638789104828933,6500.337598930504
0.002742376573264949,6711.457716436373
0.0028500304385181063,6928.111937023345
0.0029619103297725525,7150.33407809854
0.0030781821425650787,7378.149160061067
0.003199018284775064,7611.569544896252
0.0033245979322709396,7850.596341694262
0.003455107294592217,8095.217818105009
0.0035907398910610534,8345.406686816747
0.0037316968377327513,8601.121986214872
0.0038781871456107214,8862.302886599735
0.0040304280305680515,9128.86982798779
0.00418864523543527,9400.72506765283
0.004353073364731888,9677.747991541482
0.00452395623253805,9959.797790090808
0.004701547224022131,10246.701010521818
0.004886109671160325,10538.250324015262
0.005077917243205399,10834.216984132412
0.005277254352483535,11134.361200804266
0.005484416576121017,11438.422564991397
0.005699711094326071,11746.07186204408
0.005923457145875801,12056.886366450584
0.006155986501483508,12370.40537184952
0.006397643955748424,12686.156546704364
0.0066487878384172625,13003.644707061767
0.0069097905457156435,13322.335294561028
0.007181039092537346,13641.646801850287
0.007462935686310132,13960.957026882557
0.007755898323389004,14279.556254181438
0.00806036140886134,14596.656666794448
0.008376776400682916,14911.417195935357
0.008705612479099857,15222.91624165401
0.009047357242349292,15530.179699804514
0.00940251742967013,15832.159382039621
0.009771619672696168,16127.728467448924
0.010155211276345676,16415.708511843102
0.010553861030365234,16694.823543843464
0.010968160052731372,16963.73950351224
0.011398722666160517,17221.049382437803
0.011846187309026826,17465.24387471658
0.012311217482038896,17694.777553443007
0.012794502732078732,17908.014587295133
0.013296759674662111,18103.268391979855
0.013818733056536317,18278.82437209178
0.014361196859990781,18432.88955825081
0.014924955450518284,18563.683124933672
0.015510844769528393,18669.39882046565
0.016119733573881575,18748.22897626475
0.01675252472408214,18798.43490544423
0.017410156523040152,18818.307572524787
0.018093604107387147,18806.249340361435
0.01880388089340914,18760.79757357142
0.019542040079740527,18680.639566073874
0.02030917620904734,18564.679854158472
0.021106426791015535,18412.112648103423
0.021934973989050584,18222.415865264884
0.02279604637318978,17995.412754520938
0.023690920741826323,17731.365853956224
0.02462092401494623,17430.881170308367
0.02558743520168586,17095.28669264634
0.02659188744512693,16726.478759277135
0.027635770147361564,16326.656970069931
0.028720631177978267,15898.493035946165
0.029848079169243254,15444.906149891196
0.03101978590138095,14970.504982611663
0.03223748878149028,14481.528534914445
0.0335029934197723,13983.588087431946
0.03481817630688963,13480.235191631407
0.03618498759642746,12974.208667747467
0.037605453996581675,12470.191136300502
0.03908168177536263,11976.014177889681
0.04061585988376978,11498.688847334435
0.04221026320156896,11043.694315431188
0.04386725591048496,10615.377919502784
0.0455892949998106,10216.955261252626
0.047378933909631396,9850.698254649851
0.049238826317067365,9517.292082197442
0.05117173007114603,9215.961185612225
0.05318051128214196,8944.564196022377
0.05526814857144601,8699.766896937082
0.057437737488265785,8476.54540562125
0.0596924950997073,8268.655800698994
0.0620357647610427,8068.124064548485
0.06447102107323864,7865.773802759241
0.06700187503509585,7651.591096166202
0.06963207939763882,7415.688206841373
0.0723655342286965,7150.099411779847
0.07520629269592405,6849.748996804623
0.07815856707684081,6513.9400957509815
0.08122673500479707,6148.666987380965
0.08441534596012978,5762.756619102615
0.0877291280161335,5367.46669128292
0.09117299484984914,4977.793880425582
0.09475205302806537,4610.185241422216
0.09847160957933764,4280.243546267556
0.1023371798632519,4000.1485912250846
0.10635449574860109,3775.9365513576377
0.11052951411260206,3605.778985977292
0.1148684256737553,3479.8549128609493
0.1193776641714435,3381.477904264254
0.1240639159058831,3289.3339036947386
0.12893412965257148,3181.350211976163
0.13399552696593373,3040.182839976095
0.1392556128874462,2858.666524378569
0.14472218707411338,2642.9097986770153
0.15040335536380234,2411.8273129747636
0.15630754179458153,2191.922428734228
0.16244350109588662,2007.518830848955
0.16882033167003618,1871.5054012786188
0.17544748908334581,1782.026438345172
0.1823348000868439,1722.8123053428396
0.189492477187382,1666.7534656893329
0.19693113379074215,1587.6529365043991
0.20466179993919872,1475.4222039415913
0.21269593866686892,1341.4355814305513
0.22104546299710207,1211.7268023737959
0.22972275360711503,1110.6509776379446
0.23874067718606454,1045.6961559943634
0.2481126055137766,1003.4545718104501
0.25785243528842716,958.1970821170928
0.26797460873256895,892.1190461916653
0.27849413500806414,810.1651184399255
0.28942661247167484,734.344774632149
0.3007882518043098,681.0490550332504
0.31259590004822796,646.0330989576706
0.324867065587837,610.3388385497125
0.3376199441111335,562.0887795125107
0.35087344559027084,510.16107926001746
0.36464722232127456,469.7242100679647
0.37896169806447155,441.35080974580364
0.3938380983288488,412.45039050465607
0.4092984818452433,377.4942655945453
0.4253657732750382,345.2432392016167
0.44206379720285277,321.1276004215496
0.45941731346364734,298.7505209198426
0.47745205385661277,273.77226240538954
0.4961947603002895,251.34983453996944
0.5156732244854959,233.13061588807966
0.5359163290848509,214.8334998834361
0.556954090580013,196.91419228997023
0.5788177037701272,181.73039497126703
0.6015395880274836,167.34887595123254
0.6251534353689703,153.53995639830526
0.6496942604146115,141.2731375730105
0.6751984523072497,129.86986149420818
0.7017038286703824,119.29679382104653
0.7292496916841444,109.5174445416531
0.7578768863625915,100.48589432514144
0.7876278611187046,92.15678373474339
0.8185467307069019,84.48567137414628
0.850679341636415,77.42923514633505
0.8840733401525058,70.94274392981039
0.9187782428863317,64.98085685728937
0.9548455102782278,59.50169588995836
0.9923286228832539,54.466783924253775
1.0312831606721837,49.84075574096052
1.0717668854455022,45.59118319029547
1.1138398264826193,41.688991775233156
1.1575643695533022,38.107602813592656
1.2030053494233226,34.82226773471682
1.2502301459914542,31.80996023717887
1.299308784200415,29.049277216382105
1.3503140378698726,26.520299915355885
1.4033215376054824,24.20441102757556
1.4584098829439835,22.084372115153524
1.5156607589006013,20.14426856279109
1.575159057091621,18.369414741209038
1.6369930016117014,16.746265463500738
1.7012542798525885,15.262341831763349
1.7680381784572046,13.90615494471683
1.8374437246107238,12.667117593484805
1.9095738328780953,11.53547702044587
1.9845354578058014,10.502253569194286
2.0624397525140905,9.559182917843117
2.143402233514853,8.698657070450144
2.227542951999554,7.913678772506263
2.314986671851158,7.197820207692328
2.405863054644063,6.545179158849662
2.5003068519063225,5.950338194911973
2.598458104929248,5.408326814996309
2.7004623524206774,4.914586361470434
2.806470846309834,4.464937484062998
2.916640776023701,4.055550022572426
3.031135501567576,3.6829151406161476
3.150124795755327,3.343819547426345
3.2737850959485697,3.035321102208741
3.4022997656780634,2.7547264550653403
3.5358593665351745,2.499572081869184
3.6746619407366854,2.267605570253477
3.8189133047818515,2.056768188737261
3.968827354637162,1.865178825970038
4.1246263829013445,1.6911191619996686
4.286541408420921,1.5330200782043513
4.4548125188449825,1.3894491827057938
4.629689226627261,1.2590992890007664
4.811430839003257,1.140777823489601
5.000306842491082,1.0333969959815885
5.196597302486189,0.9359643567004972
5.400593278542364,0.8475752049687942
5.612597255954967,0.76740534547234
5.8329235942862,0.6947041071179354
6.06189899349756,0.6287879479747532
6.29986297838068,0.5690348879344119
6.547168402004727,0.5148795192016705
6.804181968927091,0.4658071932650788
7.071284778942991,0.4213494484736943
7.348872892180382,0.3810799918445398
7.637357916378006,0.3446109809380706
7.937167617217536,0.3115884545196221
8.248746552614573,0.28168950511045576
8.572556731909314,0.25462126743828145
8.909078300934132,0.23011822639170842
9.258810253973934,0.20793965964390687
9.622271173675122,0.18786769456124847
9.999999999999984,0.16970819012494553
