k [1/Mpc],P(k) [Mpc^3]
0.0001,334.9721743974549
0.00010392556829367125,347.11347587597436
0.00010800523745162529,359.69450068766764
0.00011224505680853065,372.73112811685587
0.00011665131316981963,386.2398065050537
0.00012123054013376525,400.23756969270636
0.00012598952777950273,414.74206078099917
0.00013093533273536104,429.77155397992806
0.00013607528864243335,445.3449760539243
0.00014141701702890234,461.4819308171008
0.00014696843861124463,478.20271999855095
0.00015273778503907136,495.52836918917154
0.00015873361110102093,513.4806515597177
0.00016496480740980205,532.0821075954944
0.0001714406135851971,551.3560779730495
0.00017817063195457305,571.3267080151759
0.00018516484179121546,592.018975435654
0.000192433614111598,613.4587435237702
0.00019998772705352857,635.6728066029901
0.0002078383818579757,658.6889111592542
0.00021599721947827182,682.5357476482828
0.0002244763378413224,707.2429611349462
0.0002332883097864157,732.8412309589254
0.00024244620170823283,759.3623252205633
0.0002519635929317015,786.8391308282761
0.0002618545958474233,815.305648352226
0.0002721338768375308,844.7969737779598
0.0002828166780230032,875.3493998365198
0.0002939188398646886,907.0004658420745
0.0003054568246515432,939.7889986930946
0.00031744774091091926,973.7551276973129
0.00032990936877709396,1008.9402312988345
0.00034286018635565856,1045.3870529443966
0.00035631939712285854,1083.1397799672811
0.000370306958400514,1122.2440922277424
0.00038484361094874304,1162.7471739451428
0.0003999509097203664,1204.697581015282
0.00041565125582259895,1248.1453701171038
0.00043196792973341727,1293.1422280547695
0.0004489251258218605,1339.7415231392852
0.0004665479882234472,1387.9983365623004
0.000484862648123908,1437.9693335480615
0.000503896262506515,1489.7128318336383
0.0005236770544204653,1543.2889424554976
0.0005442343548300266,1598.7595353389718
0.0005655986461065005,1656.1883521146392
0.0005878016072274912,1715.6409367886586
0.0006108761607505036,1777.1846289466228
0.0006348565216305217,1840.8887213048345
0.0006597782479539537,1906.8243206452084
0.0006856782936641739,1975.0644903764285
0.0007125950633568407,2045.684258730878
0.0007405684692262436,2118.7605242560558
0.0007696399902471156,2194.3722410258924
0.0007998527336796708,2272.6001370760605
0.000831251498989063,2353.5268097251937
0.0008638828442740447,2437.2368317379587
0.000897795155303332,2523.816413217884
0.0009330387172620361,2613.353727284757
0.0009696657893145519,2705.9386908365304
0.001007730682094461,2801.662883537958
0.0010472898382363582,2900.619721037299
0.0010884019160690055,3002.9037194224197
0.0011311278765939214,3108.610905675985
0.001175531073878369,3217.838687965786
0.0012216773489967915,3330.6854277676966
0.0012696351276599736,3447.250864515754
0.0013194755216767058,3567.635110303558
0.0013712724343984,3691.9388396289264
0.0014251026703029975,3820.263529803028
0.0014810460488806749,3952.710733945083
0.0015391855229902056,4089.382512204632
0.001599607301861487,4230.380173760357
0.0016624009789266115,4375.803906407013
0.0017276596646690358,4525.753532010807
0.0017954801246878305,4680.32733081622
0.0018659629231817451,4839.622477725788
0.001939212572065829,5003.734020792499
0.0020153376859417325,5172.753653846124
0.002094451143151469,5346.770857094779
0.002176670253153458,5525.871390104416
0.002262116930469025,5710.137412061513
0.002350917875457286,5899.647023835909
0.002443204762186487,6094.472178057868
0.0025391144336803463,6294.679920445979
0.002638789104828933,6500.330384291944
0.002742376573264949,6711.476182229222
0.0028500304385181063,6928.162990832294
0.0029619103297725525,7150.426760735782
0.0030781821425650787,7378.29475189888
0.003199018284775064,7611.782995129784
0.0033245979322709396,7850.893821827631
0.003455107294592217,8095.618277259216
0.0035907398910610534,8345.93242131037
0.0037316968377327513,8601.79797636697
0.0038781871456107214,8863.160798930405
0.0040304280305680515,9129.945791352555
0.00418864523543527,9402.060766425311
0.004353073364731888,9679.392411459716
0.00452395623253805,9961.80562104393
0.004701547224022131,10249.142676464782
0.004886109671160325,10541.21042401636
0.005077917243205399,10837.788925209918
0.005277254352483535,11138.640080482426
0.005484416576121017,11443.509908229835
0.005699711094326071,11752.113372792406
0.005923457145875801,12064.076777288867
0.006155986501483508,12378.9637990802
0.006397643955748424,12696.311760358903
0.0066487878384172625,13015.645174388772
0.0069097905457156435,13336.458241562861
0.007181039092537346,13658.208467700355
0.007462935686310132,13980.317221693369
0.007755898323389004,14302.157607467583
0.00806036140886134,14623.008198448473
0.008376776400682916,14942.093266264608
0.008705612479099857,15258.576854130637
0.009047357242349292,15571.556347291777
0.00940251742967013,15880.083162357207
0.009771619672696168,16183.136118187309
0.010155211276345676,16479.64164972822
0.010553861030365234,16768.472357768907
0.010968160052731372,17048.4283952618
0.011398722666160517,17318.27117458965
0.011846187309026826,17576.68115373855
0.012311217482038896,17822.27707420318
0.012794502732078732,18053.647348672774
0.013296759674662111,18269.322564684113
0.013818733056536317,18467.820306019297
0.014361196859990781,18647.628808524478
0.014924955450518284,18807.21074125681
0.015510844769528393,18945.052740642062
0.016119733573881575,19059.656267917715
0.01675252472408214,19149.570010872812
0.017410156523040152,19213.41619478739
0.018093604107387147,19249.905919562327
0.01880388089340914,19257.862220896943
0.019542040079740527,19236.29916275051
0.02030917620904734,19184.41237539201
0.021106426791015535,19101.59574699992
0.021934973989050584,18987.556282922662
0.02279604637318978,18842.210482432387
0.023690920741826323,18665.945390149715
0.02462092401494623,18459.62354065226
0.02558743520168586,18224.29923010099
0.02659188744512693,17961.335376548304
0.027635770147361564,17672.280769498997
0.028720631177978267,17359.75702728926
0.029848079169243254,17028.05191596384
0.03101978590138095,16681.30600665991
0.03223748878149028,16321.91842663323
0.0335029934197723,15951.311114236989
0.03481817630688963,15571.931275804758
0.03618498759642746,15189.09526522631
0.037605453996581675,14808.199268600774
0.03908168177536263,14433.854251385828
0.04061585988376978,14069.945109476857
0.04221026320156896,13719.614442671997
0.04386725591048496,13384.507506683229
0.0455892949998106,13065.598885154122
0.047378933909631396,12761.955583688463
0.049238826317067365,12471.731761898569
0.05117173007114603,12191.820993044248
0.05318051128214196,11918.398648455495
0.05526814857144601,11646.677961862224
0.057437737488265785,11371.38558326534
0.0596924950997073,11086.458607399505
0.0620357647610427,10785.669318924487
0.06447102107323864,10462.837844920416
0.06700187503509585,10113.094896030872
0.06963207939763882,9733.985131122254
0.0723655342286965,9326.684704222975
0.07520629269592405,8896.536782258014
0.07815856707684081,8453.056145973485
0.08122673500479707,8008.8223171560385
0.08441534596012978,7576.978089635278
0.0877291280161335,7168.636492837778
0.09117299484984914,6793.429250487046
0.09475205302806537,6459.365424738317
0.09847160957933764,6169.779772130794
0.1023371798632519,5921.557287365531
0.10635449574860109,5704.649179485597
0.11052951411260206,5503.433621274881
0.1148684256737553,5300.086608345688
0.1193776641714435,5078.807561979744
0.1240639159058831,4830.0189143310145
0.12893412965257148,4553.7827264341795
0.13399552696593373,4260.646796532975
0.1392556128874462,3968.6942887466644
0.14472218707411338,3698.1732849653563
0.15040335536380234,3465.383382018496
0.15630754179458153,3276.0449915681743
0.16244350109588662,3121.44798954858
0.16882033167003618,2982.7677592892087
0.17544748908334581,2839.9725623772188
0.1823348000868439,2678.885799073649
0.189492477187382,2498.4684986967727
0.19693113379074215,2313.620549672222
0.20466179993919872,2144.744187139318
0.21269593866686892,2004.9438584049085
0.22104546299710207,1892.662963762812
0.22972275360711503,1792.1373148290388
0.23874067718606454,1686.0095816992737
0.2481126055137766,1568.678617667455
0.25785243528842716,1450.1045036934481
0.26797460873256895,1344.630852320472
0.27849413500806414,1257.7303640930302
0.28942661247167484,1181.3225702445388
0.3007882518043098,1103.1620686665547
0.31259590004822796,1021.4737870525805
0.324867065587837,944.7276789775284
0.3376199441111335,878.7854091804428
0.35087344559027084,819.9180103670973
0.36464722232127456,761.4292681942172
0.37896169806447155,703.7025237746464
0.3938380983288488,651.681255381763
0.4092984818452433,605.1835527707816
0.4253657732750382,560.6632039170233
0.44206379720285277,517.8324770345225
0.45941731346364734,478.96475932341855
0.47745205385661277,443.20988444652016
0.4961947603002895,409.23987624725896
0.5156732244854959,377.70792347785346
0.5359163290848509,348.7814131688745
0.556954090580013,321.66568105652107
0.5788177037701272,296.50858262855087
0.6015395880274836,273.3094330694501
0.6251534353689703,251.70991741734346
0.6496942604146115,231.72881975355332
0.6751984523072497,213.25342277130923
0.7017038286703824,196.1658602776235
0.7292496916841444,180.36373520523333
0.7578768863625915,165.75946279565636
0.7876278611187046,152.27095337840993
0.8185467307069019,139.82078612016667
0.850679341636415,128.33604713673125
0.8840733401525058,117.74809461753884
0.9187782428863317,107.99189200053553
0.9548455102782278,99.00630805955069
0.9923286228832539,90.73428979625032
1.0312831606721837,83.12263324833863
1.0717668854455022,76.12175980890628
1.1138398264826193,69.6855158800922
1.1575643695533022,63.770989660139875
1.2030053494233226,58.33827063814245
1.2502301459914542,53.350257560284525
1.299308784200415,48.7724850509758
1.3503140378698726,44.57295798741131
1.4033215376054824,40.72197952850597
1.4584098829439835,37.19200626500454
1.5156607589006013,33.957527902158986
1.575159057091621,30.99493256566741
1.6369930016117014,28.282378496941224
1.7012542798525885,25.79967151492195
1.7680381784572046,23.528142134421753
1.8374437246107238,21.450548923941863
1.9095738328780953,19.550983368110177
1.9845354578058014,17.814774395377608
2.0624397525140905,16.228398964833325
2.143402233514853,14.779396474815968
2.227542951999554,13.456288637905658
2.314986671851158,12.248511984831357
2.405863054644063,11.146350200608502
2.5003068519063225,10.140870184631972
2.598458104929248,9.223862454973766
2.7004623524206774,8.387784208592459
2.806470846309834,7.625708651444868
2.916640776023701,6.931279096679778
3.031135501567576,6.298664447173494
3.150124795755327,5.722517845888036
3.2737850959485697,5.197938047045709
3.4022997656780634,4.720432604612393
3.5358593665351745,4.2858868429191475
3.6746619407366854,3.890534164506936
3.8189133047818515,3.5309278007982567
3.968827354637162,3.2039147331202535
4.1246263829013445,2.9066115856513806
4.286541408420921,2.6363824099077267
4.4548125188449825,2.390818339004055
4.629689226627261,2.1677187469972443
4.811430839003257,1.9650738858736778
5.000306842491082,1.781048838461623
5.196597302486189,1.6139679029952774
5.400593278542364,1.4623016951114374
5.612597255954967,1.3246556455760476
5.8329235942862,1.1997584697293582
6.06189899349756,1.0864515645769155
6.29986297838068,0.9836796062504268
6.547168402004727,0.890482632720209
6.804181968927091,0.8059863364943441
7.071284778942991,0.7293941846597631
7.348872892180382,0.6599807313777298
7.637357916378006,0.5970854570026131
7.937167617217536,0.5401053115130615
8.248746552614573,0.4884891457595446
8.572556731909314,0.4417366465429998
8.909078300934132,0.39939397623537193
9.258810253973934,0.3610494490995876
9.622271173675122,0.32633013855371135
9.999999999999984,0.29490368240346615
