k [1/Mpc],P(k) [Mpc^3]
0.0001,603.166510745079
0.00010392556829367125,623.2181196847949
0.00010800523745162529,643.9350010451307
0.00011224505680853065,665.3390789090629
0.00011665131316981963,687.4529754398824
0.00012123054013376525,710.3000464153486
0.00012598952777950273,733.9044031247116
0.00013093533273536104,758.2909373252045
0.00013607528864243335,783.485313303039
0.00014141701702890234,809.5139658194225
0.00014696843861124463,836.4041708806138
0.00015273778503907136,864.1840831428939
0.00015873361110102093,892.882760628314
0.00016496480740980205,922.5301768314114
0.0001714406135851971,953.1572258968006
0.00017817063195457305,984.7957720524402
0.00018516484179121546,1017.4786209558515
0.000192433614111598,1051.2395460753496
0.00019998772705352857,1086.113359705878
0.0002078383818579757,1122.1359027385702
0.00021599721947827182,1159.3441052567093
0.0002244763378413224,1197.7760009059148
0.0002332883097864157,1237.470739231544
0.00024244620170823283,1278.4686425377465
0.0002519635929317015,1320.8111410032684
0.0002618545958474233,1364.5408465908338
0.0002721338768375308,1409.7015622592162
0.0002828166780230032,1456.3381971317003
0.0002939188398646886,1504.4969295180892
0.0003054568246515432,1554.2252491326979
0.00031744774091091926,1605.5719897382503
0.00032990936877709396,1658.5872906247382
0.00034286018635565856,1713.3223563776587
0.00035631939712285854,1769.8296948535742
0.000370306958400514,1828.1631579890943
0.00038484361094874304,1888.3779374614949
0.0003999509097203664,1950.5306180564985
0.00041565125582259895,2014.6788935607417
0.00043196792973341727,2080.8817414731443
0.0004489251258218605,2149.1995042080734
0.0004665479882234472,2219.693801604797
0.000484862648123908,2292.4276525063806
0.000503896262506515,2367.4651354449584
0.0005236770544204653,2444.8714535977147
0.0005442343548300266,2524.7131106525435
0.0005655986461065005,2607.057675714671
0.0005878016072274912,2691.973978262736
0.0006108761607505036,2779.5317973101955
0.0006348565216305217,2869.801729460597
0.0006597782479539537,2962.855443278837
0.0006856782936641739,3058.7650680988813
0.0007125950633568407,3157.603503960389
0.0007405684692262436,3259.444330886362
0.0007696399902471156,3364.361436518458
0.0007998527336796708,3472.429337340748
0.000831251498989063,3583.7221799341064
0.0008638828442740447,3698.313905599716
0.000897795155303332,3816.2783975994034
0.0009330387172620361,3937.688455897974
0.0009696657893145519,4062.6165247778886
0.001007730682094461,4191.133880658507
0.0010472898382363582,4323.310315652382
0.0010884019160690055,4459.214499443534
0.0011311278765939214,4598.912173679564
0.001175531073878369,4742.467017302672
0.0012216773489967915,4889.940350382419
0.0012696351276599736,5041.390295899848
0.0013194755216767058,5196.872321747837
0.0013712724343984,5356.436993947744
0.0014251026703029975,5520.130385039492
0.0014810460488806749,5687.994192963457
0.0015391855229902056,5860.0638639711515
0.001599607301861487,6036.369779832463
0.0016624009789266115,6216.935326724637
0.0017276596646690358,6401.776383613371
0.0017954801246878305,6590.902019855091
0.0018659629231817451,6784.3117910281735
0.001939212572065829,6981.9969494891475
0.0020153376859417325,7183.938744637995
0.002094451143151469,7390.106589977135
0.002176670253153458,7600.459894407113
0.002262116930469025,7814.945218166215
0.002350917875457286,8033.496853060301
0.002443204762186487,8256.03562832292
0.0025391144336803463,8482.464989603266
0.002638789104828933,8712.674166703942
0.002742376573264949,8946.534498085479
0.0028500304385181063,9183.899112243018
0.0029619103297725525,9424.603727381362
0.0030781821425650787,9668.460030859369
0.003199018284775064,9915.260047204407
0.0033245979322709396,10164.772402174696
0.003455107294592217,10416.739379145121
0.0035907398910610534,10670.881427882876
0.0037316968377327513,10926.888318872243
0.0038781871456107214,11184.423404973679
0.0040304280305680515,11443.116453748924
0.00418864523543527,11702.548230728049
0.004353073364731888,11962.27177653119
0.00452395623253805,12221.83314679249
0.004701547224022131,12480.768918383586
0.004886109671160325,12738.560121440967
0.005077917243205399,12994.533344294869
0.005277254352483535,13247.951377072046
0.005484416576121017,13498.07097299899
0.005699711094326071,13744.15307172931
0.005923457145875801,13985.431658312873
0.006155986501483508,14221.096785784332
0.006397643955748424,14450.307301831584
0.0066487878384172625,14672.149482640032
0.0069097905457156435,14885.585283013803
0.007181039092537346,15089.536871202581
0.007462935686310132,15282.834035060618
0.007755898323389004,15464.241108516517
0.00806036140886134,15632.483933490083
0.008376776400682916,15786.192206541264
0.008705612479099857,15923.976127723086
0.009047357242349292,16044.362972452085
0.00940251742967013,16145.798525081018
0.009771619672696168,16226.725551941117
0.010155211276345676,16285.444440519439
0.010553861030365234,16320.252304255744
0.010968160052731372,16329.41481661698
0.011398722666160517,16311.100206896448
0.011846187309026826,16263.570502158003
0.012311217482038896,16184.990356607952
0.012794502732078732,16073.575577075437
0.013296759674662111,15927.662971025313
0.013818733056536317,15745.512093190024
0.014361196859990781,15525.657999013192
0.014924955450518284,15266.6999980751
0.015510844769528393,14967.392750067404
0.016119733573881575,14626.925240679315
0.01675252472408214,14244.54399557795
0.017410156523040152,13820.053282371631
0.018093604107387147,13353.67549593378
0.01880388089340914,12845.94941961686
0.019542040079740527,12298.313651303324
0.02030917620904734,11712.564350300361
0.021106426791015535,11091.350809857508
0.021934973989050584,10438.203441862892
0.02279604637318978,9757.023550742966
0.023690920741826323,9052.99244994486
0.02462092401494623,8332.004984438794
0.02558743520168586,7600.808189558274
0.02659188744512693,6867.0153370612115
0.027635770147361564,6137.779864512026
0.028720631177978267,5421.222235562305
0.029848079169243254,4726.713569002095
0.03101978590138095,4064.127902009065
0.03223748878149028,3442.2205273829213
0.0335029934197723,2865.86950865154
0.03481817630688963,2339.38641158591
0.03618498759642746,1868.5049656976742
0.037605453996581675,1458.6472076988935
0.03908168177536263,1111.7900636566906
0.04061585988376978,826.5286894235049
0.04221026320156896,599.017593704428
0.04386725591048496,424.0397598259551
0.0455892949998106,294.5255459557279
0.047378933909631396,203.00759267548506
0.049238826317067365,141.57145399354147
0.05117173007114603,103.18148131847502
0.05318051128214196,81.93367394774168
0.05526814857144601,73.87155736191485
0.057437737488265785,76.65077251457303
0.0596924950997073,89.90553527180336
0.0620357647610427,114.19181514590012
0.06447102107323864,149.9763111664121
0.06700187503509585,196.4695189959951
0.06963207939763882,250.65925398373878
0.0723655342286965,306.6592276784424
0.07520629269592405,356.14390242199596
0.07815856707684081,389.4556036926086
0.08122673500479707,397.94174288942935
0.08441534596012978,376.87685822194294
0.0877291280161335,327.82913380399435
0.09117299484984914,259.09145367944194
0.09475205302806537,183.50800258350614
0.09847160957933764,114.4595770862949
0.1023371798632519,61.64160609559611
0.10635449574860109,28.431300741093327
0.11052951411260206,11.913432828922259
0.1148684256737553,6.068361054638016
0.1193776641714435,6.144956697483134
0.1240639159058831,11.856200569059496
0.12893412965257148,26.081596280714745
0.13399552696593373,49.599528218087585
0.1392556128874462,76.4100325715517
0.14472218707411338,94.6150371792801
0.15040335536380234,93.50922684201976
0.15630754179458153,72.34064040631672
0.16244350109588662,42.428405382599024
0.16882033167003618,18.18654604059787
0.17544748908334581,5.946317119389918
0.1823348000868439,2.5957774145998624
0.189492477187382,4.020521509884022
0.19693113379074215,11.12379422414659
0.20466179993919872,23.883067753191032
0.21269593866686892,33.8599486229665
0.22104546299710207,31.200956825484752
0.22972275360711503,18.243260132361808
0.23874067718606454,6.763015134150168
0.2481126055137766,2.3716002963909633
0.25785243528842716,2.757181188660343
0.26797460873256895,7.260284075093835
0.27849413500806414,13.559284839823501
0.28942661247167484,13.837926774225226
0.3007882518043098,7.545524885133743
0.31259590004822796,2.7041742503704223
0.324867065587837,1.9486700978871052
0.3376199441111335,4.212699754524509
0.35087344559027084,7.092737628019399
0.36464722232127456,5.7325266361888065
0.37896169806447155,2.502876444288095
0.3938380983288488,1.5939753038954207
0.4092984818452433,2.843587354316253
0.4253657732750382,3.9111218651764164
0.44206379720285277,2.489397454240699
0.45941731346364734,1.3304293755316998
0.47745205385661277,1.7537207180660053
0.4961947603002895,2.3238642505723615
0.5156732244854959,1.525647435103731
0.5359163290848509,1.1130369260299824
0.556954090580013,1.2658499582786584
0.5788177037701272,1.1953774507782893
0.6015395880274836,1.0731323910303696
0.6251534353689703,0.9709704424416763
0.6496942604146115,0.882850389223366
0.6751984523072497,0.8038588852684685
0.7017038286703824,0.7304110318528549
0.7292496916841444,0.6599876732266967
0.7578768863625915,0.5919920739619193
0.7876278611187046,0.5282716600328418
0.8185467307069019,0.4702749203406992
0.850679341636415,0.41878502235945614
0.8840733401525058,0.37408217288338474
0.9187782428863317,0.33603821967180575
0.9548455102782278,0.3035885514279221
0.9923286228832539,0.2753768977872632
1.0312831606721837,0.2503626864140795
1.0717668854455022,0.2277541385622407
1.1138398264826193,0.2069532267917012
1.1575643695533022,0.18760630786338456
1.2030053494233226,0.16970577077798255
1.2502301459914542,0.1532676408786249
1.299308784200415,0.13827375957580695
1.3503140378698726,0.12467955808102209
1.4033215376054824,0.11241936733955665
1.4584098829439835,0.10138403006986867
1.5156607589006013,0.09144288501585496
1.575159057091621,0.08247968857627051
1.6369930016117014,0.07439189100001337
1.7012542798525885,0.06708886523665623
1.7680381784572046,0.0604913087093315
1.8374437246107238,0.05453223761242129
1.9095738328780953,0.04915178646971091
1.9845354578058014,0.04429541700878947
2.0624397525140905,0.03991348300565424
2.143402233514853,0.03596081622299978
2.227542951999554,0.03239607410232179
2.314986671851158,0.02918147527176395
2.405863054644063,0.026282877852175368
2.5003068519063225,0.023669451695000208
2.598458104929248,0.021313358105331418
2.7004623524206774,0.019189471312637596
2.806470846309834,0.017275159855969224
2.916640776023701,0.015549989765893325
3.031135501567576,0.013995490986156182
3.150124795755327,0.012594971811688045
3.2737850959485697,0.01133335037322287
3.4022997656780634,0.010196992139971415
3.5358593665351745,0.009173570763422605
3.6746619407366854,0.008251960723263192
3.8189133047818515,0.007422122865363181
3.968827354637162,0.006674999249762871
4.1246263829013445,0.006002419685100712
4.286541408420921,0.005397025548539322
4.4548125188449825,0.004852180802571106
4.629689226627261,0.004361895637440602
4.811430839003257,0.003920764601075713
5.000306842491082,0.0035239105496019645
5.196597302486189,0.0031669307343772145
5.400593278542364,0.0028458490695756223
5.612597255954967,0.0025570821214663557
5.8329235942862,0.0022974015290854596
6.06189899349756,0.0020638990805044604
6.29986297838068,0.0018539553461726975
6.547168402004727,0.0016652126368152443
6.804181968927091,0.001495548065577687
7.071284778942991,0.0013430492539203125
7.348872892180382,0.0012059936729665781
7.637357916378006,0.0010828300042834832
7.937167617217536,0.0009721601697512187
8.248746552614573,0.0008727227251327598
8.572556731909314,0.0007833827746097029
8.909078300934132,0.0007031198774158101
9.258810253973934,0.0006310164945290755
9.622271173675122,0.0005662479670257751
9.999999999999984,0.0005080786388243492
