k [1/Mpc],P(k) [Mpc^3]
0.0001,7695.471947600945
0.00010392556829367125,7973.82242197579
0.00010800523745162529,8262.185781274853
0.00011224505680853065,8560.915708424098
0.00011665131316981963,8870.377680557294
0.00012123054013376525,9190.949092233997
0.00012598952777950273,9523.01997008533
0.00013093533273536104,9866.992639188686
0.00013607528864243335,10223.28234392659
0.00014141701702890234,10592.317934518778
0.00014696843861124463,10974.541916254215
0.00015273778503907136,11370.411155674481
0.00015873361110102093,11780.39582372676
0.00016496480740980205,12204.97954204467
0.0001714406135851971,12644.661068616944
0.00017817063195457305,13099.954218815867
0.00018516484179121546,13571.388608402325
0.000192433614111598,14059.508764629436
0.00019998772705352857,14564.873187422405
0.0002078383818579757,15088.05657450614
0.00021599721947827182,15629.648354880306
0.0002244763378413224,16190.253633966984
0.0002332883097864157,16770.49386801506
0.00024244620170823283,17371.005357510017
0.0002519635929317015,17992.441151301387
0.0002618545958474233,18635.468384116564
0.0002721338768375308,19300.767956688494
0.0002828166780230032,19989.037043170305
0.0002939188398646886,20700.98635051934
0.0003054568246515432,21437.342078430836
0.00031744774091091926,22198.84389421657
0.00032990936877709396,22986.242160894155
0.00034286018635565856,23800.301834379366
0.00035631939712285854,24641.799537273437
0.000370306958400514,25511.524333783324
0.00038484361094874304,26410.276157655866
0.0003999509097203664,27338.858626932695
0.00041565125582259895,28298.085061104797
0.00043196792973341727,29288.77696782484
0.0004489251258218605,30311.763026155753
0.0004665479882234472,31367.87828052437
0.000484862648123908,32457.952630596777
0.000503896262506515,33582.816583679974
0.0005236770544204653,34743.29914947912
0.0005442343548300266,35940.22245987742
0.0005655986461065005,37174.40562497461
0.0005878016072274912,38446.65227206252
0.0006108761607505036,39757.75229652333
0.0006348565216305217,41108.479357297554
0.0006597782479539537,42499.57370030475
0.0006856782936641739,43931.753799584454
0.0007125950633568407,45405.70240599013
0.0007405684692262436,46922.0616353402
0.0007696399902471156,48481.437416305715
0.0007998527336796708,50084.371891437164
0.000831251498989063,51731.35562052199
0.0008638828442740447,53422.82165732976
0.000897795155303332,55159.132386303754
0.0009330387172620361,56940.587737757174
0.0009696657893145519,58767.40270679404
0.001007730682094461,60639.708737891306
0.0010472898382363582,62557.54601481875
0.0010884019160690055,64520.829764931485
0.0011311278765939214,66529.37241539205
0.001175531073878369,68582.86664788579
0.0012216773489967915,70680.87748179559
0.0012696351276599736,72822.8464013586
0.0013194755216767058,75008.06033600576
0.0013712724343984,77235.66252946027
0.0014251026703029975,79504.63852122433
0.0014810460488806749,81813.79635184644
0.0015391855229902056,84161.78081424689
0.001599607301861487,86547.03995349983
0.0016624009789266115,88967.82979949091
0.0017276596646690358,91422.21764526857
0.0017954801246878305,93908.0597764353
0.0018659629231817451,96423.0132615957
0.001939212572065829,98964.49589895018
0.0020153376859417325,101529.67908465478
0.002094451143151469,104115.51617909683
0.002176670253153458,106718.72256935471
0.002262116930469025,109335.78691944714
0.002350917875457286,111962.90775255073
0.002443204762186487,114595.94044873028
0.0025391144336803463,117230.49860154529
0.002638789104828933,119861.99664458576
0.002742376573264949,122485.6432898336
0.0028500304385181063,125096.2380510822
0.0029619103297725525,127687.79891379208
0.0030781821425650787,130254.02864325113
0.003199018284775064,132789.34850018885
0.0033245979322709396,135288.96018567705
0.003455107294592217,137747.31433377918
0.0035907398910610534,140155.05811949048
0.0037316968377327513,142501.32285838306
0.0038781871456107214,144776.72249967532
0.0040304280305680515,146974.70374825198
0.00418864523543527,149088.67411416766
0.004353073364731888,151109.0169147172
0.00452395623253805,153024.2823701113
0.004701547224022131,154823.64788196818
0.004886109671160325,156498.48331133887
0.005077917243205399,158040.56889040393
0.005277254352483535,159439.75731484278
0.005484416576121017,160684.05470707247
0.005699711094326071,161761.34325736525
0.005923457145875801,162658.59798113166
0.006155986501483508,163362.78165082278
0.006397643955748424,163861.0756558682
0.0066487878384172625,164140.85113772767
0.0069097905457156435,164189.98192436728
0.007181039092537346,163995.0657961363
0.007462935686310132,163542.59065129625
0.007755898323389004,162819.46850910658
0.00806036140886134,161811.7150124068
0.008376776400682916,160506.68969435466
0.008705612479099857,158891.7744979125
0.009047357242349292,156954.89428971065
0.00940251742967013,154686.01656170381
0.009771619672696168,152074.39640086424
0.010155211276345676,149111.93001237552
0.010553861030365234,145792.32184249177
0.010968160052731372,142110.26658498362
0.011398722666160517,138065.29253773604
0.011846187309026826,133657.95673398598
0.012311217482038896,128893.22604182227
0.012794502732078732,123781.3978865216
0.013296759674662111,118334.67168114397
0.013818733056536317,112573.48854276998
0.014361196859990781,106522.39832305854
0.014924955450518284,100211.6575168564
0.015510844769528393,93680.88618891311
0.016119733573881575,86972.51502955468
0.01675252472408214,80138.5205302083
0.017410156523040152,73237.08700142517
0.018093604107387147,66329.96517124974
0.01880388089340914,59487.55171881195
0.019542040079740527,52780.34753384256
0.02030917620904734,46281.72657558611
0.021106426791015535,40066.41837114322
0.021934973989050584,34204.01426486698
0.02279604637318978,28759.54340601166
0.023690920741826323,23788.434955054447
0.02462092401494623,19332.50434161224
0.02558743520168586,15420.277641030973
0.02659188744512693,12070.875864440146
0.027635770147361564,9275.259392817015
0.028720631177978267,7006.493941488633
0.029848079169243254,5221.146678730746
0.03101978590138095,3858.2788562970513
0.03223748878149028,2870.5628052980533
0.0335029934197723,2191.9659460278344
0.03481817630688963,1758.1917875911677
0.03618498759642746,1520.2169789197767
0.037605453996581675,1442.0240443501198
0.03908168177536263,1512.9701888663462
0.04061585988376978,1734.9291381398211
0.04221026320156896,2114.7479621474877
0.04386725591048496,2659.492498472154
0.0455892949998106,3355.952051683125
0.047378933909631396,4165.170460245191
0.049238826317067365,5012.087819640962
0.05117173007114603,5790.089010870532
0.05318051128214196,6374.102818186075
0.05526814857144601,6649.500007635959
0.057437737488265785,6531.388391770669
0.0596924950997073,5987.423794190958
0.0620357647610427,5081.05243482811
0.06447102107323864,3955.2200060919818
0.06700187503509585,2797.12615273842
0.06963207939763882,1784.1265277364118
0.0723655342286965,1027.6113142242443
0.07520629269592405,549.7963637633394
0.07815856707684081,303.6527600066246
0.08122673500479707,214.84043525237527
0.08441534596012978,236.89265950774134
0.0877291280161335,370.93636451199427
0.09117299484984914,640.1359258993817
0.09475205302806537,1023.838440343414
0.09847160957933764,1407.8098481527113
0.1023371798632519,1622.3985542873872
0.10635449574860109,1551.2410965002903
0.11052951411260206,1212.1088095111368
0.1148684256737553,761.0039541378233
0.1193776641714435,388.3458597608253
0.1240639159058831,181.411057211457
0.12893412965257148,113.11789064125391
0.13399552696593373,139.1404335698622
0.1392556128874462,255.1741678931684
0.14472218707411338,434.14943309400616
0.15040335536380234,562.7157883043405
0.15630754179458153,525.5253506424544
0.16244350109588662,351.5715819063989
0.16882033167003618,178.75517100878912
0.17544748908334581,93.75518042813333
0.1823348000868439,89.9401101962737
0.189492477187382,146.9889260853277
0.19693113379074215,223.6148349361987
0.20466179993919872,234.0601574049508
0.21269593866686892,162.16140397523884
0.22104546299710207,88.46365243567111
0.22972275360711503,64.73461638531474
0.23874067718606454,84.97195407613377
0.2481126055137766,116.39859526797439
0.25785243528842716,109.03658036981626
0.26797460873256895,71.01479904015449
0.27849413500806414,50.00624392396268
0.28942661247167484,56.44140388762616
0.3007882518043098,67.51689393548078
0.31259590004822796,57.09375756010795
0.324867065587837,40.409436844584874
0.3376199441111335,38.16703812260819
0.35087344559027084,42.360671143397994
0.36464722232127456,36.8321585895404
0.37896169806447155,28.962592655113635
0.3938380983288488,28.491008178036612
0.4092984818452433,27.71562448663981
0.4253657732750382,23.191661321628
0.44206379720285277,20.09098878143042
0.45941731346364734,18.148337576100882
0.47745205385661277,16.842423135515773
0.4961947603002895,15.82233541362005
0.5156732244854959,14.82521456530458
0.5359163290848509,13.690865181623263
0.556954090580013,12.469399196061634
0.5788177037701272,11.245866938728529
0.6015395880274836,10.083729713518105
0.6251534353689703,9.025647378028033
0.6496942604146115,8.096732591875085
0.6751984523072497,7.29833651707405
0.7017038286703824,6.6050440869138685
0.7292496916841444,5.994026846273596
0.7578768863625915,5.447611791603321
0.7876278611187046,4.952123892249168
0.8185467307069019,4.4971361756763635
0.850679341636415,4.077514478820966
0.8840733401525058,3.6923292885082226
0.9187782428863317,3.3404545263882985
0.9548455102782278,3.0204087091068046
0.9923286228832539,2.7304590024347064
1.0312831606721837,2.468665936559227
1.0717668854455022,2.2324681039789964
1.1138398264826193,2.0191396018523657
1.1575643695533022,1.8262730818758015
1.2030053494233226,1.651746963999779
1.2502301459914542,1.4936879786450286
1.299308784200415,1.3504545197148343
1.3503140378698726,1.220679084990832
1.4033215376054824,1.1031519753725734
1.4584098829439835,0.9967640530247095
1.5156607589006013,0.9004994223357119
1.575159057091621,0.8134285931233382
1.6369930016117014,0.7346981014122991
1.7012542798525885,0.6635178462830299
1.7680381784572046,0.5991693164569404
1.8374437246107238,0.5410019689455872
1.9095738328780953,0.4884268259195861
1.9845354578058014,0.44091067718614846
2.0624397525140905,0.39797114840160197
2.143402233514853,0.35917202733133113
2.227542951999554,0.3241182758073095
2.314986671851158,0.2924521246641061
2.405863054644063,0.26384959966931404
2.5003068519063225,0.23801737741427914
2.598458104929248,0.21469013441602608
2.7004623524206774,0.19362784464966026
2.806470846309834,0.1746131561132159
2.916640776023701,0.15744927597095648
3.031135501567576,0.14195805975846976
3.150124795755327,0.12797825833508503
3.2737850959485697,0.11536381322472426
3.4022997656780634,0.10398254951470746
3.5358593665351745,0.09371496618566087
3.6746619407366854,0.08445303420121365
3.8189133047818515,0.07609910622911724
3.968827354637162,0.06856493318674518
4.1246263829013445,0.061770783344957614
4.286541408420921,0.055644610181364317
4.4548125188449825,0.05012131266376397
4.629689226627261,0.04514207298614621
4.811430839003257,0.04065375668591814
5.000306842491082,0.03660836822699651
5.196597302486189,0.032962557866855875
5.400593278542364,0.02967717950442467
5.612597255954967,0.02671688764285423
5.8329235942862,0.02404977205762476
6.06189899349756,0.021647027304797235
6.29986297838068,0.019482658621646033
6.547168402004727,0.017533210989650293
6.804181968927091,0.015777515676673716
7.071284778942991,0.01419646923717033
7.348872892180382,0.012772834229944687
7.637357916378006,0.011491057070919065
7.937167617217536,0.010337078838872596
8.248746552614573,0.009298206033718897
8.572556731909314,0.008363004073395122
8.909078300934132,0.007521172933661473
9.258810253973934,0.006763434374638975
9.622271173675122,0.00608144067794307
9.999999999999984,0.005467741325425445
