k [1/Mpc],P(k) [Mpc^3]
0.0001,129.80744430981443
0.00010392556829367125,135.29156751743182
0.00010800523745162529,141.00724396092207
0.00011224505680853065,146.96423201235783
0.00011665131316981963,153.17269919660316
0.00012123054013376525,159.64323836740465
0.00012598952777950273,166.3868868082607
0.00013093533273536104,173.4151461724967
0.00013607528864243335,180.7400016060609
0.00014141701702890234,188.37393707966416
0.00014696843861124463,196.3299464319131
0.00015273778503907136,204.6215639207758
0.00015873361110102093,213.26289761828764
0.00016496480740980205,222.26865458441034
0.0001714406135851971,231.65415314028388
0.00017817063195457305,241.4353266507598
0.00018516484179121546,251.6287630138511
0.000192433614111598,262.2517428389698
0.00019998772705352857,273.32227064862406
0.0002078383818579757,284.85909754497885
0.00021599721947827182,296.88173589626535
0.0002244763378413224,309.4104966088427
0.0002332883097864157,322.46653126366203
0.00024244620170823283,336.0718693134971
0.0002519635929317015,350.2494474693951
0.0002618545958474233,365.02310521666095
0.0002721338768375308,380.41762460339623
0.0002828166780230032,396.45880522176276
0.0002939188398646886,413.1735302669509
0.0003054568246515432,430.5897872068449
0.00031744774091091926,448.7366430117236
0.00032990936877709396,467.64426553252764
0.00034286018635565856,487.34403640932476
0.00035631939712285854,507.86864070728495
0.000370306958400514,529.252094628967
0.00038484361094874304,551.5297294680863
0.0003999509097203664,574.7381908534924
0.00041565125582259895,598.9155603203907
0.00043196792973341727,624.1013896852363
0.0004489251258218605,650.3367636038822
0.0004665479882234472,677.6643578653598
0.000484862648123908,706.1284688136126
0.000503896262506515,735.7750960985462
0.0005236770544204653,766.6519256004071
0.0005442343548300266,798.808383805838
0.0005655986461065005,832.2957547924849
0.0005878016072274912,867.1671995817087
0.0006108761607505036,903.477851101437
0.0006348565216305217,941.2848125054458
0.0006597782479539537,980.6471761909211
0.0006856782936641739,1021.6261646249268
0.0007125950633568407,1064.2850875534375
0.0007405684692262436,1108.6894593945988
0.0007696399902471156,1154.9070369280585
0.0007998527336796708,1203.0077776363785
0.000831251498989063,1253.0640199847048
0.0008638828442740447,1305.1504052278055
0.000897795155303332,1359.3439642600915
0.0009330387172620361,1415.7241726897867
0.0009696657893145519,1474.3727243973735
0.001007730682094461,1535.3738194899008
0.0010472898382363582,1598.814036407262
0.0010884019160690055,1664.7823177036055
0.0011311278765939214,1733.3701485584315
0.001175531073878369,1804.6711793522265
0.0012216773489967915,1878.7815048723241
0.0012696351276599736,1955.7995539993735
0.0013194755216767058,2035.8258736262253
0.0013712724343984,2118.9634156467955
0.0014251026703029975,2205.3168994101766
0.0014810460488806749,2294.9930202731243
0.0015391855229902056,2388.1005139020035
0.001599607301861487,2484.7496889538556
0.0016624009789266115,2585.0527660480457
0.0017276596646690358,2689.123094573796
0.0017954801246878305,2797.075076756158
0.0018659629231817451,2909.0244068780294
0.001939212572065829,3025.0871921463836
0.0020153376859417325,3145.380357217679
0.002094451143151469,3270.0207496840017
0.002176670253153458,3399.1245430016634
0.002262116930469025,3532.8078330206126
0.002350917875457286,3671.185570681543
0.002443204762186487,3814.371728236993
0.0025391144336803463,3962.478229606499
0.002638789104828933,4115.613376456378
0.002742376573264949,4273.882985614333
0.0028500304385181063,4437.388796325511
0.0029619103297725525,4606.228354873101
0.0030781821425650787,4780.494380557568
0.003199018284775064,4960.27211155676
0.0033245979322709396,5145.640642650408
0.003455107294592217,5336.6706414611235
0.0035907398910610534,5533.423442775088
0.0037316968377327513,5735.951266994113
0.0038781871456107214,5944.292856507403
0.0040304280305680515,6158.475146908241
0.00418864523543527,6378.510679832517
0.004353073364731888,6604.394875618252
0.00452395623253805,6836.107348840832
0.004701547224022131,7073.601835365738
0.004886109671160325,7316.809243340657
0.005077917243205399,7565.644646568849
0.005277254352483535,7820.011402013429
0.005484416576121017,8079.790833122717
0.005699711094326071,8344.796839954108
0.005923457145875801,8614.780611730845
0.006155986501483508,8889.464500568523
0.006397643955748424,9168.556864127253
0.0066487878384172625,9451.737419772358
0.0069097905457156435,9738.643159299738
0.007181039092537346,10028.865170648045
0.007462935686310132,10321.948733454316
0.007755898323389004,10617.352917511293
0.00806036140886134,10914.47493080742
0.008376776400682916,11212.648405522523
0.008705612479099857,11511.129238889202
0.009047357242349292,11809.115572317733
0.00940251742967013,12105.714716385171
0.009771619672696168,12399.957995673069
0.010155211276345676,12690.801696489185
0.010553861030365234,12977.091596919965
0.010968160052731372,13257.606573236792
0.011398722666160517,13531.014945642899
0.011846187309026826,13795.88339874091
0.012311217482038896,14050.708365007764
0.012794502732078732,14293.851763345592
0.013296759674662111,14523.612467426456
0.013818733056536317,14738.195657006503
0.014361196859990781,14935.701953220801
0.014924955450518284,15114.204950151841
0.015510844769528393,15271.67064799287
0.016119733573881575,15406.04355986353
0.01675252472408214,15515.261415599773
0.017410156523040152,15597.221084772476
0.018093604107387147,15649.901686439496
0.01880388089340914,15671.309484942436
0.019542040079740527,15659.550178772251
0.02030917620904734,15612.915233288386
0.021106426791015535,15529.875676979307
0.021934973989050584,15409.174151551428
0.02279604637318978,15249.858606725433
0.023690920741826323,15051.31751147094
0.02462092401494623,14813.38677538021
0.02558743520168586,14536.606667702219
0.02659188744512693,14222.010909909628
0.027635770147361564,13871.03607430841
0.028720631177978267,13485.517594070843
0.029848079169243254,13067.92688218029
0.03101978590138095,12623.144055934352
0.03223748878149028,12157.022344982026
0.0335029934197723,11674.515157240716
0.03481817630688963,11178.895092711138
0.03618498759642746,10673.44996105088
0.037605453996581675,10164.605271599376
0.03908168177536263,9660.37731952571
0.04061585988376978,9168.015947584357
0.04221026320156896,8694.537987570175
0.04386725591048496,8245.874963067898
0.0455892949998106,7827.5136452877605
0.047378933909631396,7443.900052007312
0.049238826317067365,7098.014964093266
0.05117173007114603,6791.740840430495
0.05318051128214196,6525.476746435988
0.05526814857144601,6298.574347097577
0.057437737488265785,6108.669689500883
0.0596924950997073,5952.0071403711545
0.0620357647610427,5823.119887807316
0.06447102107323864,5714.373156089782
0.06700187503509585,5616.251972289731
0.06963207939763882,5517.42141488917
0.0723655342286965,5405.6936076425645
0.07520629269592405,5269.079641553442
0.07815856707684081,5097.933742884179
0.08122673500479707,4886.589411028674
0.08441534596012978,4633.470275104656
0.0877291280161335,4341.913787273254
0.09117299484984914,4020.876858349234
0.09475205302806537,3685.1510594346005
0.09847160957933764,3353.5976656584116
0.1023371798632519,3046.216821887844
0.10635449574860109,2780.6365091890893
0.11052951411260206,2569.044977287664
0.1148684256737553,2416.480814985965
0.1193776641714435,2320.3751810911776
0.1240639159058831,2270.593487433423
0.12893412965257148,2249.717735053556
0.13399552696593373,2234.4177064904998
0.1392556128874462,2199.0183089977413
0.14472218707411338,2121.506635641432
0.15040335536380234,1991.2733197540238
0.15630754179458153,1815.688633010918
0.16244350109588662,1619.5509547473341
0.16882033167003618,1435.302247137884
0.17544748908334581,1290.6375433463713
0.1823348000868439,1200.35965583319
0.189492477187382,1161.9201155865624
0.19693113379074215,1154.8171068803147
0.20466179993919872,1146.7775262486437
0.21269593866686892,1106.6776952783607
0.22104546299710207,1021.3838513006849
0.22972275360711503,906.6382076263479
0.23874067718606454,797.3144056064119
0.2481126055137766,723.586019342637
0.25785243528842716,692.5192635362893
0.26797460873256895,685.1280856668678
0.27849413500806414,668.4717023686555
0.28942661247167484,620.0659141267687
0.3007882518043098,549.5940720450182
0.31259590004822796,488.3429613564365
0.324867065587837,456.7281493977553
0.3376199441111335,445.739849549496
0.35087344559027084,428.165330069984
0.36464722232127456,389.66893976737396
0.37896169806447155,346.37440461456794
0.3938380983288488,320.089670299485
0.4092984818452433,308.1739630249397
0.4253657732750382,290.57952370501124
0.44206379720285277,261.93819873266864
0.45941731346364734,238.19033546460054
0.47745205385661277,225.60005569051137
0.4961947603002895,211.77429433558433
0.5156732244854959,191.96467124893485
0.5359163290848509,176.53573943078447
0.556954090580013,166.1556103088454
0.5788177037701272,152.84879146833697
0.6015395880274836,139.70514907406073
0.6251534353689703,130.27783620381513
0.6496942604146115,120.29228103945528
0.6751984523072497,109.89794641534607
0.7017038286703824,100.84879782110828
0.7292496916841444,92.92760656073506
0.7578768863625915,85.85694163372679
0.7876278611187046,79.41937622901264
0.8185467307069019,73.44490664016968
0.850679341636415,67.80901436466077
0.8840733401525058,62.48616834424111
0.9187782428863317,57.494581140662
0.9548455102782278,52.844139634179804
0.9923286228832539,48.537118023178834
1.0312831606721837,44.569598043887034
1.0717668854455022,40.92970438637413
1.1138398264826193,37.58992827425375
1.1575643695533022,34.52172289116857
1.2030053494233226,31.699804038327866
1.2502301459914542,29.101737397478363
1.299308784200415,26.707588805787072
1.3503140378698726,24.500629951456077
1.4033215376054824,22.467622505405906
1.4584098829439835,20.596304321517852
1.5156607589006013,18.875080516394537
1.575159057091621,17.293013213571164
1.6369930016117014,15.839794117540098
1.7012542798525885,14.505475054688151
1.7680381784572046,13.280566600997439
1.8374437246107238,12.156311031670077
1.9095738328780953,11.124637866996343
1.9845354578058014,10.178110693769378
2.0624397525140905,9.309885033576688
2.143402233514853,8.513703067573566
2.227542951999554,7.783807077353639
2.314986671851158,7.114876514232196
2.405863054644063,6.501997022509205
2.5003068519063225,5.940631558804758
2.598458104929248,5.426590625594195
2.7004623524206774,4.956002355299618
2.806470846309834,4.5252982709554335
2.916640776023701,4.131192545983112
3.031135501567576,3.7706606273141676
3.150124795755327,3.4409193728732186
3.2737850959485697,3.1394082962344916
3.4022997656780634,2.863772443996873
3.5358593665351745,2.6118470886254235
3.6746619407366854,2.3816430098603303
3.8189133047818515,2.1713328136104306
3.968827354637162,1.979238284371953
4.1246263829013445,1.8038188887630446
4.286541408420921,1.6436607588300167
4.4548125188449825,1.4974664547497136
4.629689226627261,1.3640457196393798
4.811430839003257,1.2423069389737862
5.000306842491082,1.1312490772686081
5.196597302486189,1.0299537513283652
5.400593278542364,0.9375794001646922
5.612597255954967,0.8533553692403693
5.8329235942862,0.7765760953246965
6.06189899349756,0.7065957541964717
6.29986297838068,0.6428237499717872
6.547168402004727,0.5847205436936503
6.804181968927091,0.5317923761994686
7.071284778942991,0.48358736370047384
7.348872892180382,0.4396920682268944
7.637357916378006,0.3997282809587979
7.937167617217536,0.36334865586298304
8.248746552614573,0.3302344987005407
8.572556731909314,0.30009528342987457
8.909078300934132,0.2726662526893295
9.258810253973934,0.24770612504995387
9.622271173675122,0.22499547774336998
9.999999999999984,0.20433831133973776
