k [1/Mpc],P(k) [Mpc^3]
0.0001,1020.650655493295
0.00010392556829367125,1057.6309804913042
0.00010800523745162529,1095.948913001587
0.00011224505680853065,1135.6525661974556
0.00011665131316981963,1176.7917698997073
0.00012123054013376525,1219.4181242895538
0.00012598952777950273,1263.5850346227255
0.00013093533273536104,1309.347788535073
0.00013607528864243335,1356.7635890507088
0.00014141701702890234,1405.8915658349517
0.00014696843861124463,1456.7929194490684
0.00015273778503907136,1509.531061933427
0.00015873361110102093,1564.1716820269235
0.00016496480740980205,1620.782710967043
0.0001714406135851971,1679.4341972704035
0.00017817063195457305,1740.1985580724445
0.00018516484179121546,1803.1508063081887
0.000192433614111598,1868.3686658203708
0.00019998772705352857,1935.9325110539312
0.0002078383818579757,2005.925145227925
0.00021599721947827182,2078.432053575619
0.0002244763378413224,2153.5416281324565
0.0002332883097864157,2231.3452744600127
0.00024244620170823283,2311.9374688842813
0.0002519635929317015,2395.415643385837
0.0002618545958474233,2481.880326458052
0.0002721338768375308,2571.4353059754576
0.0002828166780230032,2664.1875669138412
0.0002939188398646886,2760.247529396991
0.0003054568246515432,2859.728997010863
0.00031744774091091926,2962.749209711906
0.00032990936877709396,3069.4290621217606
0.00034286018635565856,3179.8928827765626
0.00035631939712285854,3294.268725415251
0.000370306958400514,3412.688400514927
0.00038484361094874304,3535.287385495523
0.0003999509097203664,3662.2051604959274
0.00041565125582259895,3793.58499031474
0.00043196792973341727,3929.574107301828
0.0004489251258218605,4070.3237390152276
0.0004665479882234472,4215.988598339562
0.000484862648123908,4366.727511828841
0.000503896262506515,4522.7034025386465
0.0005236770544204653,4684.0833209085395
0.0005442343548300266,4851.0384883928255
0.0005655986461065005,5023.743300646264
0.0005878016072274912,5202.376036349668
0.0006108761607505036,5387.1189613973365
0.0006348565216305217,5578.158094921605
0.0006597782479539537,5775.683507388024
0.0006856782936641739,5979.8881081674535
0.0007125950633568407,6190.968031116727
0.0007405684692262436,6409.122779174773
0.0007696399902471156,6634.554124619503
0.0007998527336796708,6867.4670176022355
0.000831251498989063,7108.0680517551
0.0008638828442740447,7356.565187811045
0.000897795155303332,7613.168558775781
0.0009330387172620361,7878.088366669727
0.0009696657893145519,8151.53599599303
0.001007730682094461,8433.722765935889
0.0010472898382363582,8724.85844311168
0.0010884019160690055,9025.152680412939
0.0011311278765939214,9334.81160157056
0.001175531073878369,9654.038604181831
0.0012216773489967915,9983.034581438751
0.0012696351276599736,10321.995571887788
0.0013194755216767058,10671.11399913843
0.0013712724343984,11030.574388456587
0.0014251026703029975,11400.552632691992
0.0014810460488806749,11781.21767103183
0.0015391855229902056,12172.727423627884
0.001599607301861487,12575.23040149224
0.0016624009789266115,12988.862644683897
0.0017276596646690358,13413.74480442968
0.0017954801246878305,13849.984439928156
0.0018659629231817451,14297.67011120523
0.001939212572065829,14756.872472200364
0.0020153376859417325,15227.642860000631
0.002094451143151469,15710.007584668116
0.002176670253153458,16203.971450274401
0.002262116930469025,16709.511687547147
0.002350917875457286,17226.57688110534
0.002443204762186487,17755.087344739266
0.0025391144336803463,18294.92513566029
0.002638789104828933,18845.939177153832
0.002742376573264949,19407.940514222908
0.0028500304385181063,19980.6979067966
0.0029619103297725525,20563.940721425883
0.0030781821425650787,21157.342304317033
0.003199018284775064,21760.525929481188
0.0033245979322709396,22373.065567455033
0.003455107294592217,22994.477428305872
0.0035907398910610534,23624.224332460995
0.0037316968377327513,24261.67369163793
0.0038781871456107214,24906.101611957674
0.0040304280305680515,25556.74530840316
0.00418864523543527,26212.87395140243
0.004353073364731888,26873.722169878256
0.00452395623253805,27538.259892814498
0.004701547224022131,28205.11309143219
0.004886109671160325,28872.83138881732
0.005077917243205399,29540.13597445634
0.005277254352483535,30205.792185883638
0.005484416576121017,30868.355168606828
0.005699711094326071,31525.988924553938
0.005923457145875801,32176.734607614548
0.006155986501483508,32818.68508963008
0.006397643955748424,33449.96094500265
0.0066487878384172625,34068.536694414914
0.0069097905457156435,34672.01142191718
0.007181039092537346,35257.834381287226
0.007462935686310132,35823.28116597036
0.007755898323389004,36365.441176967615
0.00806036140886134,36881.31087272097
0.008376776400682916,37367.6597309757
0.008705612479099857,37821.15070872185
0.009047357242349292,38238.30605064008
0.00940251742967013,38615.40851263819
0.009771619672696168,38948.711491924165
0.010155211276345676,39234.19297496223
0.010553861030365234,39467.6972235855
0.010968160052731372,39645.062946061764
0.011398722666160517,39761.88013690275
0.011846187309026826,39813.8616028223
0.012311217482038896,39796.62943047564
0.012794502732078732,39705.754211093015
0.013296759674662111,39537.11574990967
0.013818733056536317,39286.507749829696
0.014361196859990781,38950.12453217763
0.014924955450518284,38524.52726013254
0.015510844769528393,38006.486579807526
0.016119733573881575,37393.62104815867
0.01675252472408214,36683.99049743581
0.017410156523040152,35876.50138742071
0.018093604107387147,34971.19377017208
0.01880388089340914,33968.91915815996
0.019542040079740527,32872.00220343561
0.02030917620904734,31684.108037049104
0.021106426791015535,30410.31387432391
0.021934973989050584,29057.43165429095
0.02279604637318978,27633.90999783718
0.023690920741826323,26149.773416333617
0.02462092401494623,24616.918999525184
0.02558743520168586,23049.028793535846
0.02659188744512693,21460.61328217854
0.027635770147361564,19867.8407600364
0.028720631177978267,18287.084733857788
0.029848079169243254,16735.243909167006
0.03101978590138095,15231.416520015122
0.03223748878149028,13791.771773233088
0.0335029934197723,12430.510646659981
0.03481817630688963,11159.054416915045
0.03618498759642746,9987.26648858863
0.037605453996581675,8928.99042797575
0.03908168177536263,7992.018258686182
0.04061585988376978,7178.761401525851
0.04221026320156896,6487.338547081892
0.04386725591048496,5913.900109466674
0.0455892949998106,5453.312267509149
0.047378933909631396,5098.306808321012
0.049238826317067365,4841.30736122905
0.05117173007114603,4672.6903413217415
0.05318051128214196,4582.418377758428
0.05526814857144601,4558.270458994597
0.057437737488265785,4582.285277314969
0.0596924950997073,4632.073935978197
0.0620357647610427,4682.036354392616
0.06447102107323864,4704.703099994509
0.06700187503509585,4673.413269277199
0.06963207939763882,4565.735918024166
0.0723655342286965,4366.585437469135
0.07520629269592405,4071.3918949844397
0.07815856707684081,3688.929962005229
0.08122673500479707,3242.395050243625
0.08441534596012978,2767.8208007533412
0.0877291280161335,2307.3211491384104
0.09117299484984914,1899.587816949779
0.09475205302806537,1571.987268760519
0.09847160957933764,1337.5716376689545
0.1023371798632519,1197.1224720985347
0.10635449574860109,1143.184023563885
0.11052951411260206,1162.4415941190186
0.1148684256737553,1234.4255466948518
0.1193776641714435,1327.7653841078616
0.1240639159058831,1399.2524823896138
0.12893412965257148,1403.5537564704644
0.13399552696593373,1314.4067250031267
0.1392556128874462,1141.718841122396
0.14472218707411338,927.4715874428176
0.15040335536380234,724.9930396998736
0.15630754179458153,576.8451116641826
0.16244350109588662,501.42379214699446
0.16882033167003618,494.5206848108749
0.17544748908334581,536.198476142324
0.1823348000868439,589.5598677747361
0.189492477187382,606.4271387048929
0.19693113379074215,556.2202819153731
0.20466179993919872,454.01608465522725
0.21269593866686892,349.6568673412498
0.22104546299710207,284.9015194825732
0.22972275360711503,271.203519238388
0.23874067718606454,293.25606396377594
0.2481126055137766,313.7046324851109
0.25785243528842716,296.1162639349182
0.26797460873256895,242.35518966258718
0.27849413500806414,190.6405321494143
0.28942661247167484,169.69488891128253
0.3007882518043098,176.44779293182233
0.31259590004822796,182.91978909515646
0.324867065587837,164.49414641254245
0.3376199441111335,132.83946032734275
0.35087344559027084,115.27113065932808
0.36464722232127456,115.8980973055615
0.37896169806447155,114.96511933465085
0.3938380983288488,99.62631619142651
0.4092984818452433,84.13088222579398
0.4253657732750382,80.33488007467066
0.44206379720285277,78.40524528164745
0.45941731346364734,68.75216319797373
0.47745205385661277,60.2611845558741
0.4961947603002895,57.788778307841625
0.5156732244854959,53.330193495971685
0.5359163290848509,46.990433992029395
0.556954090580013,42.869969939795745
0.5788177037701272,39.46022701818037
0.6015395880274836,36.303163273359125
0.6251534353689703,33.24450423915727
0.6496942604146115,30.33168452083533
0.6751984523072497,27.60688900920158
0.7017038286703824,25.097223024911987
0.7292496916841444,22.817293295547678
0.7578768863625915,20.76769496876188
0.7876278611187046,18.922286681211318
0.8185467307069019,17.251696775874485
0.850679341636415,15.731657339281957
0.8840733401525058,14.342114695531203
0.9187782428863317,13.066572269829116
0.9548455102782278,11.894242405518035
0.9923286228832539,10.819380909495887
1.0312831606721837,9.836343790210314
1.0717668854455022,8.939347045120234
1.1138398264826193,8.122577313611993
1.1575643695533022,7.3801250787725685
1.2030053494233226,6.7053219243888345
1.2502301459914542,6.09173120295415
1.299308784200415,5.533578690407422
1.3503140378698726,5.025679399257226
1.4033215376054824,4.563373369817522
1.4584098829439835,4.14255882503894
1.5156607589006013,3.7596557052299913
1.575159057091621,3.4113870390371606
1.6369930016117014,3.09474064688187
1.7012542798525885,2.806950050086223
1.7680381784572046,2.545473384343739
1.8374437246107238,2.3079580853794788
1.9095738328780953,2.0922459031619
1.9845354578058014,1.8963694224571979
2.0624397525140905,1.7185355813494887
2.143402233514853,1.5571105231459375
2.227542951999554,1.4106070463083948
2.314986671851158,1.2776724829676265
2.405863054644063,1.1570741718161728
2.5003068519063225,1.0476888068722636
2.598458104929248,0.9484930159735662
2.7004623524206774,0.8585546466184876
2.806470846309834,0.777024276350895
2.916640776023701,0.7031285327306867
3.031135501567576,0.6361638609040645
3.150124795755327,0.5754903594879593
3.2737850959485697,0.5205261430655677
3.4022997656780634,0.47074231570116737
3.5358593665351745,0.42565835986395445
3.6746619407366854,0.38483751808471167
3.8189133047818515,0.3478828568043922
3.968827354637162,0.31443371755810534
4.1246263829013445,0.28416246195639117
4.286541408420921,0.256771377835131
4.4548125188449825,0.23199009573909887
4.629689226627261,0.20957323672972855
4.811430839003257,0.1892981449134068
5.000306842491082,0.17096281957661286
5.196597302486189,0.15438402895986492
5.400593278542364,0.13939559197561638
5.612597255954967,0.12584682528851232
5.8329235942862,0.11360112278292164
6.06189899349756,0.10253466143100075
6.29986297838068,0.09253522799506889
6.547168402004727,0.08350119963251079
6.804181968927091,0.07534053191347641
7.071284778942991,0.06796982332171188
7.348872892180382,0.06131351751552725
7.637357916378006,0.05530317880688162
7.937167617217536,0.04987676123259575
8.248746552614573,0.04497789125521794
8.572556731909314,0.04055557833241136
8.909078300934132,0.03656375064661598
9.258810253973934,0.032960779682741116
9.622271173675122,0.02970907146802609
9.999999999999984,0.026775024519079694
