k [1/Mpc],P(k) [Mpc^3]
0.0001,50.509941652299865
0.00010392556829367125,52.64416009559582
0.00010800523745162529,54.86852128682957
0.00011224505680853065,57.18682977362795
0.00011665131316981963,59.603050374737364
0.00012123054013376525,62.12131400546369
0.00012598952777950273,64.74592520567778
0.00013093533273536104,67.48136833043078
0.00013607528864243335,70.3323141115929
0.00014141701702890234,73.30362944927754
0.00014696843861124463,76.40038748563728
0.00015273778503907136,79.62787552132647
0.00015873361110102093,82.99160151497954
0.00016496480740980205,86.497300872337
0.0001714406135851971,90.1509490134036
0.00017817063195457305,93.95877516416577
0.00018516484179121546,97.9272725491775
0.000192433614111598,102.0632038801639
0.00019998772705352857,106.37360344137124
0.0002078383818579757,110.86579629708874
0.00021599721947827182,115.54741884141923
0.0002244763378413224,120.42643333944415
0.0002332883097864157,125.51113289286599
0.00024244620170823283,130.81014214539024
0.0002519635929317015,136.33243867473942
0.0002618545958474233,142.08737665321223
0.0002721338768375308,148.08470602441795
0.0002828166780230032,154.33458079162543
0.0002939188398646886,160.8475585829365
0.0003054568246515432,167.63462285667313
0.00031744774091091926,174.70721300046475
0.00032990936877709396,182.0772500201815
0.00034286018635565856,189.75714660180364
0.00035631939712285854,197.7597998764655
0.000370306958400514,206.0986118866487
0.00038484361094874304,214.78753387222696
0.0003999509097203664,223.8411047244618
0.00041565125582259895,233.2744604882236
0.00043196792973341727,243.1033225829691
0.0004489251258218605,253.34400902205493
0.0004665479882234472,264.013491060217
0.000484862648123908,275.12942743717156
0.000503896262506515,286.7101867473058
0.0005236770544204653,298.7748616999661
0.0005442343548300266,311.34328656928307
0.0005655986461065005,324.4360753667102
0.0005878016072274912,338.07460851330467
0.0006108761607505036,352.2810739765056
0.0006348565216305217,367.07851982160884
0.0006597782479539537,382.4908807991755
0.0006856782936641739,398.5430132488802
0.0007125950633568407,415.260696556625
0.0007405684692262436,432.67066429589295
0.0007696399902471156,450.80065217446514
0.0007998527336796708,469.6793918496008
0.000831251498989063,489.3366737961212
0.0008638828442740447,509.8033454798408
0.000897795155303332,531.1113208394868
0.0009330387172620361,553.2936635911663
0.0009696657893145519,576.3845881652975
0.001007730682094461,600.4195135373536
0.0010472898382363582,625.4350434868973
0.0010884019160690055,651.4689142996957
0.0011311278765939214,678.5601330470953
0.001175531073878369,706.7489635089019
0.0012216773489967915,736.0769721040408
0.0012696351276599736,766.5870149828352
0.0013194755216767058,798.3230749291096
0.0013712724343984,831.3304598852808
0.0014251026703029975,865.6557979003783
0.0014810460488806749,901.3470498758296
0.0015391855229902056,938.4535264234223
0.001599607301861487,977.0256221435292
0.0016624009789266115,1017.1150146578149
0.0017276596646690358,1058.7746199991125
0.0017954801246878305,1102.058503342023
0.0018659629231817451,1147.0220122242854
0.001939212572065829,1193.7214970986802
0.0020153376859417325,1242.2144209944158
0.002094451143151469,1292.5592753413966
0.002176670253153458,1344.8152739487057
0.002262116930469025,1399.0426238754421
0.002350917875457286,1455.302224745638
0.002443204762186487,1513.6556613682012
0.0025391144336803463,1574.16514282528
0.002638789104828933,1636.892893026516
0.002742376573264949,1701.9015159172714
0.0028500304385181063,1769.2537134328297
0.0029619103297725525,1839.012102359457
0.0030781821425650787,1911.239184059213
0.003199018284775064,1985.996267077155
0.0033245979322709396,2063.3438919874143
0.003455107294592217,2143.341554382233
0.0035907398910610534,2226.0471756008787
0.0037316968377327513,2311.517308051296
0.0038781871456107214,2399.8057508129928
0.0040304280305680515,2490.963748963973
0.00418864523543527,2585.0396442992005
0.004353073364731888,2682.077478564471
0.00452395623253805,2782.1178136714207
0.004701547224022131,2885.196447041692
0.004886109671160325,2991.344136773265
0.005077917243205399,3100.585875461764
0.005277254352483535,3212.937013844932
0.005484416576121017,3328.4056802831487
0.005699711094326071,3446.994934609143
0.005923457145875801,3568.7028471725307
0.006155986501483508,3693.5171644531733
0.006397643955748424,3821.398021754078
0.0066487878384172625,3952.2870056179313
0.0069097905457156435,4086.119457962093
0.007181039092537346,4222.829826841604
0.007462935686310132,4362.339797506832
0.007755898323389004,4504.536839107098
0.00806036140886134,4649.280133754445
0.008376776400682916,4796.414512772227
0.008705612479099857,4945.776727035839
0.009047357242349292,5097.186627913066
0.00940251742967013,5250.426020789159
0.009771619672696168,5405.238708256034
0.010155211276345676,5561.341522306899
0.010553861030365234,5718.412801690064
0.010968160052731372,5876.101374817872
0.011398722666160517,6034.022222377842
0.011846187309026826,6191.753603714784
0.012311217482038896,6348.842429483252
0.012794502732078732,6504.784253352847
0.013296759674662111,6659.036347227533
0.013818733056536317,6811.016046317546
0.014361196859990781,6960.090222907507
0.014924955450518284,7105.59427260307
0.015510844769528393,7246.81515599138
0.016119733573881575,7383.002026627874
0.01675252472408214,7513.374790157817
0.017410156523040152,7637.110561450082
0.018093604107387147,7753.3686541436755
0.01880388089340914,7861.2849747336995
0.019542040079740527,7959.979335541082
0.02030917620904734,8048.576869992926
0.021106426791015535,8126.213587435899
0.021934973989050584,8192.048556896263
0.02279604637318978,8245.281668037902
0.023690920741826323,8285.16627919035
0.02462092401494623,8311.0237222963
0.02558743520168586,8322.337386098383
0.02659188744512693,8318.706976747722
0.027635770147361564,8299.818302085914
0.028720631177978267,8265.455317369002
0.029848079169243254,8215.543626493369
0.03101978590138095,8150.70119643149
0.03223748878149028,8072.014411695041
0.0335029934197723,7980.434512111802
0.03481817630688963,7876.365143303074
0.03618498759642746,7760.1975391461765
0.037605453996581675,7633.310152146579
0.03908168177536263,7497.9800837402
0.04061585988376978,7356.422377970873
0.04221026320156896,7210.692993606483
0.04386725591048496,7062.723704898653
0.0455892949998106,6914.68520178772
0.047378933909631396,6768.994653949195
0.049238826317067365,6627.733536187528
0.05117173007114603,6492.448474869442
0.05318051128214196,6364.2834475995405
0.05526814857144601,6243.658404106883
0.057437737488265785,6130.524632878859
0.0596924950997073,6024.083575141326
0.0620357647610427,5922.942505580025
0.06447102107323864,5825.010604143119
0.06700187503509585,5727.510316596644
0.06963207939763882,5627.116455746886
0.0723655342286965,5519.9247298511955
0.07520629269592405,5401.8457058406275
0.07815856707684081,5269.082112141135
0.08122673500479707,5118.751497046614
0.08441534596012978,4949.578870492914
0.0877291280161335,4762.549304965621
0.09117299484984914,4560.703708711816
0.09475205302806537,4349.256439107435
0.09847160957933764,4135.049721452935
0.1023371798632519,3925.643766633036
0.10635449574860109,3729.0148914311185
0.11052951411260206,3553.1873373404696
0.1148684256737553,3402.05062250246
0.1193776641714435,3276.325561911612
0.1240639159058831,3172.88187636213
0.12893412965257148,3084.553701119214
0.13399552696593373,3001.378169805297
0.1392556128874462,2912.3328203696115
0.14472218707411338,2807.76918549182
0.15040335536380234,2682.199396290696
0.15630754179458153,2536.492893296879
0.16244350109588662,2378.3853292465897
0.16882033167003618,2220.922148556818
0.17544748908334581,2078.7056889481805
0.1823348000868439,1962.4030609387132
0.189492477187382,1873.9994238299787
0.19693113379074215,1806.0430567634207
0.20466179993919872,1744.2331070058715
0.21269593866686892,1672.584804899197
0.22104546299710207,1581.7963661728859
0.22972275360711503,1475.5866401824962
0.23874067718606454,1368.1286099400027
0.2481126055137766,1275.40180976437
0.25785243528842716,1205.3955340417249
0.26797460873256895,1152.726560549033
0.27849413500806414,1102.4888093216402
0.28942661247167484,1041.2627212113048
0.3007882518043098,968.501778707165
0.31259590004822796,896.413663997502
0.324867065587837,838.129796547155
0.3376199441111335,794.483466587486
0.35087344559027084,753.7857303718765
0.36464722232127456,705.778822798133
0.37896169806447155,653.6282422859982
0.3938380983288488,608.0895845243855
0.4092984818452433,572.4196600522113
0.4253657732750382,538.9812629507109
0.44206379720285277,501.62677447499374
0.45941731346364734,464.9501339396195
0.47745205385661277,434.6548955351919
0.4961947603002895,407.3823755947299
0.5156732244854959,378.72370450695325
0.5359163290848509,351.3809911061446
0.556954090580013,327.92298277355684
0.5788177037701272,305.45391822390127
0.6015395880274836,283.21093926503426
0.6251534353689703,263.338620459031
0.6496942604146115,244.85684786309778
0.6751984523072497,226.95010526494656
0.7017038286703824,210.67216363884114
0.7292496916841444,195.41615057133265
0.7578768863625915,181.0215076900435
0.7876278611187046,167.66271840013587
0.8185467307069019,155.25470830899417
0.850679341636415,143.7208313265932
0.8840733401525058,132.99216021213877
0.9187782428863317,123.00672026796163
0.9548455102782278,113.71342664472533
0.9923286228832539,105.07144971341071
1.0312831606721837,97.04200026878833
1.0717668854455022,89.58777707528783
1.1138398264826193,82.67301092321853
1.1575643695533022,76.26330373183902
1.2030053494233226,70.32473924880506
1.2502301459914542,64.82495265654387
1.299308784200415,59.733607885190025
1.3503140378698726,55.02228785421893
1.4033215376054824,50.66438919506382
1.4584098829439835,46.63510488328089
1.5156607589006013,42.91134617111857
1.575159057091621,39.47149149733181
1.6369930016117014,36.29529538707605
1.7012542798525885,33.36381585299138
1.7680381784572046,30.659338559973964
1.8374437246107238,28.165275009507273
1.9095738328780953,25.86613354380432
1.9845354578058014,23.74747792175587
2.0624397525140905,21.795863568982934
2.143402233514853,19.998776801806304
2.227542951999554,18.34457754061461
2.314986671851158,16.822444745703024
2.405863054644063,15.422323504765245
2.5003068519063225,14.134875836606419
2.598458104929248,12.95143427683556
2.7004623524206774,11.863957390721348
2.806470846309834,10.864983501258893
2.916640776023701,9.94759626958111
3.031135501567576,9.10539145765712
3.150124795755327,8.332441787587298
3.2737850959485697,7.62326391196837
3.4022997656780634,6.972786907885361
3.5358593665351745,6.376322815140003
3.6746619407366854,5.829540795884788
3.8189133047818515,5.328441779446876
3.968827354637162,4.869334563132424
4.1246263829013445,4.448813393829486
4.286541408420921,4.06373618259501
4.4548125188449825,3.7112058494036986
4.629689226627261,3.388553000339661
4.811430839003257,3.0933189413996502
5.000306842491082,2.823239858941848
5.196597302486189,2.576231567635813
5.400593278542364,2.3503751828688193
5.612597255954967,2.1439060406818418
5.8329235942862,1.9552020682577043
6.06189899349756,1.782772712436885
6.29986297838068,1.6252488190476189
6.547168402004727,1.4813748681817656
6.804181968927091,1.3499989892264839
7.071284778942991,1.230063152602607
7.348872892180382,1.1205958434299492
7.637357916378006,1.020705312071814
7.937167617217536,0.9295712622968362
8.248746552614573,0.8464355530077955
8.572556731909314,0.7706040159695914
8.909078300934132,0.7014424937235775
9.258810253973934,0.6383716308896679
9.622271173675122,0.5808627046362037
9.999999999999984,0.5284432391137008
