k [1/Mpc],P(k) [Mpc^3]
0.0001,1717.0917157090414
0.00010392556829367125,1779.200174806324
0.00010800523745162529,1843.5428357750138
0.00011224505680853065,1910.1986048289089
0.00011665131316981963,1979.2489496765606
0.00012123054013376525,2050.7780621602024
0.00012598952777950273,2124.872929414279
0.00013093533273536104,2201.623397505311
0.00013607528864243335,2281.122285723517
0.00014141701702890234,2363.465273603733
0.00014696843861124463,2448.751093961265
0.00015273778503907136,2537.0815459602636
0.00015873361110102093,2628.5613812655542
0.00016496480740980205,2723.2986527847515
0.0001714406135851971,2821.404719285768
0.00017817063195457305,2922.994366016158
0.00018516484179121546,3028.185759400542
0.000192433614111598,3137.1000378880044
0.00019998772705352857,3249.861853250528
0.0002078383818579757,3366.599348045396
0.00021599721947827182,3487.4442086212566
0.0002244763378413224,3612.5317815764224
0.0002332883097864157,3742.000497703966
0.00024244620170823283,3875.9923815285515
0.0002519635929317015,4014.652860162214
0.0002618545958474233,4158.1305251891
0.0002721338768375308,4306.577661768223
0.0002828166780230032,4460.149715565257
0.0002939188398646886,4619.005598874139
0.0003054568246515432,4783.3073629697665
0.00031744774091091926,4953.219324462925
0.00032990936877709396,5128.909096945534
0.00034286018635565856,5310.547294755829
0.00035631939712285854,5498.3075786201525
0.000370306958400514,5692.366261967477
0.00038484361094874304,5892.900567929449
0.0003999509097203664,6100.090008516232
0.00041565125582259895,6314.116164401153
0.00043196792973341727,6535.1624505497675
0.0004489251258218605,6763.414055291227
0.0004665479882234472,6999.055872752924
0.000484862648123908,7242.2735220515115
0.000503896262506515,7493.252721410837
0.0005236770544204653,7752.178237874408
0.0005442343548300266,8019.234657185385
0.0005655986461065005,8294.60355755567
0.0005878016072274912,8578.464193565642
0.0006108761607505036,8870.993113468998
0.0006348565216305217,9172.361690992127
0.0006597782479539537,9482.737690725602
0.0006856782936641739,9802.281073546224
0.0007125950633568407,10131.143831632258
0.0007405684692262436,10469.470842181245
0.0007696399902471156,10817.395239372458
0.0007998527336796708,11175.040880763441
0.000831251498989063,11542.518218815065
0.0008638828442740447,11919.92216935674
0.000897795155303332,12307.334944666356
0.0009330387172620361,12704.822418589018
0.0009696657893145519,13112.434811269035
0.001007730682094461,13530.202307574295
0.0010472898382363582,13958.13016625891
0.0010884019160690055,14396.202933554094
0.0011311278765939214,14844.37800537544
0.001175531073878369,15302.586458457517
0.0012216773489967915,15770.73300870044
0.0012696351276599736,16248.691376871397
0.0013194755216767058,16736.306354879194
0.0013712724343984,17233.388501360383
0.0014251026703029975,17739.713067868983
0.0014810460488806749,18255.020694798237
0.0015391855229902056,18779.011225579274
0.001599607301861487,19311.34638255646
0.0016624009789266115,19851.64496707602
0.0017276596646690358,20399.479906194185
0.0017954801246878305,20954.381383151038
0.0018659629231817451,21515.829779694206
0.001939212572065829,22083.258472861253
0.0020153376859417325,22656.05026884555
0.002094451143151469,23233.531538810414
0.002176670253153458,23814.97952132978
0.002262116930469025,24399.619739744114
0.002350917875457286,24986.62700237308
0.002443204762186487,25575.11918145599
0.0025391144336803463,26164.141709401905
0.002638789104828933,26752.685391456485
0.002742376573264949,27339.689538074545
0.0028500304385181063,27924.043249378938
0.0029619103297725525,28504.562451402773
0.0030781821425650787,29079.901803394438
0.003199018284775064,29648.63494579808
0.0033245979322709396,30209.45384419977
0.003455107294592217,30761.24085429078
0.0035907398910610534,31302.773099341084
0.0037316968377327513,31832.085838205094
0.0038781871456107214,32346.845273115607
0.0040304280305680515,32844.88283910045
0.00418864523543527,33324.45710642878
0.004353073364731888,33783.86526541371
0.00452395623253805,34221.36418978082
0.004701547224022131,34635.18978031439
0.004886109671160325,35023.470366585985
0.005077917243205399,35383.992830879884
0.005277254352483535,35714.48464405107
0.005484416576121017,36012.59905270716
0.005699711094326071,36275.932759408235
0.005923457145875801,36502.091458827
0.006155986501483508,36688.56245067416
0.006397643955748424,36832.863916410446
0.0066487878384172625,36932.522731377205
0.0069097905457156435,36985.056749536154
0.007181039092537346,36988.08604007601
0.007462935686310132,36939.04827048043
0.007755898323389004,36835.43644263279
0.00806036140886134,36674.83651409787
0.008376776400682916,36454.781775046744
0.008705612479099857,36173.08687736713
0.009047357242349292,35827.598569105554
0.00940251742967013,35416.37525412777
0.009771619672696168,34937.83572941108
0.010155211276345676,34390.47161757854
0.010553861030365234,33773.31961532943
0.010968160052731372,33085.74113311545
0.011398722666160517,32327.503727674244
0.011846187309026826,31499.141833867685
0.012311217482038896,30601.624417632916
0.012794502732078732,29636.783574342164
0.013296759674662111,28607.279155823882
0.013818733056536317,27516.526892393897
0.014361196859990781,26369.035182475996
0.014924955450518284,25170.297820959517
0.015510844769528393,23926.81516518336
0.016119733573881575,22646.22079415649
0.01675252472408214,21337.302534067618
0.017410156523040152,20009.54698707041
0.018093604107387147,18673.70487366367
0.01880388089340914,17341.07098566251
0.019542040079740527,16023.163477267975
0.02030917620904734,14732.79274398466
0.021106426791015535,13481.576425318717
0.021934973989050584,12281.368115409694
0.02279604637318978,11143.457875552134
0.023690920741826323,10076.779082479428
0.02462092401494623,9091.58175657824
0.02558743520168586,8194.846345562497
0.02659188744512693,7391.059084559845
0.027635770147361564,6683.484162079683
0.028720631177978267,6072.023570380368
0.029848079169243254,5556.374880798901
0.03101978590138095,5135.339187253475
0.03223748878149028,4804.109778172436
0.0335029934197723,4554.1477600460685
0.03481817630688963,4378.365257993888
0.03618498759642746,4269.70822318555
0.037605453996581675,4221.858748034493
0.03908168177536263,4223.348225232868
0.04061585988376978,4260.583240837726
0.04221026320156896,4314.170336393573
0.04386725591048496,4361.907316102972
0.0455892949998106,4379.48606167043
0.047378933909631396,4344.336564186268
0.049238826317067365,4238.252280019916
0.05117173007114603,4050.178239270545
0.05318051128214196,3778.9231127763405
0.05526814857144601,3433.779170267609
0.057437737488265785,3033.1063344864474
0.0596924950997073,2607.135936182966
0.0620357647610427,2192.2279105873013
0.06447102107323864,1820.7990201419193
0.06700187503509585,1518.0598967193525
0.06963207939763882,1296.1494577481626
0.0723655342286965,1156.0441199856734
0.07520629269592405,1091.02043604979
0.07815856707684081,1088.8420110489317
0.08122673500479707,1132.374558654895
0.08441534596012978,1197.2146784639508
0.0877291280161335,1251.2040296891832
0.09117299484984914,1259.7961251349318
0.09475205302806537,1198.150285014958
0.09847160957933764,1066.3873908031512
0.1023371798632519,893.657819753745
0.10635449574860109,720.9750955827998
0.11052951411260206,581.8975958964534
0.1148684256737553,496.1058063119459
0.1193776641714435,465.9081596670735
0.1240639159058831,477.2860581868225
0.12893412965257148,506.40574174501535
0.13399552696593373,521.9129362362104
0.1392556128874462,497.50737245229334
0.14472218707411338,432.48732688888464
0.15040335536380234,352.3668713642032
0.15630754179458153,289.0244125171771
0.16244350109588662,258.12859764463826
0.16882033167003618,255.51838138292268
0.17544748908334581,263.1836414133193
0.1823348000868439,257.35809384598275
0.189492477187382,229.11938024584586
0.19693113379074215,191.67352896716605
0.20466179993919872,164.95284567437315
0.21269593866686892,155.3562384761477
0.22104546299710207,153.8055163157207
0.22972275360711503,145.9630781523057
0.23874067718606454,128.4569992888116
0.2481126055137766,111.36759549290589
0.25785243528842716,102.42663436280051
0.26797460873256895,98.1275619644388
0.27849413500806414,90.8143450137227
0.28942661247167484,80.38987000893154
0.3007882518043098,72.43728016996641
0.31259590004822796,67.74902913394786
0.324867065587837,62.460205811218
0.3376199441111335,56.05375782835392
0.35087344559027084,51.05576565926532
0.36464722232127456,47.175420985168145
0.37896169806447155,42.880295820628376
0.3938380983288488,38.89107891983112
0.4092984818452433,35.66443565803447
0.4253657732750382,32.49013728222963
0.44206379720285277,29.516805028226095
0.45941731346364734,26.861997118046016
0.47745205385661277,24.4745025492006
0.4961947603002895,22.31267011431476
0.5156732244854959,20.342615193310262
0.5359163290848509,18.5369523728063
0.556954090580013,16.878406872099088
0.5788177037701272,15.358025419670824
0.6015395880274836,13.967230282004177
0.6251534353689703,12.697445426670463
0.6496942604146115,11.540210610655864
0.6751984523072497,10.487189132535683
0.7017038286703824,9.529432862345866
0.7292496916841444,8.658135997194673
0.7578768863625915,7.8653392182318616
0.7876278611187046,7.143853338533698
0.8185467307069019,6.487179751370329
0.850679341636415,5.889472492100465
0.8840733401525058,5.345584509849253
0.9187782428863317,4.8508478648256785
0.9548455102782278,4.400976796809834
0.9923286228832539,3.9920391481599458
1.0312831606721837,3.620429591485963
1.0717668854455022,3.282834180005735
1.1138398264826193,2.9761983958856457
1.1575643695533022,2.6977330223313043
1.2030053494233226,2.444895396687049
1.2502301459914542,2.2153680575218746
1.299308784200415,2.007039274909595
1.3503140378698726,1.817987295088943
1.4033215376054824,1.6464633478763342
1.4584098829439835,1.490873650729158
1.5156607589006013,1.3497659169620129
1.575159057091621,1.2218171592999851
1.6369930016117014,1.1058224703927952
1.7012542798525885,1.0006844665516064
1.7680381784572046,0.905404185922375
1.8374437246107238,0.8190727222826139
1.9095738328780953,0.7408633070492802
1.9845354578058014,0.6700240637014573
2.0624397525140905,0.6058713092815813
2.143402233514853,0.5477832837536759
2.227542951999554,0.4951949633316607
2.314986671851158,0.44759308946925225
2.405863054644063,0.40451151722486733
2.5003068519063225,0.36552697255240846
2.598458104929248,0.3302552288895898
2.7004623524206774,0.29834760898412893
2.806470846309834,0.2694876558992925
2.916640776023701,0.2433881992295538
3.031135501567576,0.21978869657132227
3.150124795755327,0.1984528086808701
3.2737850959485697,0.17916613914647525
3.4022997656780634,0.16173424496011454
3.5358593665351745,0.14598087694112163
3.6746619407366854,0.13174630731512077
3.8189133047818515,0.1188858048801802
3.968827354637162,0.10726825042534462
4.1246263829013445,0.09677489116988423
4.286541408420921,0.08729817946911679
4.4548125188449825,0.07874072065304814
4.629689226627261,0.07101432909247303
4.811430839003257,0.06403917058322905
5.000306842491082,0.057742975398777444
5.196597302486189,0.0520603105974315
5.400593278542364,0.046931971960582956
5.612597255954967,0.042304407521178644
5.8329235942862,0.03812918424408744
6.06189899349756,0.03436250449309941
6.29986297838068,0.03096478304006173
6.547168402004727,0.027900256942204545
6.804181968927091,0.025136589017166245
7.071284778942991,0.022644540728509032
7.348872892180382,0.020397679819544576
7.637357916378006,0.018372112696545078
7.937167617217536,0.016546194742608763
8.248746552614573,0.01490033565766041
8.572556731909314,0.013416862942324836
8.909078300934132,0.012079836265829657
9.258810253973934,0.010874877329025881
9.622271173675122,0.0097890323915255
9.999999999999984,0.008810740460744185
