k [1/Mpc],P(k) [Mpc^3]
0.0001,343.79646159024253
0.00010392556829367125,357.28793502868984
0.00010800523745162529,371.3084785186636
0.00011224505680853065,385.87879243180515
0.00011665131316981963,401.02038185055784
0.00012123054013376525,416.75558534088356
0.00012598952777950273,433.10761072952477
0.00013093533273536104,450.1005723255412
0.00013607528864243335,467.75952526294634
0.00014141701702890234,486.11048934228626
0.00014696843861124463,505.1804612940022
0.00015273778503907136,524.9974767491045
0.00015873361110102093,545.5906782764364
0.00016496480740980205,566.9903611287207
0.0001714406135851971,589.2279852312473
0.00017817063195457305,612.3361652701384
0.00018516484179121546,636.3487510913728
0.000192433614111598,661.300903242356
0.00019998772705352857,687.2291494943587
0.0002078383818579757,714.1714188078628
0.00021599721947827182,742.1670545724895
0.0002244763378413224,771.256883723025
0.0002332883097864157,801.4832965542901
0.00024244620170823283,832.8903127090877
0.0002519635929317015,865.5236265069898
0.0002618545958474233,899.4305678060097
0.0002721338768375308,934.6601720848824
0.0002828166780230032,971.26333530237
0.0002939188398646886,1009.2929440451834
0.0003054568246515432,1048.803892610673
0.00031744774091091926,1089.852989159144
0.00032990936877709396,1132.4989749711426
0.00034286018635565856,1176.8027641254025
0.00035631939712285854,1222.827622725237
0.000370306958400514,1270.6391960554424
0.00038484361094874304,1320.305430191629
0.0003999509097203664,1371.8965311346421
0.00041565125582259895,1425.4852154840871
0.00043196792973341727,1481.146749519856
0.0004489251258218605,1538.9590539515902
0.0004665479882234472,1599.0027964386738
0.000484862648123908,1661.3614142106692
0.000503896262506515,1726.1212610242037
0.0005236770544204653,1793.3715176736691
0.0005442343548300266,1863.2042703036668
0.0005655986461065005,1935.7147325820115
0.0005878016072274912,2011.0012372080023
0.0006108761607505036,2089.1654019684956
0.0006348565216305217,2170.312069653142
0.0006597782479539537,2254.549296135655
0.0006856782936641739,2341.9886174435887
0.0007125950633568407,2432.744892040003
0.0007405684692262436,2526.9365104384383
0.0007696399902471156,2624.685419581719
0.0007998527336796708,2726.1169664908
0.000831251498989063,2831.3602455953715
0.0008638828442740447,2940.5478572210895
0.000897795155303332,3053.816040499242
0.0009330387172620361,3171.30473229388
0.0009696657893145519,3293.156995794664
0.001007730682094461,3419.5196041061895
0.0010472898382363582,3550.5426897901384
0.0010884019160690055,3686.3796516496354
0.0011311278765939214,3827.187488169039
0.001175531073878369,3973.1259007645176
0.0012216773489967915,4124.357853477238
0.0012696351276599736,4281.049269946133
0.0013194755216767058,4443.3685042878005
0.0013712724343984,4611.486915506555
0.0014251026703029975,4785.577425320475
0.0014810460488806749,4965.814931232877
0.0015391855229902056,5152.376400950097
0.001599607301861487,5345.439821154521
0.0016624009789266115,5545.184893687834
0.0017276596646690358,5751.791319262605
0.0017954801246878305,5965.438618962812
0.0018659629231817451,6186.306628947974
0.001939212572065829,6414.573615099178
0.0020153376859417325,6650.417134250561
0.002094451143151469,6894.012141925775
0.002176670253153458,7145.529758083793
0.002262116930469025,7405.1385563648
0.002350917875457286,7673.002353904448
0.002443204762186487,7949.28061032235
0.0025391144336803463,8234.126252151607
0.002638789104828933,8527.682490491956
0.002742376573264949,8830.08529622587
0.0028500304385181063,9141.460209140649
0.0029619103297725525,9461.922237825418
0.0030781821425650787,9791.574700227402
0.003199018284775064,10130.50395976651
0.0033245979322709396,10478.782383107517
0.003455107294592217,10836.463895149305
0.0035907398910610534,11203.582402829785
0.0037316968377327513,11580.152517935547
0.0038781871456107214,11966.1610459078
0.0040304280305680515,12361.570737705177
0.00418864523543527,12766.315457241235
0.004353073364731888,13180.295155679027
0.00452395623253805,13603.378981333944
0.004701547224022131,14035.385743081823
0.004886109671160325,14476.09068099794
0.005077917243205399,14925.23990357351
0.005277254352483535,15382.558923594905
0.005484416576121017,15847.73273881162
0.005699711094326071,16320.31766559782
0.005923457145875801,16799.75240841126
0.006155986501483508,17285.42565736153
0.006397643955748424,17776.70563215386
0.0066487878384172625,18272.912111669328
0.0069097905457156435,18773.290030939173
0.007181039092537346,19277.00450617429
0.007462935686310132,19783.142230206417
0.007755898323389004,20290.635460809328
0.00806036140886134,20798.310719312598
0.008376776400682916,21304.88714645025
0.008705612479099857,21808.951321840206
0.009047357242349292,22308.997024836484
0.00940251742967013,22803.364387252957
0.009771619672696168,23290.270116774773
0.010155211276345676,23767.8111902873
0.010553861030365234,24233.900491795976
0.010968160052731372,24686.3508240144
0.011398722666160517,25122.79547493538
0.011846187309026826,25540.70750532595
0.012311217482038896,25937.460192435177
0.012794502732078732,26310.21039864772
0.013296759674662111,26656.03308459225
0.013818733056536317,26971.866642279874
0.014361196859990781,27254.495287275746
0.014924955450518284,27500.692613326224
0.015510844769528393,27707.075849246332
0.016119733573881575,27870.264160923776
0.01675252472408214,27986.905436470955
0.017410156523040152,28053.614870842335
0.018093604107387147,28067.196516494954
0.01880388089340914,28024.54231169617
0.019542040079740527,27922.759990311824
0.02030917620904734,27759.323738678228
0.021106426791015535,27532.05816764211
0.021934973989050584,27239.296204129267
0.02279604637318978,26879.931349343053
0.023690920741826323,26453.471635705188
0.02462092401494623,25960.21825201488
0.02558743520168586,25401.703112370913
0.02659188744512693,24780.303618961778
0.027635770147361564,24099.07295238322
0.028720631177978267,23361.723234028064
0.029848079169243254,22573.02537653415
0.03101978590138095,21741.846828179427
0.03223748878149028,20878.62661999573
0.0335029934197723,19992.144655732438
0.03481817630688963,19088.211225066323
0.03618498759642746,18172.596735191695
0.037605453996581675,17256.332823777844
0.03908168177536263,16353.017420103246
0.04061585988376978,15474.798019693351
0.04221026320156896,14633.289272444039
0.04386725591048496,13838.149335314933
0.0455892949998106,13098.178985241977
0.047378933909631396,12420.33872649443
0.049238826317067365,11809.068362699687
0.05117173007114603,11266.931430946415
0.05318051128214196,10794.004911447479
0.05526814857144601,10388.633961631238
0.057437737488265785,10046.357908782948
0.0596924950997073,9760.482040492645
0.0620357647610427,9521.58774813001
0.06447102107323864,9316.827591289873
0.06700187503509585,9130.443333502466
0.06963207939763882,8943.906633439756
0.0723655342286965,8737.523293828945
0.07520629269592405,8492.146984642877
0.07815856707684081,8192.618760117059
0.08122673500479707,7830.3329318900705
0.08441534596012978,7403.320976880654
0.0877291280161335,6917.468863547272
0.09117299484984914,6387.52494677995
0.09475205302806537,5837.312593468719
0.09847160957933764,5296.810477933565
0.1023371798632519,4797.446129822751
0.10635449574860109,4366.559021518575
0.11052951411260206,4022.6536474458744
0.1148684256737553,3772.8549122197887
0.1193776641714435,3612.357997286206
0.1240639159058831,3524.66446090296
0.12893412965257148,3482.1882286443306
0.13399552696593373,3448.533067526664
0.1392556128874462,3384.1117448511322
0.14472218707411338,3255.4127776690334
0.15040335536380234,3046.760829940903
0.15630754179458153,2770.0951238337093
0.16244350109588662,2463.7335860800235
0.16882033167003618,2177.1497986590293
0.17544748908334581,1952.068531489528
0.1823348000868439,1810.2892647888661
0.189492477187382,1747.2645896254835
0.19693113379074215,1731.5755031205408
0.20466179993919872,1714.5620909579088
0.21269593866686892,1649.8369285014683
0.22104546299710207,1518.2897838160268
0.22972275360711503,1343.833673191837
0.23874067718606454,1178.3842584528586
0.2481126055137766,1066.3341254480358
0.25785243528842716,1017.6087174834514
0.26797460873256895,1003.844746969851
0.27849413500806414,976.6155310576456
0.28942661247167484,903.2839149616866
0.3007882518043098,798.314978024349
0.31259590004822796,707.2989114997453
0.324867065587837,659.6015322383431
0.3376199441111335,641.8760305153785
0.35087344559027084,614.7903097689821
0.36464722232127456,557.9009805462364
0.37896169806447155,494.4848002118605
0.3938380983288488,455.6429267025044
0.4092984818452433,437.416072035472
0.4253657732750382,411.2535122510696
0.44206379720285277,369.6487726247238
0.45941731346364734,335.16633256883983
0.47745205385661277,316.5346612330161
0.4961947603002895,296.2791795247919
0.5156732244854959,267.79040920537904
0.5359163290848509,245.55691568942947
0.556954090580013,230.45193455158855
0.5788177037701272,211.38451841328848
0.6015395880274836,192.6501715584252
0.6251534353689703,179.1320694285697
0.6496942604146115,164.92495948800445
0.6751984523072497,150.23946290600983
0.7017038286703824,137.4709678022712
0.7292496916841444,126.30799336612282
0.7578768863625915,116.36096587647702
0.7876278611187046,107.32581486818229
0.8185467307069019,98.96581951442958
0.850679341636415,91.10805878688882
0.8840733401525058,83.7141892403523
0.9187782428863317,76.80472080779478
0.9548455102782278,70.38881457233254
0.9923286228832539,64.46539156853053
1.0312831606721837,59.025160401974425
1.0717668854455022,54.0484054688952
1.1138398264826193,49.49503029542785
1.1575643695533022,45.32401544776325
1.2030053494233226,41.499065171160375
1.2502301459914542,37.98800382599945
1.299308784200415,34.762264212338025
1.3503140378698726,31.797754011703713
1.4033215376054824,29.075161260221883
1.4584098829439835,26.5766436532796
1.5156607589006013,24.285411430916394
1.575159057091621,22.185700471023782
1.6369930016117014,20.26272376051014
1.7012542798525885,18.50231486310447
1.7680381784572046,16.891045596903005
1.8374437246107238,15.416562679375511
1.9095738328780953,14.067517093396352
1.9845354578058014,12.833483547010315
2.0624397525140905,11.704895095958307
2.143402233514853,10.673024991810125
2.227542951999554,9.729867135959628
2.314986671851158,8.868047952363849
2.405863054644063,8.080779412145475
2.5003068519063225,7.361815393331739
2.598458104929248,6.705407631525079
2.7004623524206774,6.106262184170691
2.806470846309834,5.5595158482235965
2.916640776023701,5.0607049682758465
3.031135501567576,4.605733955468256
3.150124795755327,4.190846147934109
3.2737850959485697,3.812596476182484
3.4022997656780634,3.4678265381753293
3.5358593665351745,3.153642260611964
3.6746619407366854,2.8673926211841887
3.8189133047818515,2.6066499529717646
3.968827354637162,2.369191797803344
4.1246263829013445,2.1529844209105757
4.286541408420921,1.9561671573429866
4.4548125188449825,1.7770379316293825
4.629689226627261,1.6140401812791374
4.811430839003257,1.465750818963325
5.000306842491082,1.3308689471063748
5.196597302486189,1.2082049120183325
5.400593278542364,1.096671985281337
5.612597255954967,0.9952780758759858
5.8329235942862,0.9031176904299234
6.06189899349756,0.8193645579910253
6.29986297838068,0.7432653451996992
6.547168402004727,0.6741338618847784
6.804181968927091,0.6113440870750443
7.071284778942991,0.5543248811608963
7.348872892180382,0.5025553251208588
7.637357916378006,0.45556037645745745
7.937167617217536,0.4129052877987402
8.248746552614573,0.3741925588671208
8.572556731909314,0.33906088806952966
8.909078300934132,0.30718197933583646
9.258810253973934,0.278257519815647
9.622271173675122,0.25201696251798744
9.999999999999984,0.22821889754777994
