k [1/Mpc],P(k) [Mpc^3]
0.0001,4456.831184891645
0.00010392556829367125,4604.993648221025
0.00010800523745162529,4758.071846787437
0.00011224505680853065,4916.227778869912
0.00011665131316981963,5079.628600902085
0.00012123054013376525,5248.446890036054
0.00012598952777950273,5422.860805940709
0.00013093533273536104,5603.054275206641
0.00013607528864243335,5789.216932684411
0.00014141701702890234,5981.544106307541
0.00014696843861124463,6180.237340016432
0.00015273778503907136,6385.504670145792
0.00015873361110102093,6597.560808050679
0.00016496480740980205,6816.627229563711
0.0001714406135851971,7042.932213252573
0.00017817063195457305,7276.711205685201
0.00018516484179121546,7518.20660970538
0.000192433614111598,7767.667979365149
0.00019998772705352857,8025.352544664777
0.0002078383818579757,8291.52513595948
0.00021599721947827182,8566.458631706386
0.0002244763378413224,8850.434064646612
0.0002332883097864157,9143.740712967061
0.00024244620170823283,9446.676520435125
0.0002519635929317015,9759.54761696575
0.0002618545958474233,10082.668864741992
0.0002721338768375308,10416.363926283524
0.0002828166780230032,10760.964637621657
0.0002939188398646886,11116.812212878074
0.0003054568246515432,11484.257556215969
0.00031744774091091926,11863.661503047635
0.00032990936877709396,12255.394535399584
0.00034286018635565856,12659.835006826572
0.00035631939712285854,13077.370900826372
0.000370306958400514,13508.400132379635
0.00038484361094874304,13953.33051588594
0.0003999509097203664,14412.58015950134
0.00041565125582259895,14886.575365851852
0.00043196792973341727,15375.751922985568
0.0004489251258218605,15880.555704387396
0.0004665479882234472,16401.442022506486
0.000484862648123908,16938.876527109544
0.000503896262506515,17493.332698065245
0.0005236770544204653,18065.292325307633
0.0005442343548300266,18655.246808317348
0.0005655986461065005,19263.695419003456
0.0005878016072274912,19891.146742244877
0.0006108761607505036,20538.116379086572
0.0006348565216305217,21205.12597179255
0.0006597782479539537,21892.705083409364
0.0006856782936641739,22601.386681632062
0.0007125950633568407,23331.7094289433
0.0007405684692262436,24084.2170122608
0.0007696399902471156,24859.45539151379
0.0007998527336796708,25657.975173183368
0.000831251498989063,26480.32423051515
0.0008638828442740447,27327.04891993161
0.000897795155303332,28198.69516899916
0.0009330387172620361,29095.80090074174
0.0009696657893145519,30018.90141002649
0.001007730682094461,30968.52336231462
0.0010472898382363582,31945.182455441027
0.0010884019160690055,32949.38609355323
0.0011311278765939214,33981.6200453734
0.001175531073878369,35042.35483817775
0.0012216773489967915,36132.04356940029
0.0012696351276599736,37251.11571300856
0.0013194755216767058,38399.981124374746
0.0013712724343984,39579.01343866733
0.0014251026703029975,40788.553088468456
0.0014810460488806749,42028.90818219876
0.0015391855229902056,43300.34063419915
0.001599607301861487,44603.074937071724
0.0016624009789266115,45937.283892592095
0.0017276596646690358,47303.084831328575
0.0017954801246878305,48700.5447672646
0.0018659629231817451,50129.66041654385
0.001939212572065829,51590.36714233798
0.0020153376859417325,53082.52639541158
0.002094451143151469,54605.91217041814
0.002176670253153458,56160.22453744668
0.002262116930469025,57745.068627099994
0.002350917875457286,59359.9589178454
0.002443204762186487,61004.310412448205
0.0025391144336803463,62677.40966539373
0.002638789104828933,64378.43818947928
0.002742376573264949,66106.44529737197
0.0028500304385181063,67860.34574728305
0.0029619103297725525,69638.92565181178
0.0030781821425650787,71440.79355828864
0.003199018284775064,73264.41272427911
0.0033245979322709396,75108.07351253089
0.003455107294592217,76969.87164044334
0.0035907398910610534,78847.74149566375
0.0037316968377327513,80739.39077489702
0.0038781871456107214,82642.33197354346
0.0040304280305680515,84553.82942334717
0.00418864523543527,86470.78537729118
0.004353073364731888,88389.89722744377
0.00452395623253805,90307.81075341984
0.004701547224022131,92221.10169572632
0.004886109671160325,94125.93535692815
0.005077917243205399,96017.33586041968
0.005277254352483535,97889.85592109092
0.005484416576121017,99738.00364683697
0.005699711094326071,101556.31807929788
0.005923457145875801,103339.13909103454
0.006155986501483508,105080.48193848277
0.006397643955748424,106774.13130002077
0.0066487878384172625,108413.3356191235
0.0069097905457156435,109990.42472160545
0.007181039092537346,111497.43444819834
0.007462935686310132,112925.71803570955
0.007755898323389004,114266.14507821803
0.00806036140886134,115509.3007501903
0.008376776400682916,116645.05980263522
0.008705612479099857,117663.15292577834
0.009047357242349292,118552.69807505418
0.00940251742967013,119302.21106385539
0.009771619672696168,119900.18540524431
0.010155211276345676,120334.0625670164
0.010553861030365234,120591.25982484789
0.010968160052731372,120658.96214269221
0.011398722666160517,120523.63446403718
0.011846187309026826,120172.43480935921
0.012311217482038896,119591.80170562775
0.012794502732078732,118768.551649412
0.013296759674662111,117690.39521776646
0.013818733056536317,116344.47216297204
0.014361196859990781,114719.95792751983
0.014924955450518284,112806.50273132135
0.015510844769528393,110594.90468497593
0.016119733573881575,108079.17115824415
0.01675252472408214,105253.73468701121
0.017410156523040152,102117.14899365464
0.018093604107387147,98671.05736637025
0.01880388089340914,94919.4409055746
0.019542040079740527,90872.92949172489
0.02030917620904734,86544.79504670459
0.021106426791015535,81954.61334695702
0.021934973989050584,77128.4708039759
0.02279604637318978,72095.1943750273
0.023690920741826323,66893.0690758382
0.02462092401494623,61565.65224658805
0.02558743520168586,56162.798109857584
0.02659188744512693,50740.76155776245
0.027635770147361564,45352.39974176633
0.028720631177978267,40057.71522334011
0.029848079169243254,34925.95172493319
0.03101978590138095,30030.069061174305
0.03223748878149028,25434.76058172305
0.0335029934197723,21176.070571641045
0.03481817630688963,17285.857432284356
0.03618498759642746,13806.488012670605
0.037605453996581675,10778.02604623567
0.03908168177536263,8215.079150592965
0.04061585988376978,6107.266853525906
0.04221026320156896,4426.174604128465
0.04386725591048496,3133.2535735310616
0.0455892949998106,2176.26578163505
0.047378933909631396,1500.034490788022
0.049238826317067365,1046.0794155654573
0.05117173007114603,762.4137538329767
0.05318051128214196,605.4125131913559
0.05526814857144601,545.8410814625623
0.057437737488265785,566.3768581365516
0.0596924950997073,664.3170437277433
0.0620357647610427,843.7697281517748
0.06447102107323864,1108.1833767192982
0.06700187503509585,1451.7242975913287
0.06963207939763882,1852.135289401952
0.0723655342286965,2265.9222365707574
0.07520629269592405,2631.5672742882116
0.07815856707684081,2877.709303727587
0.08122673500479707,2940.4138623162307
0.08441534596012978,2784.7642477906693
0.0877291280161335,2422.3478605415567
0.09117299484984914,1914.4412859908887
0.09475205302806537,1355.9509256922374
0.09847160957933764,845.7482361505101
0.1023371798632519,455.4732854685452
0.10635449574860109,210.08047614150715
0.11052951411260206,88.02902350374863
0.1148684256737553,44.83946026128626
0.1193776641714435,45.4054297632025
0.1240639159058831,87.60613112495412
0.12893412965257148,192.71837806786226
0.13399552696593373,366.493696483943
0.1392556128874462,564.5980171923136
0.14472218707411338,699.1158175201097
0.15040335536380234,690.9449229033157
0.15630754179458153,534.5290501948435
0.16244350109588662,313.5058675601953
0.16882033167003618,134.38140893976276
0.17544748908334581,43.937670777203806
0.1823348000868439,19.180344936815548
0.189492477187382,29.7078589834904
0.19693113379074215,82.1943395551799
0.20466179993919872,176.4733274428901
0.21269593866686892,250.19305988200904
0.22104546299710207,230.54562032382003
0.22972275360711503,134.8004725454064
0.23874067718606454,49.97229822415258
0.2481126055137766,17.523887634273382
0.25785243528842716,20.372966477927566
0.26797460873256895,53.646646325041175
0.27849413500806414,100.19031634283573
0.28942661247167484,102.24921722764464
0.3007882518043098,55.754306672130475
0.31259590004822796,19.981295237270782
0.324867065587837,14.398832671596503
0.3376199441111335,31.127874814132976
0.35087344559027084,52.408636228431654
0.36464722232127456,42.35796090341331
0.37896169806447155,18.493894455536804
0.3938380983288488,11.777972940793294
0.4092984818452433,21.011426483252574
0.4253657732750382,28.899498871542818
0.44206379720285277,18.394297441919672
0.45941731346364734,9.830617291469002
0.47745205385661277,12.958340767646657
0.4961947603002895,17.17116331377861
0.5156732244854959,11.273094485171127
0.5359163290848509,8.224292286616864
0.556954090580013,9.353436354550029
0.5788177037701272,8.832711043197492
0.6015395880274836,7.929435438902983
0.6251534353689703,7.17455506960506
0.6496942604146115,6.52343105293421
0.6751984523072497,5.939758398872571
0.7017038286703824,5.397048089638567
0.7292496916841444,4.876685942074772
0.7578768863625915,4.374262644626925
0.7876278611187046,3.9034289314578885
0.8185467307069019,3.474887768317569
0.850679341636415,3.094426023605948
0.8840733401525058,2.7641141610452036
0.9187782428863317,2.4830052565397533
0.9548455102782278,2.2432328374940087
0.9923286228832539,2.034775346099579
1.0312831606721837,1.849943934992616
1.0717668854455022,1.682888106600021
1.1138398264826193,1.5291890026185977
1.1575643695533022,1.3862335333158027
1.2030053494233226,1.2539654605907786
1.2502301459914542,1.1325031966029158
1.299308784200415,1.0217125665156868
1.3503140378698726,0.9212642490505545
1.4033215376054824,0.8306730118782762
1.4584098829439835,0.7491322857219314
1.5156607589006013,0.6756766072302173
1.575159057091621,0.6094470459123923
1.6369930016117014,0.5496858559046328
1.7012542798525885,0.4957233888472512
1.7680381784572046,0.4469736735509826
1.8374437246107238,0.40294176291839695
1.9095738328780953,0.3631853075873544
1.9845354578058014,0.32730132120347233
2.0624397525140905,0.2949229650324943
2.143402233514853,0.2657164884350807
2.227542951999554,0.23937640892717005
2.314986671851158,0.21562355783262138
2.405863054644063,0.1942056588910657
2.5003068519063225,0.1748949064052857
2.598458104929248,0.1574855986968921
2.7004623524206774,0.14179208003789956
2.806470846309834,0.1276471252937513
2.916640776023701,0.11489974671798327
3.031135501567576,0.10341346802878626
3.150124795755327,0.09306495328101316
3.2737850959485697,0.0837427616965804
3.4022997656780634,0.07534614696260368
3.5358593665351745,0.0677840289984397
3.6746619407366854,0.06097420071036405
3.8189133047818515,0.054842482225324445
3.968827354637162,0.04932194391681786
4.1246263829013445,0.04435221578253481
4.286541408420921,0.03987892454551902
4.4548125188449825,0.03585303615235225
4.629689226627261,0.032230291562729475
4.811430839003257,0.02897074958804989
5.000306842491082,0.026038372738622452
5.196597302486189,0.02340062885774088
5.400593278542364,0.021028138424183867
5.612597255954967,0.018894423245087503
5.8329235942862,0.016975628780181516
6.06189899349756,0.015250266088378844
6.29986297838068,0.013698980057782455
6.547168402004727,0.01230434959007607
6.804181968927091,0.011050688555200743
7.071284778942991,0.009923866280844145
7.348872892180382,0.00891115490450547
7.637357916378006,0.008001091647255973
7.937167617217536,0.007183346031437698
8.248746552614573,0.006448597174817596
8.572556731909314,0.00578845926852704
8.909078300934132,0.005195392218498662
9.258810253973934,0.004662616277425905
9.622271173675122,0.004184037994258884
9.999999999999984,0.0037542215649414407
