k [1/Mpc],P(k) [Mpc^3]
0.0001,44.02050157866955
0.00010392556829367125,45.88069820129962
0.00010800523745162529,47.819487374400886
0.00011224505680853065,49.840187026685
0.00011665131316981963,51.94625612719394
0.00012123054013376525,54.14130102578657
0.00012598952777950273,56.4290800630749
0.00013093533273536104,58.81350732351885
0.00013607528864243335,61.298660609990435
0.00014141701702890234,63.88879082226025
0.00014696843861124463,66.58833084747792
0.00015273778503907136,69.40190066885523
0.00015873361110102093,72.33431079698614
0.00016496480740980205,75.39057117203676
0.0001714406135851971,78.57590330145513
0.00017817063195457305,81.89575206606855
0.00018516484179121546,85.35579243256763
0.000192433614111598,88.96193757609497
0.00019998772705352857,92.72034869834461
0.0002078383818579757,96.63744559593721
0.00021599721947827182,100.71991444993418
0.0002244763378413224,104.97472083122383
0.0002332883097864157,109.40912191264113
0.00024244620170823283,114.03067805368464
0.0002519635929317015,118.84726669576305
0.0002618545958474233,123.86709951092885
0.0002721338768375308,129.0987352219263
0.0002828166780230032,134.55108737295544
0.0002939188398646886,140.2334294575244
0.0003054568246515432,146.15541941693795
0.00031744774091091926,152.3271214013397
0.00032990936877709396,158.75902297982944
0.00034286018635565856,165.4620489050157
0.00035631939712285854,172.44757666989545
0.000370306958400514,179.72745663954677
0.00038484361094874304,187.31402462651337
0.0003999509097203664,195.22011602078223
0.00041565125582259895,203.4590965312654
0.00043196792973341727,212.04488765168162
0.0004489251258218605,220.99198821887703
0.0004665479882234472,230.31549154240338
0.000484862648123908,240.0311007309676
0.000503896262506515,250.15516184009584
0.0005236770544204653,260.70467763851946
0.0005442343548300266,271.69733356791727
0.0005655986461065005,283.1515376194832
0.0005878016072274912,295.0864551781993
0.0006108761607505036,307.5220343615536
0.0006348565216305217,320.4790101429171
0.0006597782479539537,333.97892045943905
0.0006856782936641739,348.04416878087625
0.0007125950633568407,362.698070905142
0.0007405684692262436,377.96488554356006
0.0007696399902471156,393.86982238963805
0.0007998527336796708,410.43904291954914
0.000831251498989063,427.699736282784
0.0008638828442740447,445.68014775256046
0.000897795155303332,464.40961923625326
0.0009330387172620361,483.91863357670314
0.0009696657893145519,504.2388277121018
0.001007730682094461,525.4030569277855
0.0010472898382363582,547.4454267440152
0.0010884019160690055,570.4013284004347
0.0011311278765939214,594.3074901121687
0.001175531073878369,619.2019199219816
0.0012216773489967915,645.1240010609457
0.0012696351276599736,672.1145644298679
0.0013194755216767058,700.2159107867428
0.0013712724343984,729.4718822699153
0.0014251026703029975,759.9278106884256
0.0014810460488806749,791.6305796856084
0.0015391855229902056,824.6286988749833
0.001599607301861487,858.9722315463698
0.0016624009789266115,894.7129375313488
0.0017276596646690358,931.9042481857603
0.0017954801246878305,970.6012765115922
0.0018659629231817451,1010.8609220366415
0.001939212572065829,1052.7416967113284
0.0020153376859417325,1096.3038813155013
0.002094451143151469,1141.609555762038
0.002176670253153458,1188.7225310892682
0.002262116930469025,1237.708492164328
0.002350917875457286,1288.6347522225017
0.002443204762186487,1341.5703377262842
0.0025391144336803463,1396.5860591285445
0.002638789104828933,1453.754229304013
0.002742376573264949,1513.1489218793006
0.0028500304385181063,1574.8457673458934
0.0029619103297725525,1638.9218846215892
0.0030781821425650787,1705.4560028216786
0.003199018284775064,1774.5279112738192
0.0033245979322709396,1846.2187390459364
0.003455107294592217,1920.6107608944146
0.0035907398910610534,1997.7870334967076
0.0037316968377327513,2077.83170394027
0.0038781871456107214,2160.8292418666333
0.0040304280305680515,2246.8645494109282
0.00418864523543527,2336.022872713293
0.004353073364731888,2428.3888981249434
0.00452395623253805,2524.0472919031445
0.004701547224022131,2623.081741562814
0.004886109671160325,2725.5746488641566
0.005077917243205399,2831.607326765904
0.005277254352483535,2941.25823433436
0.005484416576121017,3054.603695299381
0.005699711094326071,3171.7169129210365
0.005923457145875801,3292.666780688619
0.006155986501483508,3417.5186008319242
0.006397643955748424,3546.3307667451154
0.0066487878384172625,3679.155423291566
0.0069097905457156435,3816.0392153629546
0.007181039092537346,3957.022261924146
0.007462935686310132,4102.137620054981
0.007755898323389004,4251.40137467939
0.00806036140886134,4404.811911817923
0.008376776400682916,4562.356316754543
0.008705612479099857,4724.009600560191
0.009047357242349292,4889.734017650683
0.00940251742967013,5059.475238313811
0.009771619672696168,5233.15982868215
0.010155211276345676,5410.696074741375
0.010553861030365234,5591.960072304779
0.010968160052731372,5776.800767442393
0.011398722666160517,5965.039962385165
0.011846187309026826,6156.463778409509
0.012311217482038896,6350.829938525445
0.012794502732078732,6547.85515889488
0.013296759674662111,6747.215799132327
0.013818733056536317,6948.551378733116
0.014361196859990781,7151.447990016906
0.014924955450518284,7355.4508768888245
0.015510844769528393,7560.0505607495825
0.016119733573881575,7764.675990296718
0.01675252472408214,7968.710503051089
0.017410156523040152,8171.46825259126
0.018093604107387147,8372.209523730999
0.01880388089340914,8570.136157259543
0.019542040079740527,8764.373477015391
0.02030917620904734,8953.999994131022
0.021106426791015535,9138.025827580681
0.021934973989050584,9315.404688205914
0.02279604637318978,9485.046573485692
0.023690920741826323,9645.790894673484
0.02462092401494623,9796.44812291176
0.02558743520168586,9935.819867957474
0.02659188744512693,10062.709586755956
0.027635770147361564,10175.912660984377
0.028720631177978267,10274.126319267349
0.029848079169243254,10356.037959486888
0.03101978590138095,10420.630559470774
0.03223748878149028,10467.40758969985
0.0335029934197723,10495.94590114977
0.03481817630688963,10505.23493968229
0.03618498759642746,10493.944915395277
0.037605453996581675,10461.133244728571
0.03908168177536263,10406.822877405006
0.04061585988376978,10331.349872466171
0.04221026320156896,10235.687206960525
0.04386725591048496,10121.412742133007
0.0455892949998106,9990.114595803181
0.047378933909631396,9843.048513788546
0.049238826317067365,9681.411701419467
0.05117173007114603,9507.062779453838
0.05318051128214196,9322.569020064255
0.05526814857144601,9130.659041458151
0.057437737488265785,8934.443965096696
0.0596924950997073,8736.952602860703
0.0620357647610427,8541.140219247769
0.06447102107323864,8349.661595424526
0.06700187503509585,8164.736658542844
0.06963207939763882,7988.06914564854
0.0723655342286965,7820.7519778704445
0.07520629269592405,7663.060169815368
0.07815856707684081,7514.513331352413
0.08122673500479707,7373.6988257252115
0.08441534596012978,7238.254391078478
0.0877291280161335,7104.88836706178
0.09117299484984914,6969.418028794783
0.09475205302806537,6827.047895762862
0.09847160957933764,6672.847942439686
0.1023371798632519,6502.385473679673
0.10635449574860109,6312.397758486653
0.11052951411260206,6101.509690329082
0.1148684256737553,5870.627302670411
0.1193776641714435,5623.169195893968
0.1240639159058831,5365.0509624707165
0.12893412965257148,5104.402760672358
0.13399552696593373,4850.668673763969
0.1392556128874462,4613.56818535854
0.14472218707411338,4401.289433086217
0.15040335536380234,4218.999526021262
0.15630754179458153,4067.3097804080107
0.16244350109588662,3942.6748963011555
0.16882033167003618,3836.313501579895
0.17544748908334581,3734.7862366965633
0.1823348000868439,3623.696574341012
0.189492477187382,3490.9024541682084
0.19693113379074215,3330.3491181556983
0.20466179993919872,3144.9392840568225
0.21269593866686892,2946.9797595703767
0.22104546299710207,2754.8218556077495
0.22972275360711503,2586.3456204976383
0.23874067718606454,2452.3126853962513
0.2481126055137766,2352.4849034626873
0.25785243528842716,2274.7757325554376
0.26797460873256895,2198.6513743717474
0.27849413500806414,2104.364572343553
0.28942661247167484,1983.696172573729
0.3007882518043098,1845.3304850945499
0.31259590004822796,1710.8379383622841
0.324867065587837,1601.3421220598766
0.3376199441111335,1523.6696403229662
0.35087344559027084,1465.2780604592351
0.36464722232127456,1402.472187855414
0.37896169806447155,1319.0793713101448
0.3938380983288488,1220.8986224365246
0.4092984818452433,1130.510354452706
0.4253657732750382,1064.3887377924725
0.44206379720285277,1016.304570108053
0.45941731346364734,964.5850670932284
0.47745205385661277,898.0317626957878
0.4961947603002895,829.2787431937444
0.5156732244854959,775.996749277652
0.5359163290848509,735.9350554533969
0.556954090580013,692.2062876691749
0.5788177037701272,640.6569670078735
0.6015395880274836,594.8454692815359
0.6251534353689703,560.182905518443
0.6496942604146115,525.2842581022015
0.6751984523072497,486.08233391157904
0.7017038286703824,452.3814502652019
0.7292496916841444,424.3229658898114
0.7578768863625915,394.20117973695744
0.7876278611187046,365.50650050073864
0.8185467307069019,341.3625156783568
0.850679341636415,317.15746978997464
0.8840733401525058,294.3397492064472
0.9187782428863317,273.24594454166964
0.9548455102782278,253.67363150986915
0.9923286228832539,235.45053001400706
1.0312831606721837,218.43021686419146
1.0717668854455022,202.49924165728027
1.1138398264826193,187.60228747099714
1.1575643695533022,173.695725754007
1.2030053494233226,160.7343273883154
1.2502301459914542,148.67189466428857
1.299308784200415,137.46178276495607
1.3503140378698726,127.05384620980966
1.4033215376054824,117.39317655456696
1.4584098829439835,108.42785803877945
1.5156607589006013,100.10958988304002
1.575159057091621,92.39342334470727
1.6369930016117014,85.23757554125544
1.7012542798525885,78.60417789703958
1.7680381784572046,72.45859369413849
1.8374437246107238,66.76814662700595
1.9095738328780953,61.50201015892609
1.9845354578058014,56.631138082655674
2.0624397525140905,52.12815753210251
2.143402233514853,47.96710113488464
2.227542951999554,44.1235559841008
2.314986671851158,40.57470691059109
2.405863054644063,37.29924563467697
2.5003068519063225,34.277283379580766
2.598458104929248,31.49027532206318
2.7004623524206774,28.920953589983004
2.806470846309834,26.553225729298674
2.916640776023701,24.372099048345305
3.031135501567576,22.363614100600998
3.150124795755327,20.51478116776374
3.2737850959485697,18.81351048392043
3.4022997656780634,17.248554874970598
3.5358593665351745,15.809471731537846
3.6746619407366854,14.486571543175216
3.8189133047818515,13.270868051266868
3.968827354637162,12.154031469267059
4.1246263829013445,11.128346317843379
4.286541408420921,10.186668296831462
4.4548125188449825,9.322383386581603
4.629689226627261,8.529371362909256
4.811430839003257,7.8019715805364935
5.000306842491082,7.13494928210759
5.196597302486189,6.523459774521331
5.400593278542364,5.963028279811749
5.612597255954967,5.449526147337063
5.8329235942862,4.979145455429941
6.06189899349756,4.5483753594358625
6.29986297838068,4.153983486992803
6.547168402004727,3.792998342049732
6.804181968927091,3.4626813100729024
7.071284778942991,3.1605083290209057
7.348872892180382,2.8841541292926722
7.637357916378006,2.631477020869181
7.937167617217536,2.400492215957155
8.248746552614573,2.189363202376056
8.572556731909314,1.9964073176849464
8.909078300934132,1.8200836648525247
9.258810253973934,1.6589811250426336
9.622271173675122,1.5118117090158771
9.999999999999984,1.3774322218623052
