k [1/Mpc],P(k) [Mpc^3]
0.0001,2758.3423287294627
0.00010392556829367125,2849.8713849266383
0.00010800523745162529,2944.417886343136
0.00011224505680853065,3042.0792179230857
0.00011665131316981963,3142.9555594808617
0.00012123054013376525,3247.1498535252963
0.00012598952777950273,3354.7681177075924
0.00013093533273536104,3465.9193461320983
0.00013607528864243335,3580.715687546818
0.00014141701702890234,3699.2725422006633
0.00014696843861124463,3821.7085235025584
0.00015273778503907136,3948.145658174618
0.00015873361110102093,4078.7089761708107
0.00016496480740980205,4213.526637662311
0.0001714406135851971,4352.730260201663
0.00017817063195457305,4496.454582163019
0.00018516484179121546,4644.837868792328
0.000192433614111598,4798.0218370684925
0.00019998772705352857,4956.151603356704
0.0002078383818579757,5119.375875554508
0.00021599721947827182,5287.845886112464
0.0002244763378413224,5461.71600246503
0.0002332883097864157,5641.144028850143
0.00024244620170823283,5826.290895444793
0.0002519635929317015,6017.321030956617
0.0002618545958474233,6214.401143479999
0.0002721338768375308,6417.700396512239
0.0002828166780230032,6627.391062780773
0.0002939188398646886,6843.647760561908
0.0003054568246515432,7066.648025264421
0.00031744774091091926,7296.57105169164
0.00032990936877709396,7533.5970771669845
0.00034286018635565856,7777.908646185798
0.00035631939712285854,8029.689539048403
0.000370306958400514,8289.125212763523
0.00038484361094874304,8556.402023163631
0.0003999509097203664,8831.705694136122
0.00041565125582259895,9115.222768675898
0.00043196792973341727,9407.138680882545
0.0004489251258218605,9707.637857292164
0.0004665479882234472,10016.9041258379
0.000484862648123908,10335.118617493927
0.000503896262506515,10662.460943624666
0.0005236770544204653,10999.106751370042
0.0005442343548300266,11345.2264930211
0.0005655986461065005,11700.987035881672
0.0005878016072274912,12066.547957226656
0.0006108761607505036,12442.062887540502
0.0006348565216305217,12827.677085742878
0.0006597782479539537,13223.523141143798
0.0006856782936641739,13629.72500542562
0.0007125950633568407,14046.393534313385
0.0007405684692262436,14473.626668147452
0.0007696399902471156,14911.508750318535
0.0007998527336796708,15360.10266051784
0.000831251498989063,15819.455067057213
0.0008638828442740447,16289.592532784702
0.000897795155303332,16770.51925350251
0.0009330387172620361,17262.21975138753
0.0009696657893145519,17764.65330349144
0.001007730682094461,18277.755536018896
0.0010472898382363582,18801.432983912768
0.0010884019160690055,19335.555630069764
0.0011311278765939214,19879.964209384816
0.001175531073878369,20434.46295448046
0.0012216773489967915,20998.820182382395
0.0012696351276599736,21572.768695673036
0.0013194755216767058,22155.997993747835
0.0013712724343984,22748.159038021382
0.0014251026703029975,23348.85745184007
0.0014810460488806749,23957.65098259405
0.0015391855229902056,24574.054036786416
0.001599607301861487,25197.530623370112
0.0016624009789266115,25827.497450364208
0.0017276596646690358,26463.319762297302
0.0017954801246878305,27104.305402032107
0.0018659629231817451,27749.711663738268
0.001939212572065829,28398.734922583626
0.0020153376859417325,29050.513919148907
0.002094451143151469,29704.131780661446
0.002176670253153458,30358.606266018316
0.002262116930469025,31012.899658324222
0.002350917875457286,31665.900620994504
0.002443204762186487,32316.422864996224
0.0025391144336803463,32963.22697651039
0.002638789104828933,33605.02506573851
0.002742376573264949,34240.48045820558
0.0028500304385181063,34868.12739950684
0.0029619103297725525,35486.309998341036
0.0030781821425650787,36093.335959298834
0.003199018284775064,36687.791217451166
0.0033245979322709396,37268.429253634094
0.003455107294592217,37833.64622625879
0.0035907398910610534,38380.7927813658
0.0037316968377327513,38906.993127495334
0.0038781871456107214,39409.991045295705
0.0040304280305680515,39888.176046831446
0.00418864523543527,40339.80416258479
0.004353073364731888,40762.229796937325
0.00452395623253805,41152.510688237235
0.004701547224022131,41508.020892042034
0.004886109671160325,41826.67091276298
0.005077917243205399,42106.40172881887
0.005277254352483535,42344.50949742812
0.005484416576121017,42537.97186961541
0.005699711094326071,42683.748853616555
0.005923457145875801,42778.628513860865
0.006155986501483508,42819.488385753604
0.006397643955748424,42803.14183469219
0.0066487878384172625,42726.39954681893
0.0069097905457156435,42586.217321704244
0.007181039092537346,42379.311410846494
0.007462935686310132,42102.60087351622
0.007755898323389004,41752.93324832418
0.00806036140886134,41326.909345511216
0.008376776400682916,40821.58875429621
0.008705612479099857,40233.91479021762
0.009047357242349292,39561.23904256157
0.00940251742967013,38801.32533740245
0.009771619672696168,37951.689285088156
0.010155211276345676,37010.86009217081
0.010553861030365234,35977.623712905544
0.010968160052731372,34851.43302358345
0.011398722666160517,33632.9888177135
0.011846187309026826,32322.500714043636
0.012311217482038896,30921.9818231767
0.012794502732078732,29435.378487926042
0.013296759674662111,27868.45600265047
0.013818733056536317,26228.962227932865
0.014361196859990781,24520.36758077545
0.014924955450518284,22747.76795455777
0.015510844769528393,20925.927411931767
0.016119733573881575,19082.200472746183
0.01675252472408214,17242.572722752942
0.017410156523040152,15396.515005019373
0.018093604107387147,13522.825029107626
0.01880388089340914,11651.732275478087
0.019542040079740527,9910.806003515516
0.02030917620904734,8389.77110401779
0.021106426791015535,6965.446455333981
0.021934973989050584,5417.638600071663
0.02279604637318978,3821.531698207243
0.023690920741826323,2672.0104801457874
0.02462092401494623,2140.569710582345
0.02558743520168586,1828.276019150479
0.02659188744512693,938.3647180640019
0.027635770147361564,164.46920697368515
0.028720631177978267,18.90951535582898
0.029848079169243254,7.136682495686763
0.03101978590138095,20.87680411376578
0.03223748878149028,123.69700463142992
0.0335029934197723,338.2321011322808
0.03481817630688963,456.0157437420573
0.03618498759642746,549.0446421983598
0.037605453996581675,653.9718869879807
0.03908168177536263,686.2943608436267
0.04061585988376978,626.3540977842077
0.04221026320156896,510.3749199120227
0.04386725591048496,378.49249826784114
0.0455892949998106,220.41509748587256
0.047378933909631396,74.50445073010604
0.049238826317067365,17.69431432144363
0.05117173007114603,9.544798881210957
0.05318051128214196,52.7507825684345
0.05526814857144601,218.469185626369
0.057437737488265785,315.9043430601164
0.0596924950997073,437.6147219885284
0.0620357647610427,496.06707001122953
0.06447102107323864,476.9078862031176
0.06700187503509585,370.92544380911636
0.06963207939763882,222.42742839327286
0.0723655342286965,146.3750425109995
0.07520629269592405,7.497954782656953
0.07815856707684081,2.491173256386359
0.08122673500479707,36.09360355179821
0.08441534596012978,79.01846160842489
0.0877291280161335,109.3117938025154
0.09117299484984914,84.86782236241646
0.09475205302806537,56.86530066017018
0.09847160957933764,1.4982109639500212
0.1023371798632519,1.2515180112160538
0.10635449574860109,60.13330167639804
0.11052951411260206,90.90740039464686
0.1148684256737553,99.96742782734128
0.1193776641714435,63.45594547884703
0.1240639159058831,19.5879881951675
0.12893412965257148,1.2878172802660444
0.13399552696593373,11.155394085690771
0.1392556128874462,23.98569171010705
0.14472218707411338,16.19544408621073
0.15040335536380234,0.49356002656278414
0.15630754179458153,6.022773108490338
0.16244350109588662,23.573112244422152
0.16882033167003618,25.288093885966575
0.17544748908334581,9.72516639196864
0.1823348000868439,0.12900109222915246
0.189492477187382,4.244191408142574
0.19693113379074215,3.4697095962227493
0.20466179993919872,0.0078079152955669
0.21269593866686892,4.138968705292592
0.22104546299710207,7.84052771695463
0.22972275360711503,2.5411312892875015
0.23874067718606454,0.12634246498106969
0.2481126055137766,1.0083321300723211
0.25785243528842716,0.03392585240293635
0.26797460873256895,1.839666619449556
0.27849413500806414,2.018250883205667
0.28942661247167484,0.07067906735372352
0.3007882518043098,0.10899170773329055
0.31259590004822796,0.0277820318496803
0.324867065587837,0.8303868288299779
0.3376199441111335,0.44056762201913824
0.35087344559027084,0.0007260173394743255
0.36464722232127456,0.006862104332720104
0.37896169806447155,0.3169133737493238
0.3938380983288488,0.17346992322798557
0.4092984818452433,0.011874892189530353
0.4253657732750382,0.04293919290146289
0.44206379720285277,0.11296925922838397
0.45941731346364734,0.1405449169353217
0.47745205385661277,0.10683216543678126
0.4961947603002895,0.06410686120565973
0.5156732244854959,0.03916169281564068
0.5359163290848509,0.028121107038514663
0.556954090580013,0.023175162711323836
0.5788177037701272,0.021103020667070763
0.6015395880274836,0.02044136733198756
0.6251534353689703,0.02027826430000979
0.6496942604146115,0.019856040778397505
0.6751984523072497,0.018903731454948627
0.7017038286703824,0.017586706158279453
0.7292496916841444,0.016081256142499206
0.7578768863625915,0.014536850827133163
0.7876278611187046,0.013066281464173378
0.8185467307069019,0.0117412009164716
0.850679341636415,0.010565128982911322
0.8840733401525058,0.009516009901537618
0.9187782428863317,0.00857548945796973
0.9548455102782278,0.007728461574544199
0.9923286228832539,0.006962471672223431
1.0312831606721837,0.006267719035342205
1.0717668854455022,0.005638262538870065
1.1138398264826193,0.005069227815288356
1.1575643695533022,0.004555857602480607
1.2030053494233226,0.004093561954943959
1.2502301459914542,0.00367795618357955
1.299308784200415,0.00330474452112401
1.3503140378698726,0.002969555873541464
1.4033215376054824,0.002668413423428783
1.4584098829439835,0.0023977752545770448
1.5156607589006013,0.0021544841760087847
1.575159057091621,0.001935723914380869
1.6369930016117014,0.0017389997592839478
1.7012542798525885,0.0015621076514539072
1.7680381784572046,0.0014030654326433415
1.8374437246107238,0.0012600872416220308
1.9095738328780953,0.0011315642650047842
1.9845354578058014,0.0010160473871767294
2.0624397525140905,0.0009122321684706699
2.143402233514853,0.0008189443522187491
2.227542951999554,0.000735126228330141
2.314986671851158,0.0006598251838979837
2.405863054644063,0.0005921833974140234
2.5003068519063225,0.0005314286197277948
2.598458104929248,0.0004768665849087857
2.7004623524206774,0.0004278726304231228
2.806470846309834,0.0003838841826770582
2.916640776023701,0.0003443946982010743
3.031135501567576,0.00030894819074622803
3.150124795755327,0.0002771339901249444
3.2737850959485697,0.0002485810774258102
3.4022997656780634,0.00022295571370468755
3.5358593665351745,0.00019995835273072635
3.6746619407366854,0.00017932012450111678
3.8189133047818515,0.0001607996817554522
3.968827354637162,0.00014418048069779056
4.1246263829013445,0.00012926842855895109
4.286541408420921,0.00011588921311951332
4.4548125188449825,0.00010388621694102309
4.629689226627261,9.311873130439868e-05
4.811430839003257,8.34603510649357e-05
5.000306842491082,7.479772631721737e-05
5.196597302486189,6.70293390276771e-05
5.400593278542364,6.006388576695958e-05
5.612597255954967,5.3819227217087106e-05
5.8329235942862,4.822149061620996e-05
6.06189899349756,4.320424765152556e-05
6.29986297838068,3.870750947013878e-05
6.547168402004727,3.46771551508769e-05
6.804181968927091,3.106471693523589e-05
7.071284778942991,2.782680221696689e-05
7.348872892180382,2.4924555308799822e-05
7.637357916378006,2.2323185333028454e-05
7.937167617217536,1.999162729924769e-05
8.248746552614573,1.790208376548067e-05
8.572556731909314,1.6029601941137087e-05
8.909078300934132,1.4351783146214511e-05
9.258810253973934,1.2848523427291053e-05
9.622271173675122,1.150179384558877e-05
9.999999999999984,1.0295499187036344e-05
