k [1/Mpc],P(k) [Mpc^3]
0.0001,354.3076023716099
0.00010392556829367125,367.15161947818973
0.00010800523745162529,380.4609966489856
0.00011224505680853065,394.2525761059674
0.00011665131316981963,408.5438102201691
0.00012123054013376525,423.35277838592714
0.00012598952777950273,438.6982105819798
0.00013093533273536104,454.5995009063147
0.00013607528864243335,471.07670554770607
0.00014141701702890234,488.15059414226613
0.00014696843861124463,505.84272375811895
0.00015273778503907136,524.1754714032353
0.00015873361110102093,543.1720074565351
0.00016496480740980205,562.8562442756808
0.0001714406135851971,583.2529179176506
0.00017817063195457305,604.387686471415
0.00018516484179121546,626.2871912990196
0.000192433614111598,648.9790302568362
0.00019998772705352857,672.4917285124686
0.0002078383818579757,696.854795464477
0.00021599721947827182,722.0987943760346
0.0002244763378413224,748.2553875746881
0.0002332883097864157,775.357363469226
0.00024244620170823283,803.438639768668
0.0002519635929317015,832.534305124935
0.0002618545958474233,862.68069186293
0.0002721338768375308,893.9154390976948
0.0002828166780230032,926.2775203833704
0.0002939188398646886,959.8072115429893
0.0003054568246515432,994.5461046725975
0.00031744774091091926,1030.5372403212978
0.00032990936877709396,1067.825205877595
0.00034286018635565856,1106.4561641303296
0.00035631939712285854,1146.477835058582
0.000370306958400514,1187.9394861210103
0.00038484361094874304,1230.8920635439638
0.0003999509097203664,1275.3882145148293
0.00041565125582259895,1321.482352241098
0.00043196792973341727,1369.2307231807924
0.0004489251258218605,1418.6914180375043
0.0004665479882234472,1469.924472413174
0.000484862648123908,1522.9918672591687
0.000503896262506515,1577.957574492718
0.0005236770544204653,1634.887663355462
0.0005442343548300266,1693.850245977524
0.0005655986461065005,1754.9156154726859
0.0005878016072274912,1818.1562877705153
0.0006108761607505036,1883.6470087422078
0.0006348565216305217,1951.4648997666984
0.0006597782479539537,2021.6894137256877
0.0006856782936641739,2094.4024413864986
0.0007125950633568407,2169.6883400464894
0.0007405684692262436,2247.633799032889
0.0007696399902471156,2328.3281039297594
0.0007998527336796708,2411.8631104097276
0.000831251498989063,2498.333303148865
0.0008638828442740447,2587.835888468326
0.000897795155303332,2680.4705556895374
0.0009330387172620361,2776.339750639807
0.0009696657893145519,2875.5485945322243
0.001007730682094461,2978.2048040555514
0.0010472898382363582,3084.418935448782
0.0010884019160690055,3194.303881208478
0.0011311278765939214,3307.9751635985813
0.001175531073878369,3425.5509981704386
0.0012216773489967915,3547.151982447155
0.0012696351276599736,3672.901477270165
0.0013194755216767058,3802.925025903648
0.0013712724343984,3937.350438238197
0.0014251026703029975,4076.3079144486405
0.0014810460488806749,4219.929071606663
0.0015391855229902056,4368.347698735202
0.001599607301861487,4521.6993702704485
0.0016624009789266115,4680.121189132159
0.0017276596646690358,4843.752113300213
0.0017954801246878305,5012.731705392913
0.0018659629231817451,5187.200692357934
0.001939212572065829,5367.30033031603
0.0020153376859417325,5553.171233302358
0.002094451143151469,5744.954573729534
0.002176670253153458,5942.79113788308
0.002262116930469025,6146.82136123372
0.002350917875457286,6357.184645272186
0.002443204762186487,6574.016861743751
0.0025391144336803463,6797.452132196303
0.002638789104828933,7027.621684934101
0.002742376573264949,7264.653322892399
0.0028500304385181063,7508.671695198006
0.0029619103297725525,7759.795728658888
0.0030781821425650787,8018.139608790896
0.003199018284775064,8283.81071237126
0.0033245979322709396,8556.907425745732
0.003455107294592217,8837.52112968453
0.0035907398910610534,9125.732678056878
0.0037316968377327513,9421.612990221109
0.0038781871456107214,9725.222068964893
0.0040304280305680515,10036.605100174975
0.00418864523543527,10355.794835874114
0.004353073364731888,10682.805297490208
0.00452395623253805,11017.631207473214
0.004701547224022131,11360.2504536492
0.004886109671160325,11710.619117263734
0.005077917243205399,12068.673530695534
0.005277254352483535,12434.320940850215
0.005484416576121017,12807.43429050894
0.005699711094326071,13187.862655487763
0.005923457145875801,13575.4371586246
0.006155986501483508,13969.966494960652
0.006397643955748424,14371.204343225052
0.0066487878384172625,14778.813700672164
0.0069097905457156435,15192.41336675137
0.007181039092537346,15611.599368539391
0.007462935686310132,16035.940494824865
0.007755898323389004,16464.963574597754
0.00806036140886134,16898.144006072518
0.008376776400682916,17334.91157899953
0.008705612479099857,17774.615388861203
0.009047357242349292,18216.516265767008
0.00940251742967013,18659.816674921574
0.009771619672696168,19103.63659161462
0.010155211276345676,19547.030776989177
0.010553861030365234,19988.979049261132
0.010968160052731372,20428.370781569018
0.011398722666160517,20864.03152730866
0.011846187309026826,21294.690854615066
0.012311217482038896,21718.999447245496
0.012794502732078732,22135.532466513017
0.013296759674662111,22542.75371976203
0.013818733056536317,22939.064762576505
0.014361196859990781,23322.783520568533
0.014924955450518284,23692.15264646599
0.015510844769528393,24045.368069961336
0.016119733573881575,24380.54654904358
0.01675252472408214,24695.77157129867
0.017410156523040152,24989.102459371585
0.018093604107387147,25258.579145411564
0.01880388089340914,25502.259306401345
0.019542040079740527,25718.238924980687
0.02030917620904734,25904.6665215643
0.021106426791015535,26059.791021222638
0.021934973989050584,26182.020879206568
0.02279604637318978,26269.886881279577
0.023690920741826323,26322.16933052452
0.02462092401494623,26337.88082363531
0.02558743520168586,26316.29404223278
0.02659188744512693,26257.243743804687
0.027635770147361564,26160.823509918042
0.028720631177978267,26027.427022169333
0.029848079169243254,25857.76619804787
0.03101978590138095,25652.980221232214
0.03223748878149028,25416.007921756318
0.0335029934197723,25150.465500928476
0.03481817630688963,24859.25903173221
0.03618498759642746,24544.00455496097
0.037605453996581675,24206.409403916285
0.03908168177536263,23850.28916668789
0.04061585988376978,23480.614095883633
0.04221026320156896,23102.158306419053
0.04386725591048496,22719.480332195322
0.0455892949998106,22336.80893065884
0.047378933909631396,21957.134167252614
0.049238826317067365,21582.52606755769
0.05117173007114603,21213.685518644666
0.05318051128214196,20849.52848223875
0.05526814857144601,20487.942775764277
0.057437737488265785,20125.25188515659
0.0596924950997073,19757.093768023868
0.0620357647610427,19378.28247138105
0.06447102107323864,18983.125512900053
0.06700187503509585,18565.64677296779
0.06963207939763882,18119.83283254318
0.0723655342286965,17640.4732261846
0.07520629269592405,17123.947422657635
0.07815856707684081,16569.852244843845
0.08122673500479707,15981.919079834706
0.08441534596012978,15368.455903327078
0.0877291280161335,14741.86504408236
0.09117299484984914,14117.024110321143
0.09475205302806537,13508.947428003143
0.09847160957933764,12931.444284056119
0.1023371798632519,12394.678036209547
0.10635449574860109,11906.48094380129
0.11052951411260206,11468.22040516352
0.1148684256737553,11070.114998861924
0.1193776641714435,10694.550186762603
0.1240639159058831,10320.570985151431
0.12893412965257148,9928.745146863737
0.13399552696593373,9506.463108753704
0.1392556128874462,9051.64169281321
0.14472218707411338,8573.891607970674
0.15040335536380234,8092.4108568606935
0.15630754179458153,7630.473737215293
0.16244350109588662,7208.586686066099
0.16882033167003618,6838.3317968719
0.17544748908334581,6516.958751428855
0.1823348000868439,6225.983643491622
0.189492477187382,5939.46083096521
0.19693113379074215,5637.366447826368
0.20466179993919872,5313.696821645524
0.21269593866686892,4979.953173212929
0.22104546299710207,4661.042593137831
0.22972275360711503,4378.232965600093
0.23874067718606454,4135.165741838819
0.2481126055137766,3917.0217256943847
0.25785243528842716,3700.3238063951767
0.26797460873256895,3472.146027486268
0.27849413500806414,3240.2577367699314
0.28942661247167484,3024.3458763131075
0.3007882518043098,2835.2832540059767
0.31259590004822796,2666.0569436150163
0.324867065587837,2501.3204239124116
0.3376199441111335,2334.1668133982316
0.35087344559027084,2172.493633901307
0.36464722232127456,2026.6695176918413
0.37896169806447155,1895.4549361395686
0.3938380983288488,1769.0949850502498
0.4092984818452433,1644.895995395893
0.4253657732750382,1529.220149285907
0.44206379720285277,1424.1333132165068
0.45941731346364734,1324.9476137063791
0.47745205385661277,1229.87809700098
0.4961947603002895,1141.3553611216894
0.5156732244854959,1059.7761040950809
0.5359163290848509,982.6444859166317
0.556954090580013,910.2999415510441
0.5788177037701272,843.3651933907515
0.6015395880274836,780.6889766055792
0.6251534353689703,722.1356726603283
0.6496942604146115,667.825278642115
0.6751984523072497,617.1333514154035
0.7017038286703824,570.0113674371432
0.7292496916841444,526.2429438729445
0.7578768863625915,485.5673740340993
0.7876278611187046,447.81080942373086
0.8185467307069019,412.788551856601
0.850679341636415,380.3226144705818
0.8840733401525058,350.2446630000254
0.9187782428863317,322.39567722327786
0.9548455102782278,296.625617850153
0.9923286228832539,272.79317404308216
1.0312831606721837,250.76532251711984
1.0717668854455022,230.41690423567672
1.1138398264826193,211.630283841691
1.1575643695533022,194.2950112997257
1.2030053494233226,178.30740098777574
1.2502301459914542,163.57015485415738
1.299308784200415,149.9922336275011
1.3503140378698726,137.48854954032663
1.4033215376054824,125.97964369793837
1.4584098829439835,115.39137297271533
1.5156607589006013,105.6546003011231
1.575159057091621,96.70491554167197
1.6369930016117014,88.48236431622651
1.7012542798525885,80.93118140768055
1.7680381784572046,73.99953562161056
1.8374437246107238,67.6392602087729
1.9095738328780953,61.8056135324832
1.9845354578058014,56.457112099795296
2.0624397525140905,51.555322389555926
2.143402233514853,47.064658398586566
2.227542951999554,42.95218830174657
2.314986671851158,39.187442596361514
2.405863054644063,35.742257869941696
2.5003068519063225,32.590623685161574
2.598458104929248,29.70853093267955
2.7004623524206774,27.07382949195365
2.806470846309834,24.666091141372053
2.916640776023701,22.46648444750839
3.031135501567576,20.45766477686129
3.150124795755327,18.623665100281265
3.2737850959485697,16.949793505063678
3.4022997656780634,15.422536689918635
3.5358593665351745,14.02946682191053
3.6746619407366854,12.759164051196851
3.8189133047818515,11.601141506011903
3.968827354637162,10.545773064260317
4.1246263829013445,9.58422628828372
4.286541408420921,8.708399310153794
4.4548125188449825,7.910863294908956
4.629689226627261,7.184810536863001
4.811430839003257,6.524004966260094
5.000306842491082,5.922736262283173
5.196597302486189,5.375776623741082
5.400593278542364,4.878338713221156
5.612597255954967,4.42604363833257
5.8329235942862,4.014888823929198
6.06189899349756,3.641216780138185
6.29986297838068,3.301686469370465
6.547168402004727,2.993250318502619
6.804181968927091,2.7131289147595252
7.071284778942991,2.4587836593290215
7.348872892180382,2.227896511608998
7.637357916378006,2.018351615472734
7.937167617217536,1.8282152666047915
8.248746552614573,1.6557114720599824
8.572556731909314,1.499221953221839
8.909078300934132,1.3572763526445726
9.258810253973934,1.2285386751448106
9.622271173675122,1.111795821072958
9.999999999999984,1.0059651724116963
