k [1/Mpc],P(k) [Mpc^3]
0.0001,99.39198576779629
0.00010392556829367125,103.89148567249666
0.00010800523745162529,108.5946347556145
0.00011224505680853065,113.51064514751903
0.00011665131316981963,118.64914537398359
0.00012123054013376525,124.02019789989613
0.00012598952777950273,129.63431891836106
0.00013093533273536104,135.50249958543452
0.00013607528864243335,141.63622760801564
0.00014141701702890234,148.04750938920495
0.00014696843861124463,154.7488906354719
0.00015273778503907136,161.75347980953117
0.00015873361110102093,169.0749763674076
0.00016496480740980205,176.72769889095332
0.0001714406135851971,184.7266121438895
0.00017817063195457305,193.08735743738964
0.00018516484179121546,201.82628514042227
0.000192433614111598,210.96048212214893
0.00019998772705352857,220.50778569301585
0.0002078383818579757,230.48682107084855
0.00021599721947827182,240.91705466599728
0.0002244763378413224,251.81884824335833
0.0002332883097864157,263.2134840377459
0.00024244620170823283,275.1231891483734
0.0002519635929317015,287.5711742530418
0.0002618545958474233,300.5816888817026
0.0002721338768375308,314.1800636662417
0.0002828166780230032,328.39276097949124
0.0002939188398646886,343.24742628196793
0.0003054568246515432,358.7729398441384
0.00031744774091091926,374.9994706975956
0.00032990936877709396,391.95851421648564
0.00034286018635565856,409.6829549211311
0.00035631939712285854,428.20714125065666
0.000370306958400514,447.5669542223648
0.00038484361094874304,467.79986966052047
0.0003999509097203664,488.94499363282813
0.00041565125582259895,511.0431250225506
0.00043196792973341727,534.1368629031814
0.0004489251258218605,558.2706978315082
0.0004665479882234472,583.4910865612686
0.000484862648123908,609.8464985527686
0.000503896262506515,637.3874677689736
0.0005236770544204653,666.166731260253
0.0005442343548300266,696.239341450165
0.0005655986461065005,727.6627615728775
0.0005878016072274912,760.4969191656396
0.0006108761607505036,794.8042097737388
0.0006348565216305217,830.6496917595017
0.0006597782479539537,868.1012531345867
0.0006856782936641739,907.2297360932805
0.0007125950633568407,948.1089989629295
0.0007405684692262436,990.8158856680476
0.0007696399902471156,1035.4304368249595
0.0007998527336796708,1082.0360832066583
0.000831251498989063,1130.7197887703255
0.0008638828442740447,1181.5721638338268
0.000897795155303332,1234.6874312459972
0.0009330387172620361,1290.163611583712
0.0009696657893145519,1348.1027317024002
0.001007730682094461,1408.610879107468
0.0010472898382363582,1471.7984437181685
0.0010884019160690055,1537.7802427456938
0.0011311278765939214,1606.6756714138749
0.001175531073878369,1678.6088400139954
0.0012216773489967915,1753.708330484901
0.0012696351276599736,1832.1075981036154
0.0013194755216767058,1913.9452000421104
0.0013712724343984,1999.3648804962754
0.0014251026703029975,2088.515819835266
0.0014810460488806749,2181.5523735230418
0.0015391855229902056,2278.634347301715
0.001599607301861487,2379.9272791388116
0.0016624009789266115,2485.6022906896146
0.0017276596646690358,2595.8365071553803
0.0017954801246878305,2710.812735504977
0.0018659629231817451,2830.719494638274
0.001939212572065829,2955.751540913769
0.0020153376859417325,3086.1095688653018
0.002094451143151469,3222.000591588371
0.002176670253153458,3363.6375798047275
0.002262116930469025,3511.238966821008
0.002350917875457286,3665.0294911932883
0.002443204762186487,3825.2395696865947
0.0025391144336803463,3992.1055370534577
0.002638789104828933,4165.869672267853
0.002742376573264949,4346.779244097727
0.0028500304385181063,4535.087286827059
0.0029619103297725525,4731.051421980864
0.0030781821425650787,4934.933506769798
0.003199018284775064,5147.00030687507
0.0033245979322709396,5367.521823510579
0.003455107294592217,5596.771974642967
0.0035907398910610534,5835.027464872694
0.0037316968377327513,6082.566219493525
0.0038781871456107214,6339.668533456544
0.0040304280305680515,6606.6139404671085
0.00418864523543527,6883.681483177942
0.004353073364731888,7171.1495049970745
0.00452395623253805,7469.292435418919
0.004701547224022131,7778.382237322712
0.004886109671160325,8098.683970889925
0.005077917243205399,8430.454184166489
0.005277254352483535,8773.942247019402
0.005484416576121017,9129.3841190017
0.005699711094326071,9497.004223779519
0.005923457145875801,9877.009648782057
0.006155986501483508,10269.5833841514
0.006397643955748424,10674.890569155908
0.0066487878384172625,11093.076373240363
0.0069097905457156435,11524.264476383576
0.007181039092537346,11968.541685068327
0.007462935686310132,12425.926743143928
0.007755898323389004,12896.395596044084
0.00806036140886134,13379.884350502676
0.008376776400682916,13876.286407336203
0.008705612479099857,14385.44823472406
0.009047357242349292,14907.157755191545
0.00940251742967013,15441.146709293136
0.009771619672696168,15987.060958895934
0.010155211276345676,16544.434012316233
0.010553861030365234,17112.718726718853
0.010968160052731372,17691.25526466529
0.011398722666160517,18279.2789703357
0.011846187309026826,18875.917025028484
0.012311217482038896,19480.150365444584
0.012794502732078732,20090.845330767384
0.013296759674662111,20706.713522053557
0.013818733056536317,21326.307028364492
0.014361196859990781,21948.03897839392
0.014924955450518284,22570.110112553313
0.015510844769528393,23190.561927605555
0.016119733573881575,23807.25551744427
0.01675252472408214,24417.84060517892
0.017410156523040152,25019.81615407826
0.018093604107387147,25610.451331420067
0.01880388089340914,26186.833051945894
0.019542040079740527,26745.89514264807
0.02030917620904734,27284.369909253106
0.021106426791015535,27798.876727316947
0.021934973989050584,28285.876601694028
0.02279604637318978,28741.69907596306
0.023690920741826323,29162.659525826846
0.02462092401494623,29545.151903157952
0.02558743520168586,29885.63699864086
0.02659188744512693,30180.48674146635
0.027635770147361564,30425.923697184295
0.028720631177978267,30618.48380749332
0.029848079169243254,30756.511457037217
0.03101978590138095,30839.47084207244
0.03223748878149028,30866.27476901206
0.0335029934197723,30833.890536470433
0.03481817630688963,30739.385087817125
0.03618498759642746,30582.493128765942
0.037605453996581675,30365.346309349985
0.03908168177536263,30090.986471453103
0.04061585988376978,29765.111918450162
0.04221026320156896,29394.19624519984
0.04386725591048496,28983.7884835159
0.0455892949998106,28538.06399697758
0.047378933909631396,28061.794442608993
0.049238826317067365,27563.810817088546
0.05117173007114603,27053.986266667576
0.05318051128214196,26541.64875462167
0.05526814857144601,26035.51125565501
0.057437737488265785,25543.27128674651
0.0596924950997073,25071.591125630057
0.0620357647610427,24624.977741057603
0.06447102107323864,24206.047728874455
0.06700187503509585,23814.796554272372
0.06963207939763882,23448.980402359295
0.0723655342286965,23103.1325966072
0.07520629269592405,22768.920111539726
0.07815856707684081,22435.145925490233
0.08122673500479707,22087.549410576834
0.08441534596012978,21710.06224572512
0.0877291280161335,21286.07901654045
0.09117299484984914,20800.570834856513
0.09475205302806537,20242.942408560248
0.09847160957933764,19609.35918750354
0.1023371798632519,18903.93687040233
0.10635449574860109,18139.685973991393
0.11052951411260206,17337.876510424023
0.1148684256737553,16526.4697814499
0.1193776641714435,15737.643325927816
0.1240639159058831,15004.007212570017
0.12893412965257148,14353.164331355523
0.13399552696593373,13802.52641696935
0.1392556128874462,13356.79425594466
0.14472218707411338,12996.407076015907
0.15040335536380234,12688.163059318453
0.15630754179458153,12387.367655028542
0.16244350109588662,12046.26452766701
0.16882033167003618,11625.927069885505
0.17544748908334581,11108.81343260547
0.1823348000868439,10507.108762499873
0.189492477187382,9863.264458467691
0.19693113379074215,9239.33935664774
0.20466179993919872,8695.723319777346
0.21269593866686892,8267.77914558643
0.22104546299710207,7952.872002562856
0.22972275360711503,7709.531984624591
0.23874067718606454,7468.319604428079
0.2481126055137766,7161.750277087901
0.25785243528842716,6763.049468328171
0.26797460873256895,6303.973575957933
0.27849413500806414,5858.9294334378665
0.28942661247167484,5499.833492086893
0.3007882518043098,5247.582072737461
0.31259590004822796,5056.587486725133
0.324867065587837,4845.696627692694
0.3376199441111335,4564.041304049943
0.35087344559027084,4235.6319468325155
0.36464722232127456,3935.755864178222
0.37896169806447155,3715.499520250992
0.3938380983288488,3551.664493671145
0.4092984818452433,3374.9492986218083
0.4253657732750382,3150.849729757673
0.44206379720285277,2919.8952327235675
0.45941731346364734,2738.3538415170297
0.47745205385661277,2599.534016043348
0.4961947603002895,2449.252447795809
0.5156732244854959,2274.7371103386845
0.5359163290848509,2118.919915385799
0.556954090580013,1997.3330906991807
0.5788177037701272,1875.5648211508462
0.6015395880274836,1742.2082745829896
0.6251534353689703,1625.3796094979928
0.6496942604146115,1526.1699698732589
0.6751984523072497,1421.9364439066685
0.7017038286703824,1322.3064269392778
0.7292496916841444,1236.7163450391195
0.7578768863625915,1151.883739842441
0.7876278611187046,1070.7861959348934
0.8185467307069019,995.8985685747181
0.850679341636415,926.4716503276524
0.8840733401525058,861.9065607712133
0.9187782428863317,801.6884140500198
0.9548455102782278,745.3748587289078
0.9923286228832539,692.5867575517955
1.0312831606721837,643.0570042759038
1.0717668854455022,596.6594720933131
1.1138398264826193,553.2752639060558
1.1575643695533022,512.7781218689137
1.2030053494233226,475.03664225397137
1.2502301459914542,439.9158218921164
1.299308784200415,407.263222479629
1.3503140378698726,376.91138505391
1.4033215376054824,348.7028328488016
1.4584098829439835,322.49096915383404
1.5156607589006013,298.13928593843343
1.575159057091621,275.52083396654325
1.6369930016117014,254.52068790404795
1.7012542798525885,235.03365536597767
1.7680381784572046,216.96038050664453
1.8374437246107238,200.20702602426238
1.9095738328780953,184.68506914876798
1.9845354578058014,170.31101898514297
2.0624397525140905,157.00561517777035
2.143402233514853,144.69415563072528
2.227542951999554,133.3067191691201
2.314986671851158,122.77790358637554
2.405863054644063,113.04656962313275
2.5003068519063225,104.05560634434808
2.598458104929248,95.75173913505337
2.7004623524206774,88.08525349775212
2.806470846309834,81.00976236176608
2.916640776023701,74.48200869353492
3.031135501567576,68.461677498728
3.150124795755327,62.911204196215905
3.2737850959485697,57.79557892395714
3.4022997656780634,53.08223204256734
3.5358593665351745,48.740889548331
3.6746619407366854,44.74342471544789
3.8189133047818515,41.0637180958301
3.968827354637162,37.67752607041158
4.1246263829013445,34.56235691240195
4.286541408420921,31.69735234665215
4.4548125188449825,29.063177349802572
4.629689226627261,26.64191676390263
4.811430839003257,24.41697792025341
5.000306842491082,22.37298691298543
5.196597302486189,20.495702971448868
5.400593278542364,18.771959471149263
5.612597255954967,17.18958865508721
5.8329235942862,15.737349685750575
6.06189899349756,14.404862458047068
6.29986297838068,13.182562076223107
6.547168402004727,12.061632216986938
6.804181968927091,11.03393112952119
7.071284778942991,10.091942537489235
7.348872892180382,9.228730525823586
7.637357916378006,8.437892284491857
7.937167617217536,7.7134729916098275
8.248746552614573,7.049969087510549
8.572556731909314,6.442330269758093
8.909078300934132,5.885922522939385
9.258810253973934,5.3764936812662745
9.622271173675122,4.910161875172963
9.999999999999984,4.483480129795045
