k [1/Mpc],P(k) [Mpc^3]
0.0001,226.36981341558578
0.00010392556829367125,235.93471343685792
0.00010800523745162529,245.9036303497504
0.00011224505680853065,256.29359052335735
0.00011665131316981963,267.12234174752115
0.00012123054013376525,278.40840695506074
0.00012598952777950273,290.17109724968736
0.00013093533273536104,302.43051539602544
0.00013607528864243335,315.20758141966303
0.00014141701702890234,328.52409408258956
0.00014696843861124463,342.40278812993057
0.00015273778503907136,356.867362124734
0.00015873361110102093,371.9425095178186
0.00016496480740980205,387.65395868727353
0.0001714406135851971,404.028515008415
0.00017817063195457305,421.0940721428626
0.00018516484179121546,438.8796690494426
0.000192433614111598,457.4155733397032
0.00019998772705352857,476.7333628998581
0.0002078383818579757,496.86594441788594
0.00021599721947827182,517.8475569102587
0.0002244763378413224,539.7138292957721
0.0002332883097864157,562.5018739968727
0.00024244620170823283,586.2503563195983
0.0002519635929317015,610.9995520608255
0.0002618545958474233,636.7914039113695
0.0002721338768375308,663.6695872396912
0.0002828166780230032,691.6795823465263
0.0002939188398646886,720.8687136419302
0.0003054568246515432,751.2862448819548
0.00031744774091091926,782.9834599622129
0.00032990936877709396,816.0137341147266
0.00034286018635565856,850.4326312265764
0.00035631939712285854,886.2979658219136
0.000370306958400514,923.6699025018319
0.00038484361094874304,962.6110370051096
0.0003999509097203664,1003.1864434400723
0.00041565125582259895,1045.4638246232391
0.00043196792973341727,1089.5136186652985
0.0004489251258218605,1135.4091063340113
0.0004665479882234472,1183.2264820701998
0.000484862648123908,1233.0448235086687
0.000503896262506515,1284.9463182960365
0.0005236770544204653,1339.0164760521793
0.0005442343548300266,1395.344273268032
0.0005655986461065005,1454.0221769339603
0.0005878016072274912,1515.1459875416206
0.0006108761607505036,1578.8151248139106
0.0006348565216305217,1645.1328588084632
0.0006597782479539537,1714.206437090916
0.0006856782936641739,1786.147235177116
0.0007125950633568407,1861.0708151456254
0.0007405684692262436,1939.0971025769322
0.0007696399902471156,2020.350460941036
0.0007998527336796708,2104.9596144824104
0.000831251498989063,2193.058025721048
0.0008638828442740447,2284.7839005998353
0.000897795155303332,2380.280347672739
0.0009330387172620361,2479.6956032785242
0.0009696657893145519,2583.1829311243728
0.001007730682094461,2690.9009742407516
0.0010472898382363582,2803.013691511131
0.0010884019160690055,2919.6903991015197
0.0011311278765939214,3041.1061218052246
0.001175531073878369,3167.4411934591026
0.0012216773489967915,3298.8817061018544
0.0012696351276599736,3435.619522969289
0.0013194755216767058,3577.8520756800904
0.0013712724343984,3725.7828661415306
0.0014251026703029975,3879.6206484986155
0.0014810460488806749,4039.5798247936855
0.0015391855229902056,4205.880850533973
0.001599607301861487,4378.74991133397
0.0016624009789266115,4558.419318833323
0.0017276596646690358,4745.126235248861
0.0017954801246878305,4939.1126943028885
0.0018659629231817451,5140.626323089814
0.001939212572065829,5349.9192744651855
0.0020153376859417325,5567.2489611053525
0.002094451143151469,5792.877364245405
0.002176670253153458,6027.070558916499
0.002262116930469025,6270.099021962272
0.002350917875457286,6522.234813810601
0.002443204762186487,6783.752777348225
0.0025391144336803463,7054.930693877321
0.002638789104828933,7336.048359633189
0.002742376573264949,7627.3876970903
0.0028500304385181063,7929.2287637763375
0.0029619103297725525,8241.850339559891
0.0030781821425650787,8565.530254202507
0.003199018284775064,8900.542681913284
0.0033245979322709396,9247.15934982135
0.003455107294592217,9605.64540020465
0.0035907398910610534,9976.258525251716
0.0037316968377327513,10359.249566206332
0.0038781871456107214,10754.85711815123
0.0040304280305680515,11163.309647501765
0.00418864523543527,11584.820540634742
0.004353073364731888,12019.584754565205
0.00452395623253805,12467.781284192788
0.004701547224022131,12929.564842254997
0.004886109671160325,13405.067949563809
0.005077917243205399,13894.392424633452
0.005277254352483535,14397.598029775867
0.005484416576121017,14914.715002414292
0.005699711094326071,15445.753654622793
0.005923457145875801,15990.699202862617
0.006155986501483508,16549.471041491342
0.006397643955748424,17121.858101433103
0.0066487878384172625,17707.582120944695
0.0069097905457156435,18306.350492229023
0.007181039092537346,18917.853282053176
0.007462935686310132,19541.701689232672
0.007755898323389004,20177.33675468309
0.00806036140886134,20824.095194498994
0.008376776400682916,21481.256012674745
0.008705612479099857,22148.047303334413
0.009047357242349292,22823.600669613985
0.00940251742967013,23506.84745285952
0.009771619672696168,24196.57270298926
0.010155211276345676,24891.417651585656
0.010553861030365234,25589.84306551566
0.010968160052731372,26290.176889827282
0.011398722666160517,26990.563943677964
0.011846187309026826,27688.986333345878
0.012311217482038896,28383.251144420337
0.012794502732078732,29070.90572971474
0.013296759674662111,29749.334940056615
0.013818733056536317,30415.686072454606
0.014361196859990781,31066.88370556899
0.014924955450518284,31699.685799632072
0.015510844769528393,32310.57120223689
0.016119733573881575,32895.86598128462
0.01675252472408214,33451.69001427858
0.017410156523040152,33973.944622751595
0.018093604107387147,34458.44702693375
0.01880388089340914,34900.81938155292
0.019542040079740527,35296.62855786268
0.02030917620904734,35641.42986447347
0.021106426791015535,35930.75512313847
0.021934973989050584,36160.26822221561
0.02279604637318978,36325.73539136483
0.023690920741826323,36423.131045843904
0.02462092401494623,36448.877427431486
0.02558743520168586,36400.100669836545
0.02659188744512693,36274.42160599871
0.027635770147361564,36069.687169162666
0.028720631177978267,35784.07074780324
0.029848079169243254,35417.24231705209
0.03101978590138095,34973.09958694188
0.03223748878149028,34456.8244382067
0.0335029934197723,33871.15031505172
0.03481817630688963,33215.8701698751
0.03618498759642746,32492.59666707578
0.037605453996581675,31711.82467839396
0.03908168177536263,30886.992673160286
0.04061585988376978,30029.591275771207
0.04221026320156896,29148.197105768715
0.04386725591048496,28251.378295721795
0.0455892949998106,27352.532231408917
0.047378933909631396,26466.06672768611
0.049238826317067365,25604.902812393862
0.05117173007114603,24780.477430303657
0.05318051128214196,24002.209726077657
0.05526814857144601,23277.60831247316
0.057437737488265785,22611.347274912765
0.0596924950997073,22005.51056495346
0.0620357647610427,21458.542328727075
0.06447102107323864,20966.037940918097
0.06700187503509585,20519.64764953484
0.06963207939763882,20107.35562703034
0.0723655342286965,19713.28166226668
0.07520629269592405,19317.61433822892
0.07815856707684081,18898.23295913911
0.08122673500479707,18432.58537382441
0.08441534596012978,17900.625263095677
0.0877291280161335,17288.279856007823
0.09117299484984914,16590.072800056347
0.09475205302806537,15810.711776215827
0.09847160957933764,14966.158344070187
0.1023371798632519,14082.072921263447
0.10635449574860109,13194.287188667917
0.11052951411260206,12343.958927626043
0.1148684256737553,11568.839703913623
0.1193776641714435,10899.72364003654
0.1240639159058831,10355.026978318361
0.12893412965257148,9936.266889067087
0.13399552696593373,9626.534441352316
0.1392556128874462,9391.095723622417
0.14472218707411338,9180.583474897556
0.15040335536380234,8938.749785803788
0.15630754179458153,8615.617814784899
0.16244350109588662,8183.036270225251
0.16882033167003618,7647.483712770588
0.17544748908334581,7053.87708756339
0.1823348000868439,6473.192236631767
0.189492477187382,5975.450692463261
0.19693113379074215,5603.869340516706
0.20466179993919872,5361.803748878404
0.21269593866686892,5208.880312883905
0.22104546299710207,5070.847772593502
0.22972275360711503,4871.561256475217
0.23874067718606454,4573.294085791136
0.2481126055137766,4199.612609024807
0.25785243528842716,3824.8770256552793
0.26797460873256895,3527.396175231298
0.27849413500806414,3339.4189890919015
0.28942661247167484,3225.9558973965477
0.3007882518043098,3106.9844972831534
0.31259590004822796,2919.2969094314035
0.324867065587837,2671.8202527950043
0.3376199441111335,2436.414300261549
0.35087344559027084,2273.408053745849
0.36464722232127456,2174.156338071928
0.37896169806447155,2073.4076354955887
0.3938380983288488,1924.4569935226762
0.4092984818452433,1755.4152083002405
0.4253657732750382,1625.9634363146783
0.44206379720285277,1542.085920172556
0.45941731346364734,1454.4538324544808
0.47745205385661277,1338.8413275101245
0.4961947603002895,1230.2824834847827
0.5156732244854959,1154.648083621926
0.5359163290848509,1084.2152946127471
0.556954090580013,998.7552481945788
0.5788177037701272,922.1843143502646
0.6015395880274836,863.5147939282375
0.6251534353689703,801.3978229475896
0.6496942604146115,738.291312234016
0.6751984523072497,687.2145497903267
0.7017038286703824,636.8567733939993
0.7292496916841444,589.3576533394304
0.7578768863625915,546.7056970670056
0.7876278611187046,506.06294259149314
0.8185467307069019,467.7120259409048
0.850679341636415,431.8395344689902
0.8840733401525058,398.550099447585
0.9187782428863317,367.85807625303323
0.9548455102782278,339.57657240471406
0.9923286228832539,313.46566247104073
1.0312831606721837,289.315309314502
1.0717668854455022,266.94168672360934
1.1138398264826193,246.18380233378613
1.1575643695533022,226.91457740835753
1.2030053494233226,209.04624600180378
1.2502301459914542,192.49673253228738
1.299308784200415,177.18596653126016
1.3503140378698726,163.03626233998722
1.4033215376054824,149.97215767713882
1.4584098829439835,137.9162756186172
1.5156607589006013,126.79309590249983
1.575159057091621,116.53261138797876
1.6369930016117014,107.06997984721514
1.7012542798525885,98.3451430778381
1.7680381784572046,90.30280158133972
1.8374437246107238,82.89255007221372
1.9095738328780953,76.06755774559453
1.9845354578058014,69.78416236681238
2.0624397525140905,64.00168671641738
2.143402233514853,58.68225495628896
2.227542951999554,53.790495996121834
2.314986671851158,49.293449837395166
2.405863054644063,45.1605558839914
2.5003068519063225,41.36349583190292
2.598458104929248,37.876040769606796
2.7004623524206774,34.67391179548183
2.806470846309834,31.734656705200383
2.916640776023701,29.037505677076993
3.031135501567576,26.563248681135747
3.150124795755327,24.294126273104414
3.2737850959485697,22.21372710751676
3.4022997656780634,20.30688629386632
3.5358593665351745,18.559596682097276
3.6746619407366854,16.958933941140398
3.8189133047818515,15.492977986014246
3.968827354637162,14.150739119184436
4.1246263829013445,12.922088865563856
4.286541408420921,11.797694257897106
4.4548125188449825,10.768960170494193
4.629689226627261,9.827974690669146
4.811430839003257,8.967457317346932
5.000306842491082,8.18071081930823
5.196597302486189,7.461574299636531
5.400593278542364,6.8043809375013495
5.612597255954967,6.203924273282901
5.8329235942862,5.655422657236912
6.06189899349756,5.154485832937083
6.29986297838068,4.697084667391506
6.547168402004727,4.27952775923511
6.804181968927091,3.8984301545768894
7.071284778942991,3.5506850623841335
7.348872892180382,3.2334419522162294
7.637357916378006,2.9440863094683656
7.937167617217536,2.680213997906555
8.248746552614573,2.439606198419454
8.572556731909314,2.2202335162267968
8.909078300934132,2.020242928711041
9.258810253973934,1.8379423982650913
9.622271173675122,1.6717888061909247
9.999999999999984,1.520403487735808
