k [1/Mpc],P(k) [Mpc^3]
0.0001,375.47639485877505
0.00010392556829367125,389.0807087435632
0.00010800523745162529,403.17709209024196
0.00011224505680853065,417.78324127305376
0.00011665131316981963,432.91750473152194
0.00012123054013376525,448.59888028328805
0.00012598952777950273,464.8470003124485
0.00013093533273536104,481.6821765305891
0.00013607528864243335,499.125444643074
0.00014141701702890234,517.1985958172097
0.00014696843861124463,535.924188836371
0.00015273778503907136,555.3255337524079
0.00015873361110102093,575.4267299009618
0.00016496480740980205,596.2527202286782
0.0001714406135851971,617.829325755738
0.00017817063195457305,640.1832679659906
0.00018516484179121546,663.3421580101051
0.000192433614111598,687.3345213162087
0.00019998772705352857,712.189857176841
0.0002078383818579757,737.9386428103468
0.00021599721947827182,764.6123847103705
0.0002244763378413224,792.2436396441332
0.0002332883097864157,820.8660305839428
0.00024244620170823283,850.5143016598838
0.0002519635929317015,881.2242705920785
0.0002618545958474233,913.0328928457791
0.0002721338768375308,945.9783333340094
0.0002828166780230032,980.099984079961
0.0002939188398646886,1015.4385143971023
0.0003054568246515432,1052.0357859114868
0.00031744774091091926,1089.934882151926
0.00032990936877709396,1129.1802331086749
0.00034286018635565856,1169.817598704112
0.00035631939712285854,1211.894143674128
0.000370306958400514,1255.4583861980007
0.00038484361094874304,1300.5601652839405
0.0003999509097203664,1347.250785752326
0.00041565125582259895,1395.5829158610252
0.00043196792973341727,1445.6106800259186
0.0004489251258218605,1497.3896842641884
0.0004665479882234472,1550.9769168901835
0.000484862648123908,1606.4309104317622
0.000503896262506515,1663.8116002343615
0.0005236770544204653,1723.1803564089907
0.0005442343548300266,1784.6000713148321
0.0005655986461065005,1848.1349011448729
0.0005878016072274912,1913.85049388249
0.0006108761607505036,1981.813964141719
0.0006348565216305217,2052.093842468756
0.0006597782479539537,2124.7601286208574
0.0006856782936641739,2199.8836864286563
0.0007125950633568407,2277.536524307301
0.0007405684692262436,2357.7919073352386
0.0007696399902471156,2440.7241247947995
0.0007998527336796708,2526.4086751118307
0.000831251498989063,2614.921553984179
0.0008638828442740447,2706.3392977189537
0.000897795155303332,2800.7391916072766
0.0009330387172620361,2898.198506714339
0.0009696657893145519,2998.7949885953
0.001007730682094461,3102.6062559988386
0.0010472898382363582,3209.709435744918
0.0010884019160690055,3320.1816111045923
0.0011311278765939214,3434.0987162727592
0.001175531073878369,3551.535928787596
0.0012216773489967915,3672.5672159194537
0.0012696351276599736,3797.2643170177694
0.0013194755216767058,3925.6975665916966
0.0013712724343984,4057.934682027308
0.0014251026703029975,4194.040760027398
0.0014810460488806749,4334.078188552302
0.0015391855229902056,4478.104913810375
0.001599607301861487,4626.175406019224
0.0016624009789266115,4778.3393956761065
0.0017276596646690358,4934.641201457919
0.0017954801246878305,5095.120248912677
0.0018659629231817451,5259.808741185218
0.001939212572065829,5428.732439724705
0.0020153376859417325,5601.909696635319
0.002094451143151469,5779.349739918151
0.002176670253153458,5961.053897440999
0.002262116930469025,6147.013211334982
0.002350917875457286,6337.208536455056
0.002443204762186487,6531.609964529972
0.0025391144336803463,6730.173395298259
0.002638789104828933,6932.842697456973
0.002742376573264949,7139.546892997493
0.0028500304385181063,7350.199195143819
0.0029619103297725525,7564.698009370582
0.0030781821425650787,7782.92164881589
0.003199018284775064,8004.730939876932
0.0033245979322709396,8229.966269517427
0.003455107294592217,8458.443856758655
0.0035907398910610534,8689.960081434563
0.0037316968377327513,8924.285390532179
0.0038781871456107214,9161.166108581408
0.0040304280305680515,9400.3193309314
0.00418864523543527,9641.417454457303
0.004353073364731888,9884.105071213828
0.00452395623253805,10128.016521811394
0.004701547224022131,10372.776082803317
0.004886109671160325,10617.963638687315
0.005077917243205399,10863.027558540965
0.005277254352483535,11107.351048739481
0.005484416576121017,11350.30299154239
0.005699711094326071,11591.251239291765
0.005923457145875801,11829.535570516478
0.006155986501483508,12064.454840618813
0.006397643955748424,12295.274236127832
0.0066487878384172625,12521.19676589327
0.0069097905457156435,12741.308895821807
0.007181039092537346,12954.651543219443
0.007462935686310132,13160.183100259565
0.007755898323389004,13356.790456772505
0.00806036140886134,13543.320259648612
0.008376776400682916,13718.528904072786
0.008705612479099857,13881.13983030868
0.009047357242349292,14029.804770407023
0.00940251742967013,14163.088124364884
0.009771619672696168,14279.539965973356
0.010155211276345676,14377.582200390218
0.010553861030365234,14455.604111387436
0.010968160052731372,14511.969328443165
0.011398722666160517,14544.940823908884
0.011846187309026826,14552.839751639773
0.012311217482038896,14533.912593685214
0.012794502732078732,14486.412152231924
0.013296759674662111,14408.69488863554
0.013818733056536317,14299.04772672335
0.014361196859990781,14155.952702785178
0.014924955450518284,13977.977289877324
0.015510844769528393,13763.786917409932
0.016119733573881575,13512.403809745594
0.01675252472408214,13222.94528205207
0.017410156523040152,12894.939015876718
0.018093604107387147,12528.323228575597
0.01880388089340914,12123.314352734782
0.019542040079740527,11680.831695260209
0.02030917620904734,11202.22434346048
0.021106426791015535,10689.48591598289
0.021934973989050584,10145.394110490108
0.02279604637318978,9573.197242193504
0.023690920741826323,8977.032667591337
0.02462092401494623,8361.812007918885
0.02558743520168586,7733.133415073705
0.02659188744512693,7097.234623554515
0.027635770147361564,6460.520383462013
0.028720631177978267,5829.726783546604
0.029848079169243254,5212.507451579836
0.03101978590138095,4617.23120822625
0.03223748878149028,4051.116661188503
0.0335029934197723,3519.376556522319
0.03481817630688963,3025.8389096766095
0.03618498759642746,2575.1203436718506
0.037605453996581675,2172.865646316777
0.03908168177536263,1821.4778978370769
0.04061585988376978,1521.2610677123605
0.04221026320156896,1270.0989548678751
0.04386725591048496,1065.4685940573459
0.0455892949998106,903.4874845852912
0.047378933909631396,780.1118173106415
0.049238826317067365,691.0360503180098
0.05117173007114603,632.3615373063701
0.05318051128214196,600.722566035363
0.05526814857144601,593.4737503954369
0.057437737488265785,607.4069945547053
0.0596924950997073,639.1154306605736
0.0620357647610427,684.2082498684107
0.06447102107323864,736.8000607782444
0.06700187503509585,789.3927712645639
0.06963207939763882,833.1668425109186
0.0723655342286965,858.690158832797
0.07520629269592405,857.3057957750783
0.07815856707684081,822.9615663602904
0.08122673500479707,754.3337367256773
0.08441534596012978,656.3726670795944
0.0877291280161335,540.1610479337535
0.09117299484984914,420.4065126170748
0.09475205302806537,311.4401472343349
0.09847160957933764,223.52149098336247
0.1023371798632519,161.0876326015908
0.10635449574860109,123.4948310182089
0.11052951411260206,107.57065243936142
0.1148684256737553,110.31862485717294
0.1193776641714435,129.69682926036998
0.1240639159058831,162.3751409085893
0.12893412965257148,200.1196727964843
0.13399552696593373,229.16080045013462
0.1392556128874462,235.46419341456135
0.14472218707411338,212.7569923004505
0.15040335536380234,167.3066121123109
0.15630754179458153,115.52333463850762
0.16244350109588662,74.06194758983548
0.16882033167003618,50.50472243941345
0.17544748908334581,44.02098815740994
0.1823348000868439,51.87206310286809
0.189492477187382,70.22513780354082
0.19693113379074215,89.09364321655329
0.20466179993919872,93.87499221087424
0.21269593866686892,78.44142649007296
0.22104546299710207,52.95510035725524
0.22972275360711503,32.95649096805347
0.23874067718606454,25.371535682380074
0.2481126055137766,29.08450855773862
0.25785243528842716,39.3619763888477
0.26797460873256895,45.53686732373689
0.27849413500806414,39.01881693866868
0.28942661247167484,25.865759284082916
0.3007882518043098,17.622716493109348
0.31259590004822796,17.76896138673669
0.324867065587837,22.87473253488
0.3376199441111335,24.56791942998532
0.35087344559027084,18.864127022791614
0.36464722232127456,12.900175612754467
0.37896169806447155,12.166273002949081
0.3938380983288488,14.605638089906686
0.4092984818452433,14.140642204159569
0.4253657732750382,10.366662973049992
0.44206379720285277,8.654202569640798
0.45941731346364734,9.60282397321675
0.47745205385661277,9.238150732108505
0.4961947603002895,7.115723247295364
0.5156732244854959,6.523233386526853
0.5359163290848509,6.703583773631369
0.556954090580013,5.9931020028276745
0.5788177037701272,5.1344531253794505
0.6015395880274836,4.469241049670759
0.6251534353689703,4.007939064022569
0.6496942604146115,3.6726554495804122
0.6751984523072497,3.409950451253161
0.7017038286703824,3.1809864073901455
0.7292496916841444,2.956402710074383
0.7578768863625915,2.7225134626040948
0.7876278611187046,2.4873748273427463
0.8185467307069019,2.2597037890046825
0.850679341636415,2.0458566411868344
0.8840733401525058,1.8500634084480037
0.9187782428863317,1.6745965839252166
0.9548455102782278,1.51815912495937
0.9923286228832539,1.3779081955613277
1.0312831606721837,1.2514745661716777
1.0717668854455022,1.1369081713490277
1.1138398264826193,1.0326026738145753
1.1575643695533022,0.9373452707158034
1.2030053494233226,0.8504305013939374
1.2502301459914542,0.7712527679243161
1.299308784200415,0.699228463482371
1.3503140378698726,0.6337992211486313
1.4033215376054824,0.5744324098850312
1.4584098829439835,0.5205914920060594
1.5156607589006013,0.4717546932795382
1.575159057091621,0.42745024350241073
1.6369930016117014,0.3872524981925463
1.7012542798525885,0.3507771952022243
1.7680381784572046,0.3176789115468031
1.8374437246107238,0.28765154696693007
1.9095738328780953,0.2604176360719662
1.9845354578058014,0.23572382436608608
2.0624397525140905,0.21333888935001052
2.143402233514853,0.1930518865449435
2.227542951999554,0.1746697498379931
2.314986671851158,0.15801593008677192
2.405863054644063,0.1429299788094473
2.5003068519063225,0.12926615462033522
2.598458104929248,0.11689209213412091
2.7004623524206774,0.10568762167131404
2.806470846309834,0.09554379288857719
2.916640776023701,0.08636169274210753
3.031135501567576,0.07805146983183912
3.150124795755327,0.07053152160545186
3.2737850959485697,0.06372775256091272
3.4022997656780634,0.05757288744847842
3.5358593665351745,0.0520058532954458
3.6746619407366854,0.04697123571068498
3.8189133047818515,0.04241876549925166
3.968827354637162,0.03830284930589973
4.1246263829013445,0.03458214091286564
4.286541408420921,0.031219144201998648
4.4548125188449825,0.028179867940800178
4.629689226627261,0.025433508464984583
4.811430839003257,0.022952155235530364
5.000306842491082,0.02071052309591472
5.196597302486189,0.018685708276631203
5.400593278542364,0.016856966852911704
5.612597255954967,0.015205515267682896
5.8329235942862,0.013714347781419214
6.06189899349756,0.012368070478262017
6.29986297838068,0.011152751174367662
6.547168402004727,0.010055788645431319
6.804181968927091,0.009065782926047249
7.071284778942991,0.008172417546010639
7.348872892180382,0.007366358115352148
7.637357916378006,0.006639160295761432
7.937167617217536,0.005983177484678992
8.248746552614573,0.005391473914478521
8.572556731909314,0.00485778358939091
8.909078300934132,0.00437645022164174
9.258810253973934,0.003942367802725077
9.622271173675122,0.0035509295127195005
9.999999999999984,0.0031980175353262617
