k [1/Mpc],P(k) [Mpc^3]
0.0001,68.89962687042589
0.00010392556829367125,71.39758799050918
0.00010800523745162529,73.98609010288823
0.00011224505680853065,76.6684111232218
0.00011665131316981963,79.44794916484868
0.00012123054013376525,82.32822744481176
0.00012598952777950273,85.31289633009402
0.00013093533273536104,88.40573394831381
0.00013607528864243335,91.61065300786493
0.00014141701702890234,94.93170938918746
0.00014696843861124463,98.3731096350027
0.00015273778503907136,101.9392125388539
0.00015873361110102093,105.63452813677338
0.00016496480740980205,109.46372458339302
0.0001714406135851971,113.43163936721889
0.00017817063195457305,117.54328956432646
0.00018516484179121546,121.80387436474172
0.000192433614111598,126.2187794019955
0.00019998772705352857,130.79358321259465
0.0002078383818579757,135.53406440940748
0.00021599721947827182,140.44620461310623
0.0002244763378413224,145.5361983900004
0.0002332883097864157,150.81046162714617
0.00024244620170823283,156.2756386265172
0.0002519635929317015,161.93861196552697
0.0002618545958474233,167.80651628315078
0.0002721338768375308,173.88674561208222
0.0002828166780230032,180.18695354062584
0.0002939188398646886,186.7150496902842
0.0003054568246515432,193.47922179675535
0.00031744774091091926,200.48795326464838
0.00032990936877709396,207.75003398787874
0.00034286018635565856,215.27456613093437
0.00035631939712285854,223.070971839815
0.000370306958400514,231.1490063769968
0.00038484361094874304,239.51876094184348
0.0003999509097203664,248.19066716363847
0.00041565125582259895,257.1755222273906
0.00043196792973341727,266.4845062885276
0.0004489251258218605,276.1291941764991
0.0004665479882234472,286.1215609550397
0.000484862648123908,296.47398481860694
0.000503896262506515,307.19927152477135
0.0005236770544204653,318.3106540663382
0.0005442343548300266,329.8218068905753
0.0005655986461065005,341.7468761560744
0.0005878016072274912,354.1005026286704
0.0006108761607505036,366.89783215163175
0.0006348565216305217,380.1545002811273
0.0006597782479539537,393.8866312723697
0.0006856782936641739,408.1108912710924
0.0007125950633568407,422.8445209673877
0.0007405684692262436,438.1053479923228
0.0007696399902471156,453.9117725794111
0.0007998527336796708,470.28274502698105
0.000831251498989063,487.2378291205062
0.0008638828442740447,504.79720927725515
0.000897795155303332,522.9817106379073
0.0009330387172620361,541.8128223148866
0.0009696657893145519,561.3126847649472
0.001007730682094461,581.5041337249407
0.0010472898382363582,602.4107065988012
0.0010884019160690055,624.0566521169743
0.0011311278765939214,646.4669563698191
0.001175531073878369,669.6672502465395
0.0012216773489967915,693.6838835886032
0.0012696351276599736,718.5439718918428
0.0013194755216767058,744.2753874671382
0.0013712724343984,770.9068025490842
0.0014251026703029975,798.4676009380094
0.0014810460488806749,826.9879111351353
0.0015391855229902056,856.4986502888736
0.001599607301861487,887.0314149109382
0.0016624009789266115,918.6185957530174
0.0017276596646690358,951.2933168650342
0.0017954801246878305,985.0894118898309
0.0018659629231817451,1020.0414962887588
0.001939212572065829,1056.1847566781223
0.0020153376859417325,1093.5550765888827
0.002094451143151469,1132.1890323820319
0.002176670253153458,1172.123791865174
0.002262116930469025,1213.3972224816766
0.002350917875457286,1256.0476169576891
0.002443204762186487,1300.1137480292414
0.0025391144336803463,1345.6349073174144
0.002638789104828933,1392.6506049288535
0.002742376573264949,1441.200793232919
0.0028500304385181063,1491.325644918642
0.0029619103297725525,1543.0654658505
0.0030781821425650787,1596.4607887002308
0.003199018284775064,1651.5518378932663
0.0033245979322709396,1708.3787803299479
0.003455107294592217,1766.9815317149464
0.0035907398910610534,1827.3994141836292
0.0037316968377327513,1889.6714370798259
0.0038781871456107214,1953.8355949056224
0.0040304280305680515,2019.9289786411862
0.00418864523543527,2087.9877061822813
0.004353073364731888,2158.046130912206
0.00452395623253805,2230.1373533332294
0.004701547224022131,2304.2923994782873
0.004886109671160325,2380.539997313671
0.005077917243205399,2458.9067993708104
0.005277254352483535,2539.4159046890063
0.005484416576121017,2622.0875646928057
0.005699711094326071,2706.93841227352
0.005923457145875801,2793.98054555414
0.006155986501483508,2883.2222545427417
0.006397643955748424,2974.665339356852
0.0066487878384172625,3068.305840358155
0.0069097905457156435,3164.134819392962
0.007181039092537346,3262.137653960903
0.007462935686310132,3362.2937598485055
0.007755898323389004,3464.5686868176417
0.00806036140886134,3568.9139311776103
0.008376776400682916,3675.27250134941
0.008705612479099857,3783.5785542490003
0.009047357242349292,3893.7571210960646
0.00940251742967013,4005.7213572758014
0.009771619672696168,4119.370921162563
0.010155211276345676,4234.593032275466
0.010553861030365234,4351.252034940096
0.010968160052731372,4469.193990037176
0.011398722666160517,4588.247247360522
0.011846187309026826,4708.216474422758
0.012311217482038896,4828.888929639067
0.012794502732078732,4950.0254938215885
0.013296759674662111,5071.3619866393265
0.013818733056536317,5192.612593345058
0.014361196859990781,5313.458249759793
0.014924955450518284,5433.556985495395
0.015510844769528393,5552.534498908581
0.016119733573881575,5669.980199381954
0.01675252472408214,5785.459965571565
0.017410156523040152,5898.499944823405
0.018093604107387147,6008.598834925673
0.01880388089340914,6115.225570084909
0.019542040079740527,6217.807526555557
0.02030917620904734,6315.752852463929
0.021106426791015535,6408.436083874458
0.021934973989050584,6495.207671976006
0.02279604637318978,6575.403692823319
0.023690920741826323,6648.3279641541685
0.02462092401494623,6713.281744352649
0.02558743520168586,6769.577729339905
0.02659188744512693,6816.547222444616
0.027635770147361564,6853.53315850623
0.028720631177978267,6879.829688372359
0.029848079169243254,6894.742621412466
0.03101978590138095,6897.791505041749
0.03223748878149028,6888.851740915937
0.0335029934197723,6867.851958306039
0.03481817630688963,6834.342660980323
0.03618498759642746,6787.680618937841
0.037605453996581675,6727.488927633649
0.03908168177536263,6654.019352863975
0.04061585988376978,6567.7196272636165
0.04221026320156896,6469.432412143636
0.04386725591048496,6360.363672276305
0.0455892949998106,6241.700443825259
0.047378933909631396,6114.398165483748
0.049238826317067365,5979.3560964235
0.05117173007114603,5837.860728626559
0.05318051128214196,5691.603193699033
0.05526814857144601,5542.334984030637
0.057437737488265785,5391.999136742052
0.0596924950997073,5242.445244750448
0.0620357647610427,5095.436736914633
0.06447102107323864,4952.518143746253
0.06700187503509585,4814.941573462072
0.06963207939763882,4683.626926426529
0.0723655342286965,4559.115876648143
0.07520629269592405,4441.46241994578
0.07815856707684081,4330.282742938258
0.08122673500479707,4224.6664803970825
0.08441534596012978,4123.182092908079
0.0877291280161335,4023.903619930468
0.09117299484984914,3924.446967252077
0.09475205302806537,3822.1395424645816
0.09847160957933764,3714.2955349460008
0.1023371798632519,3598.5668778623385
0.10635449574860109,3473.3045263783483
0.11052951411260206,3337.9317269132102
0.1148684256737553,3193.12774208441
0.1193776641714435,3040.91704526969
0.1240639159058831,2884.622005389971
0.12893412965257148,2728.673883494351
0.13399552696593373,2578.101129678723
0.1392556128874462,2437.9619349811037
0.14472218707411338,2312.3924613330973
0.15040335536380234,2203.8535480533687
0.15630754179458153,2112.3804738191834
0.16244350109588662,2035.8580789681807
0.16882033167003618,1969.5284616571569
0.17544748908334581,1906.3628202916043
0.1823348000868439,1839.0065409264632
0.189492477187382,1761.4113920502446
0.19693113379074215,1670.7231439027053
0.20466179993919872,1568.623186787643
0.21269593866686892,1461.4203708843252
0.22104546299710207,1358.2607855314545
0.22972275360711503,1267.8499027612056
0.23874067718606454,1195.2225127338131
0.2481126055137766,1139.9647019752658
0.25785243528842716,1095.9602031293362
0.26797460873256895,1053.1838918466703
0.27849413500806414,1002.2139811119789
0.28942661247167484,939.3042112211081
0.3007882518043098,868.7541840911226
0.31259590004822796,800.7985239131339
0.324867065587837,745.2297056639114
0.3376199441111335,704.9989714670527
0.35087344559027084,674.0767610856683
0.36464722232127456,641.4683075386272
0.37896169806447155,599.8511754418302
0.3938380983288488,552.0060379231809
0.4092984818452433,508.1950232122729
0.4253657732750382,475.7160155192116
0.44206379720285277,451.60944822443145
0.45941731346364734,426.1586557389859
0.47745205385661277,394.47012344615354
0.4961947603002895,362.17176575690945
0.5156732244854959,336.9501064834084
0.5359163290848509,317.71434603087346
0.556954090580013,297.11495590767976
0.5788177037701272,273.4048193947649
0.6015395880274836,252.39247897139953
0.6251534353689703,236.31633455136145
0.6496942604146115,220.31796661102894
0.6751984523072497,202.7015198372502
0.7017038286703824,187.56145577399437
0.7292496916841444,174.91497129801297
0.7578768863625915,161.5622912453468
0.7876278611187046,148.9391352588019
0.8185467307069019,138.2996853232438
0.850679341636415,127.75324634551583
0.8840733401525058,117.87930173984293
0.9187782428863317,108.80127955300927
0.9548455102782278,100.42624926476684
0.9923286228832539,92.67513512555392
1.0312831606721837,85.480668770563
1.0717668854455022,78.78984285240418
1.1138398264826193,72.57325487668903
1.1575643695533022,66.8065804058284
1.2030053494233226,61.46535392855716
1.2502301459914542,56.525220397875835
1.299308784200415,51.96213646601972
1.3503140378698726,47.751221173561625
1.4033215376054824,43.86631562216494
1.4584098829439835,40.28290869532104
1.5156607589006013,36.97832750125333
1.575159057091621,33.93159540370107
1.6369930016117014,31.123322162896375
1.7012542798525885,28.535936409998808
1.7680381784572046,26.153392903657142
1.8374437246107238,23.96067769772522
1.9095738328780953,21.943743882478746
1.9845354578058014,20.089463707811234
2.0624397525140905,18.385568690258516
2.143402233514853,16.820534974753098
2.227542951999554,15.383617600929435
2.314986671851158,14.064846619425763
2.405863054644063,12.854976772605477
2.5003068519063225,11.745439753459411
2.598458104929248,10.728301822445921
2.7004623524206774,9.796225480543209
2.806470846309834,8.942420552978703
2.916640776023701,8.16060535988763
3.031135501567576,7.4449720252029294
3.150124795755327,6.790153748940613
3.2737850959485697,6.191190937698867
3.4022997656780634,5.643502369202071
3.5358593665351745,5.142863459325338
3.6746619407366854,4.685380763347987
3.8189133047818515,4.26746771799541
3.968827354637162,3.8858220529453784
4.1246263829013445,3.53740531126525
4.286541408420921,3.219422644671109
4.4548125188449825,2.929303888206843
4.629689226627261,2.664686557572489
4.811430839003257,2.4234000369567497
5.000306842491082,2.203450381567706
5.196597302486189,2.0030049035925583
5.400593278542364,1.8203819958648317
5.612597255954967,1.6540401297694678
5.8329235942862,1.5025666787984733
6.06189899349756,1.3646675886989432
6.29986297838068,1.239158851659388
6.547168402004727,1.1249585204252133
6.804181968927091,1.0210758819147392
7.071284778942991,0.9266037922922548
7.348872892180382,0.8407119842815383
7.637357916378006,0.762640726352876
7.937167617217536,0.6916913626212179
8.248746552614573,0.6272223188498607
8.572556731909314,0.5686492637294253
8.909078300934132,0.5154402379262079
9.258810253973934,0.46711095264553115
9.622271173675122,0.4232217212336256
9.999999999999984,0.3833823555105399
