k [1/Mpc],P(k) [Mpc^3]
0.0001,96.84086346810204
0.00010392556829367125,100.9329747754691
0.00010800523745162529,105.19796046021904
0.00011224505680853065,109.64311605702406
0.00011665131316981963,114.27604542612337
0.00012123054013376525,119.10467695479633
0.00012598952777950273,124.1372744610375
0.00013093533273536104,129.3824458639228
0.00013607528864243335,134.8491560345764
0.00014141701702890234,140.5467473765138
0.00014696843861124463,146.4849608011411
0.00015273778503907136,152.67394971285987
0.00015873361110102093,159.12429116610448
0.00016496480740980205,165.84699932414432
0.0001714406135851971,172.8535503915792
0.00017817063195457305,180.1559070208925
0.00018516484179121546,187.76653747445184
0.000192433614111598,195.69843319887877
0.00019998772705352857,203.9651284667377
0.0002078383818579757,212.58072488889036
0.00021599721947827182,221.559908006351
0.0002244763378413224,230.91797092184515
0.0002332883097864157,240.67084667432985
0.00024244620170823283,250.835137711794
0.0002519635929317015,261.4281417452004
0.0002618545958474233,272.46787655220834
0.0002721338768375308,283.97310786639474
0.0002828166780230032,295.96338311013494
0.0002939188398646886,308.4590562766701
0.0003054568246515432,321.48132454640734
0.00031744774091091926,335.05226113200905
0.00032990936877709396,349.19484321195034
0.00034286018635565856,363.9329979302033
0.00035631939712285854,379.2916352831567
0.000370306958400514,395.2966890565932
0.00038484361094874304,411.9751628229251
0.0003999509097203664,429.3551712347937
0.00041565125582259895,447.4659858629733
0.00043196792973341727,466.3380532360287
0.0004489251258218605,486.0030332438826
0.0004665479882234472,506.4938749208746
0.000484862648123908,527.8448603748504
0.000503896262506515,550.0916627158886
0.0005236770544204653,573.2713981093734
0.0005442343548300266,597.4226766452573
0.0005655986461065005,622.5856610761751
0.0005878016072274912,648.8020444979335
0.0006108761607505036,676.1151350246587
0.0006348565216305217,704.5699804747788
0.0006597782479539537,734.2134659532484
0.0006856782936641739,765.0943467758747
0.0007125950633568407,797.2632074928885
0.0007405684692262436,830.7725253408821
0.0007696399902471156,865.6768251266099
0.0007998527336796708,902.0327559566144
0.000831251498989063,939.8991674496777
0.0008638828442740447,979.3370998105927
0.000897795155303332,1020.4098124231422
0.0009330387172620361,1063.18295410596
0.0009696657893145519,1107.7245736730229
0.001007730682094461,1154.1052388566825
0.0010472898382363582,1202.3981131469723
0.0010884019160690055,1252.6789821764864
0.0011311278765939214,1305.0263936688764
0.001175531073878369,1359.5215074420594
0.0012216773489967915,1416.2482158630362
0.0012696351276599736,1475.2933575679572
0.0013194755216767058,1536.7467162929477
0.0013712724343984,1600.7011735220426
0.0014251026703029975,1667.2525277390944
0.0014810460488806749,1736.4994984203363
0.0015391855229902056,1808.5440118537992
0.001599607301861487,1883.4909859001818
0.0016624009789266115,1961.4485781783735
0.0017276596646690358,2042.528141856048
0.0017954801246878305,2126.8440937054647
0.0018659629231817451,2214.5142137606526
0.001939212572065829,2305.659236801814
0.0020153376859417325,2400.4030505227565
0.002094451143151469,2498.8727496801434
0.002176670253153458,2601.1982142422676
0.002262116930469025,2707.512538842926
0.002350917875457286,2817.9514367492566
0.002443204762186487,2932.653210383245
0.0025391144336803463,3051.7590855591848
0.002638789104828933,3175.4125915042064
0.002742376573264949,3303.7599161005537
0.0028500304385181063,3436.9491817922426
0.0029619103297725525,3575.129932042824
0.0030781821425650787,3718.45376369056
0.003199018284775064,3867.073331022802
0.0033245979322709396,4021.1426054972917
0.003455107294592217,4180.81622316758
0.0035907398910610534,4346.24819687179
0.0037316968377327513,4517.5928521643345
0.0038781871456107214,4695.003257331698
0.0040304280305680515,4878.63115579917
0.00418864523543527,5068.626773758325
0.004353073364731888,5265.136582014906
0.00452395623253805,5468.304360159415
0.004701547224022131,5678.2686697237095
0.004886109671160325,5895.161782340363
0.005077917243205399,6119.110689783972
0.005277254352483535,6350.233790282354
0.005484416576121017,6588.641829774385
0.005699711094326071,6834.434116998176
0.005923457145875801,7087.694572762405
0.006155986501483508,7348.496288573443
0.006397643955748424,7616.904310629073
0.0066487878384172625,7892.973488502103
0.0069097905457156435,8176.732901717995
0.007181039092537346,8468.162733127405
0.007462935686310132,8767.217503819435
0.007755898323389004,9073.845445705485
0.00806036140886134,9387.986567272255
0.008376776400682916,9709.549182922448
0.008705612479099857,10038.375130084003
0.009047357242349292,10374.264316341765
0.00940251742967013,10716.994274292301
0.009771619672696168,11066.323502025349
0.010155211276345676,11421.971389686618
0.010553861030365234,11783.578933623838
0.010968160052731372,12150.72698510818
0.011398722666160517,12522.939962305498
0.011846187309026826,12899.673024509366
0.012311217482038896,13280.32591200476
0.012794502732078732,13664.230973062002
0.013296759674662111,14050.655924653642
0.013818733056536317,14438.800312726313
0.014361196859990781,14827.7700421493
0.014924955450518284,15216.601936147603
0.015510844769528393,15604.249171950547
0.016119733573881575,15989.580488731757
0.01675252472408214,16371.396451180377
0.017410156523040152,16748.41043770849
0.018093604107387147,17119.268406956395
0.01880388089340914,17482.55025191733
0.019542040079740527,17836.768178434173
0.02030917620904734,18180.38803493887
0.021106426791015535,18511.84222618147
0.021934973989050584,18829.535839399352
0.02279604637318978,19131.866430900667
0.023690920741826323,19417.252799517744
0.02462092401494623,19684.127981681107
0.02558743520168586,19931.05136066505
0.02659188744512693,20156.700409796988
0.027635770147361564,20359.812755937088
0.028720631177978267,20539.231693985956
0.029848079169243254,20693.896022099903
0.03101978590138095,20823.36201867015
0.03223748878149028,20927.92454355504
0.0335029934197723,21007.9205225853
0.03481817630688963,21063.149184710357
0.03618498759642746,21093.260447305795
0.037605453996581675,21098.701591549885
0.03908168177536263,21081.303557003346
0.04061585988376978,21043.082050357065
0.04221026320156896,20985.835080173136
0.04386725591048496,20911.234886222075
0.0455892949998106,20821.22688165822
0.047378933909631396,20718.487867904507
0.049238826317067365,20605.74695043139
0.05117173007114603,20484.973136003253
0.05318051128214196,20357.579872905957
0.05526814857144601,20224.117827726026
0.057437737488265785,20083.977707366732
0.0596924950997073,19935.75622443788
0.0620357647610427,19776.836427408725
0.06447102107323864,19604.019541566544
0.06700187503509585,19413.436477422485
0.06963207939763882,19200.839372252034
0.0723655342286965,18961.765363511124
0.07520629269592405,18691.74986861728
0.07815856707684081,18386.828964283573
0.08122673500479707,18044.059602664594
0.08441534596012978,17662.648423591774
0.0877291280161335,17244.76638317466
0.09117299484984914,16796.104863239256
0.09475205302806537,16325.853812010942
0.09847160957933764,15845.723971852136
0.1023371798632519,15367.907405994309
0.10635449574860109,14903.897727458987
0.11052951411260206,14462.741624767896
0.1148684256737553,14049.854800395544
0.1193776641714435,13665.77371272917
0.1240639159058831,13304.796549441979
0.12893412965257148,12954.709352825164
0.13399552696593373,12600.420764308528
0.1392556128874462,12228.062399170125
0.14472218707411338,11824.09075827298
0.15040335536380234,11384.830542745918
0.15630754179458153,10918.254105775706
0.16244350109588662,10441.549623652729
0.16882033167003618,9976.743468484032
0.17544748908334581,9543.70160871557
0.1823348000868439,9153.52285998882
0.189492477187382,8803.737194832238
0.19693113379074215,8476.971748984286
0.20466179993919872,8147.931642720871
0.21269593866686892,7797.863333645096
0.22104546299710207,7424.375336487273
0.22972275360711503,7041.706152737184
0.23874067718606454,6674.60073163092
0.2481126055137766,6343.045510867103
0.25785243528842716,6047.785293282839
0.26797460873256895,5772.176270553746
0.27849413500806414,5494.476608655639
0.28942661247167484,5204.589302182224
0.3007882518043098,4912.380038763791
0.31259590004822796,4637.232558055803
0.324867065587837,4389.155509806187
0.3376199441111335,4159.845998516103
0.35087344559027084,3934.323728115233
0.36464722232127456,3707.077227602326
0.37896169806447155,3487.313519362438
0.3938380983288488,3284.7611258982774
0.4092984818452433,3097.118356325582
0.4253657732750382,2914.783880430988
0.44206379720285277,2736.0909561400945
0.45941731346364734,2567.916343646672
0.47745205385661277,2412.2584142926444
0.4961947603002895,2263.2427637552923
0.5156732244854959,2119.5056310488108
0.5359163290848509,1984.8135594629043
0.556954090580013,1858.4134203963727
0.5788177037701272,1737.9505060007477
0.6015395880274836,1624.2035126497403
0.6251534353689703,1517.3325101780044
0.6496942604146115,1416.4759907289176
0.6751984523072497,1321.3490661714857
0.7017038286703824,1232.16334728127
0.7292496916841444,1148.0893768107517
0.7578768863625915,1069.2135898768156
0.7876278611187046,995.1981722237085
0.8185467307069019,925.8020191106667
0.850679341636415,860.7723517905289
0.8840733401525058,799.8675269915185
0.9187782428863317,742.8719273145313
0.9548455102782278,689.5765878589463
0.9923286228832539,639.7794771869268
1.0312831606721837,593.2857104266787
1.0717668854455022,549.906482679954
1.1138398264826193,509.4581141749805
1.1575643695533022,471.7651185520042
1.2030053494233226,436.660466906243
1.2502301459914542,403.98536617071056
1.299308784200415,373.5890338347386
1.3503140378698726,345.32869625887514
1.4033215376054824,319.0692789458014
1.4584098829439835,294.6828187894595
1.5156607589006013,272.04821011837447
1.575159057091621,251.05096406547455
1.6369930016117014,231.58293918742928
1.7012542798525885,213.54189107881876
1.7680381784572046,196.83140162737647
1.8374437246107238,181.36078331727444
1.9095738328780953,167.04481396503274
1.9845354578058014,153.80347476937823
2.0624397525140905,141.5616875175595
2.143402233514853,130.2490450178868
2.227542951999554,119.79959995329402
2.314986671851158,110.15163856421263
2.405863054644063,101.24745154330664
2.5003068519063225,93.03311313096157
2.598458104929248,85.45824478979311
2.7004623524206774,78.47579498516978
2.806470846309834,72.0419007976402
2.916640776023701,66.11570439197808
3.031135501567576,60.65917035236918
3.150124795755327,55.63691136999084
3.2737850959485697,51.016009798717505
3.4022997656780634,46.76586558576699
3.5358593665351745,42.85806520519093
3.6746619407366854,39.26624025859809
3.8189133047818515,35.96593306578985
3.968827354637162,32.93446920105766
4.1246263829013445,30.150832934715876
4.286541408420921,27.595559626322157
4.4548125188449825,25.250633524404556
4.629689226627261,23.09938775521629
4.811430839003257,21.12641043046612
5.000306842491082,19.317452210132732
5.196597302486189,17.659332359737544
5.400593278542364,16.139880273335855
5.612597255954967,14.74786747651413
5.8329235942862,13.472938513605902
6.06189899349756,12.305546621137958
6.29986297838068,11.236903734618956
6.547168402004727,10.258929967110205
6.804181968927091,9.364179055733757
7.071284778942991,8.545789245848384
7.348872892180382,7.797440263242541
7.637357916378006,7.113311447522285
7.937167617217536,6.488008129616082
8.248746552614573,5.91654221442693
8.572556731909314,5.394344442766451
8.909078300934132,4.9172309601164885
9.258810253973934,4.481370711071934
9.622271173675122,4.083268053959402
9.999999999999984,3.7198201826217834
