k [1/Mpc],P(k) [Mpc^3]
0.0001,239.8947673143715
0.00010392556829367125,250.02657291470493
0.00010800523745162529,260.5857542854906
0.00011224505680853065,271.5902736271552
0.00011665131316981963,283.0588369271778
0.00012123054013376525,295.0109300154909
0.00012598952777950273,307.4668501471549
0.00013093533273536104,320.44773985236566
0.00013607528864243335,333.9756078298523
0.00014141701702890234,348.07335273071044
0.00014696843861124463,362.7648190241518
0.00015273778503907136,378.07484042059554
0.00015873361110102093,394.02927914629527
0.00016496480740980205,410.6550608012286
0.0001714406135851971,427.9802070377257
0.00017817063195457305,446.0338890736198
0.00018516484179121546,464.8464473832616
0.000192433614111598,484.4494367892497
0.00019998772705352857,504.87569365763596
0.0002078383818579757,526.1593674685915
0.00021599721947827182,548.3359864344277
0.0002244763378413224,571.4425033685234
0.0002332883097864157,595.5173417897279
0.00024244620170823283,620.6004648280784
0.0002519635929317015,646.7333868624962
0.0002618545958474233,673.9592530016969
0.0002721338768375308,702.3228891701976
0.0002828166780230032,731.8708061636034
0.0002939188398646886,762.6513281327719
0.0003054568246515432,794.7146645963664
0.00031744774091091926,828.1129797383952
0.00032990936877709396,862.9004267010164
0.00034286018635565856,899.133076156364
0.00035631939712285854,936.8690926180831
0.000370306958400514,976.1688131085376
0.00038484361094874304,1017.0948038668331
0.0003999509097203664,1059.7119495542697
0.00041565125582259895,1104.0873603177718
0.00043196792973341727,1150.2905256996767
0.0004489251258218605,1198.3934226415788
0.0004665479882234472,1248.4705322931159
0.000484862648123908,1300.5989742647978
0.000503896262506515,1354.8583820885954
0.0005236770544204653,1411.3310033816513
0.0005442343548300266,1470.1018678255427
0.0005655986461065005,1531.25872045653
0.0005878016072274912,1594.892204017019
0.0006108761607505036,1661.0957464174915
0.0006348565216305217,1729.9655478473876
0.0006597782479539537,1801.60079996035
0.0006856782936641739,1876.1033834936477
0.0007125950633568407,1953.5781176620892
0.0007405684692262436,2034.132770574342
0.0007696399902471156,2117.8778906854805
0.0007998527336796708,2204.9270676719484
0.000831251498989063,2295.396359505813
0.0008638828442740447,2389.404439007233
0.000897795155303332,2487.0727351617907
0.0009330387172620361,2588.524809348261
0.0009696657893145519,2693.8868594804308
0.001007730682094461,2803.2872194592605
0.0010472898382363582,2916.8561653034662
0.0010884019160690055,3034.7261717317306
0.0011311278765939214,3157.030693397233
0.001175531073878369,3283.9047308787267
0.0012216773489967915,3415.4846152525956
0.0012696351276599736,3551.907399183706
0.0013194755216767058,3693.311197038742
0.0013712724343984,3839.833544198151
0.0014251026703029975,3991.611590902704
0.0014810460488806749,4148.782097153871
0.0015391855229902056,4311.47996069384
0.001599607301861487,4479.838944127116
0.0016624009789266115,4653.9901091411
0.0017276596646690358,4834.06124350441
0.0017954801246878305,5020.177183593201
0.0018659629231817451,5212.457545144509
0.001939212572065829,5411.017374019312
0.0020153376859417325,5615.9655629669005
0.002094451143151469,5827.40308699215
0.002176670253153458,6045.424069166115
0.002262116930469025,6270.11316087427
0.002350917875457286,6501.545565208183
0.002443204762186487,6739.785624575689
0.0025391144336803463,6984.883100472286
0.002638789104828933,7236.875159863644
0.002742376573264949,7495.782748614761
0.0028500304385181063,7761.609627026854
0.0029619103297725525,8034.342326746224
0.0030781821425650787,8313.943744010905
0.003199018284775064,8600.355948841441
0.0033245979322709396,8893.49607661952
0.003455107294592217,9193.252727084473
0.0035907398910610534,9499.488836679175
0.0037316968377327513,9812.032739748645
0.0038781871456107214,10130.680662673212
0.0040304280305680515,10455.188942622795
0.00418864523543527,10785.25827133881
0.004353073364731888,11120.551270394559
0.00452395623253805,11460.710539817126
0.004701547224022131,11805.35571147877
0.004886109671160325,12154.03879180986
0.005077917243205399,12506.146352454414
0.005277254352483535,12860.980688310863
0.005484416576121017,13217.813194728144
0.005699711094326071,13575.893662754053
0.005923457145875801,13934.41887188774
0.006155986501483508,14292.513792694712
0.006397643955748424,14649.241971320242
0.0066487878384172625,15003.561212449138
0.0069097905457156435,15354.266296225596
0.007181039092537346,15700.07061135236
0.007462935686310132,16039.548303201967
0.007755898323389004,16371.157662363405
0.00806036140886134,16693.265913685707
0.008376776400682916,17004.084269527335
0.008705612479099857,17301.74559832067
0.009047357242349292,17584.23278345989
0.00940251742967013,17849.375113710583
0.009771619672696168,18094.930541093563
0.010155211276345676,18318.42735528553
0.010553861030365234,18517.313599229594
0.010968160052731372,18688.923077775788
0.011398722666160517,18830.395969544534
0.011846187309026826,18938.894954843843
0.012311217482038896,19011.383620495915
0.012794502732078732,19044.795724300093
0.013296759674662111,19036.11945545451
0.013818733056536317,18982.16287836492
0.014361196859990781,18879.977083679853
0.014924955450518284,18726.609779143757
0.015510844769528393,18519.21979141614
0.016119733573881575,18255.432001938363
0.01675252472408214,17932.885093663117
0.017410156523040152,17549.868797802876
0.018093604107387147,17105.17480432505
0.01880388089340914,16597.988061848348
0.019542040079740527,16028.664805499013
0.02030917620904734,15398.070857694482
0.021106426791015535,14708.260310105792
0.021934973989050584,13962.563604546918
0.02279604637318978,13164.952682600466
0.023690920741826323,12321.303327662052
0.02462092401494623,11438.696943055234
0.02558743520168586,10525.660251157415
0.02659188744512693,9592.242152729887
0.027635770147361564,8648.20481414237
0.028720631177978267,7705.03136657007
0.029848079169243254,6776.399901415019
0.03101978590138095,5877.188915707268
0.03223748878149028,5021.1537012395875
0.0335029934197723,4216.8075338966655
0.03481817630688963,3472.097180009904
0.03618498759642746,2797.3493511903357
0.037605453996581675,2202.7502423695505
0.03908168177536263,1693.5589676864581
0.04061585988376978,1269.9832972937545
0.04221026320156896,928.4151021976602
0.04386725591048496,662.9362080136568
0.0455892949998106,464.4625171083079
0.047378933909631396,322.92563690171
0.049238826317067365,227.15823093752147
0.05117173007114603,167.0002363068682
0.05318051128214196,133.7643237384467
0.05526814857144601,121.65155530221854
0.057437737488265785,127.32670158996703
0.0596924950997073,150.644030040446
0.0620357647610427,193.0025346785558
0.06447102107323864,255.68970697456749
0.06700187503509585,337.868965220312
0.06963207939763882,434.8098805894288
0.0723655342286965,536.5797033051997
0.07520629269592405,628.5882496354319
0.07815856707684081,693.3639283518586
0.08122673500479707,714.6367181584558
0.08441534596012978,682.6967595629685
0.0877291280161335,599.0160495344523
0.09117299484984914,477.5364669436911
0.09475205302806537,341.17013252094057
0.09847160957933764,214.64989224069487
0.1023371798632519,116.60442335906919
0.10635449574860109,54.25007597665252
0.11052951411260206,22.929948736166452
0.1148684256737553,11.781487249924801
0.1193776641714435,12.034001844945397
0.1240639159058831,23.420670615857297
0.12893412965257148,51.96973456395792
0.13399552696593373,99.69110684892715
0.1392556128874462,154.91440344386388
0.14472218707411338,193.49249304527544
0.15040335536380234,192.89499706200706
0.15630754179458153,150.52595410375574
0.16244350109588662,89.05294597962487
0.16882033167003618,38.503867090304595
0.17544748908334581,12.698859890489404
0.1823348000868439,5.591735962489571
0.189492477187382,8.736231594759094
0.19693113379074215,24.38132124772191
0.20466179993919872,52.802798805910605
0.21269593866686892,75.51194709355838
0.22104546299710207,70.18750884529314
0.22972275360711503,41.39585989812035
0.23874067718606454,15.479515332774803
0.2481126055137766,5.475465377478016
0.25785243528842716,6.421069783555934
0.26797460873256895,17.05525584511098
0.27849413500806414,32.129498785781344
0.28942661247167484,33.07506730210801
0.3007882518043098,18.192052723420595
0.31259590004822796,6.5764188441580345
0.324867065587837,4.780305527082574
0.3376199441111335,10.424143542746595
0.35087344559027084,17.70338492597917
0.36464722232127456,14.432814859508646
0.37896169806447155,6.35633696363857
0.3938380983288488,4.083303221184501
0.4092984818452433,7.34783099885968
0.4253657732750382,10.194278046387112
0.44206379720285277,6.545034036797699
0.45941731346364734,3.5283530584123692
0.47745205385661277,4.691407789342969
0.4961947603002895,6.270700357475981
0.5156732244854959,4.152618350414549
0.5359163290848509,3.055905710615008
0.556954090580013,3.505703246168982
0.5788177037701272,3.339339080954485
0.6015395880274836,3.023927025544194
0.6251534353689703,2.759856836134939
0.6496942604146115,2.5312217826421386
0.6751984523072497,2.3247991848594505
0.7017038286703824,2.1307647033729316
0.7292496916841444,1.9420774070659024
0.7578768863625915,1.7571512495986679
0.7876278611187046,1.5816599154959474
0.8185467307069019,1.4202675214103606
0.850679341636415,1.2757689265011336
0.8840733401525058,1.1495038573130267
0.9187782428863317,1.041584810152103
0.9548455102782278,0.9491916178151869
0.9923286228832539,0.8684774558184708
1.0312831606721837,0.7964585723403776
1.0717668854455022,0.7308401653785691
1.1138398264826193,0.6698705328896812
1.1575643695533022,0.6125318136365452
1.2030053494233226,0.558908051299024
1.2502301459914542,0.5091629215664408
1.299308784200415,0.46334940543662834
1.3503140378698726,0.42143115166450384
1.4033215376054824,0.38329668162599423
1.4584098829439835,0.3486791791960542
1.5156607589006013,0.31722610998239265
1.575159057091621,0.2886214208880428
1.6369930016117014,0.26258486360839167
1.7012542798525885,0.23886750738688292
1.7680381784572046,0.21725118488059142
1.8374437246107238,0.19755363881368496
1.9095738328780953,0.17961126195876453
1.9845354578058014,0.16327345893844142
2.0624397525140905,0.14840173151537642
2.143402233514853,0.13486877813407291
2.227542951999554,0.1225566292707304
2.314986671851158,0.111356150651027
2.405863054644063,0.10116782762182772
2.5003068519063225,0.09190100213056271
2.598458104929248,0.08347308671313299
2.7004623524206774,0.07580889090375907
2.806470846309834,0.06884014078258256
2.916640776023701,0.06250464952375981
3.031135501567576,0.05674569212951213
3.150124795755327,0.0515115360196741
3.2737850959485697,0.04675501035504238
3.4022997656780634,0.04243307144572619
3.5358593665351745,0.03850643753228032
3.6746619407366854,0.03493933379654248
3.8189133047818515,0.031699188820786824
3.968827354637162,0.028756350768876785
4.1246263829013445,0.026083835389417855
4.286541408420921,0.023657132854570415
4.4548125188449825,0.0214539444560168
4.629689226627261,0.019453958672320578
4.811430839003257,0.01763867786340607
5.000306842491082,0.0159912597581045
5.196597302486189,0.014496358098406605
5.400593278542364,0.01313998135949224
5.612597255954967,0.01190940606425221
5.8329235942862,0.010793067051373912
6.06189899349756,0.009780452960988995
6.29986297838068,0.008862011771463675
6.547168402004727,0.008029070895640358
6.804181968927091,0.007273752374361323
7.071284778942991,0.006588895478653527
7.348872892180382,0.005967992236527653
7.637357916378006,0.005405128748182261
7.937167617217536,0.004894925963780847
8.248746552614573,0.004432483528811811
8.572556731909314,0.004013353414336566
8.909078300934132,0.0036335011746520818
9.258810253973934,0.003289267414503079
9.622271173675122,0.0029773347655304293
9.999999999999984,0.0026947252440435946
