k [1/Mpc],P(k) [Mpc^3]
0.0001,316.9211853870725
0.00010392556829367125,329.36096211790647
0.00010800523745162529,342.28891906465844
0.00011224505680853065,355.7241960495768
0.00011665131316981963,369.68669029290265
0.00012123054013376525,384.1970887726363
0.00012598952777950273,399.2768876753287
0.00013093533273536104,414.94840535644283
0.00013607528864243335,431.234824663003
0.00014141701702890234,448.1602442586063
0.00014696843861124463,465.7497255279157
0.00015273778503907136,484.02931216825044
0.00015873361110102093,503.0260376452104
0.00016496480740980205,522.7679703197905
0.0001714406135851971,543.2842800288562
0.00017817063195457305,564.6053010846422
0.00018516484179121546,586.7625590175056
0.000192433614111598,609.7888063614837
0.00019998772705352857,633.7180692450722
0.0002078383818579757,658.5856981199945
0.00021599721947827182,684.4283985534206
0.0002244763378413224,711.2842966465129
0.0002332883097864157,739.1929977746543
0.00024244620170823283,768.1956398888922
0.0002519635929317015,798.3349612118741
0.0002618545958474233,829.655388342941
0.0002721338768375308,862.2030937086464
0.0002828166780230032,896.0260181619213
0.0002939188398646886,931.1738754005529
0.0003054568246515432,967.698284318638
0.00031744774091091926,1005.6528807502048
0.00032990936877709396,1045.0933970583364
0.00034286018635565856,1086.0777174531058
0.00035631939712285854,1128.6659437944293
0.000370306958400514,1172.9204898154421
0.00038484361094874304,1218.9061242385676
0.0003999509097203664,1266.690022913757
0.00041565125582259895,1316.341927202521
0.00043196792973341727,1367.9342652547693
0.0004489251258218605,1421.5422456976423
0.0004665479882234472,1477.2439209268546
0.000484862648123908,1535.1202373874885
0.000503896262506515,1595.2551982389668
0.0005236770544204653,1657.7358995657796
0.0005442343548300266,1722.652642849332
0.0005655986461065005,1790.0991330482996
0.0005878016072274912,1860.1726410850574
0.0006108761607505036,1932.9741033018677
0.0006348565216305217,2008.6080857363722
0.0006597782479539537,2087.182823405222
0.0006856782936641739,2168.8105479218007
0.0007125950633568407,2253.6077109281887
0.0007405684692262436,2341.695102676355
0.0007696399902471156,2433.197828874899
0.0007998527336796708,2528.245242564478
0.000831251498989063,2626.971337783092
0.0008638828442740447,2729.5148452847184
0.000897795155303332,2836.019399604379
0.0009330387172620361,2946.6337256568263
0.0009696657893145519,3061.511632347784
0.001007730682094461,3180.8123149003977
0.0010472898382363582,3304.7004558729686
0.0010884019160690055,3433.346345327891
0.0011311278765939214,3566.9260928145654
0.001175531073878369,3705.6211861567367
0.0012216773489967915,3849.6189671183593
0.0012696351276599736,3999.112961946446
0.0013194755216767058,4154.3029069837885
0.0013712724343984,4315.395064830966
0.0014251026703029975,4482.60180724902
0.0014810460488806749,4656.141874132608
0.0015391855229902056,4836.240697349801
0.001599607301861487,5023.129861778763
0.0016624009789266115,5217.047829312037
0.0017276596646690358,5418.239673353323
0.0017954801246878305,5626.957020649017
0.0018659629231817451,5843.458540943755
0.001939212572065829,6068.008819162752
0.0020153376859417325,6300.879145668603
0.002094451143151469,6542.3475693014825
0.002176670253153458,6792.698386751993
0.002262116930469025,7052.22284037726
0.002350917875457286,7321.217597716244
0.002443204762186487,7599.985127559409
0.0025391144336803463,7888.83398906276
0.002638789104828933,8188.077130522617
0.002742376573264949,8498.033248807926
0.0028500304385181063,8819.02553618271
0.0029619103297725525,9151.381204247708
0.0030781821425650787,9495.432074420998
0.003199018284775064,9851.511428195903
0.0033245979322709396,10219.955503016878
0.003455107294592217,10601.102347925096
0.0035907398910610534,10995.289764393221
0.0037316968377327513,11402.856971638988
0.0038781871456107214,11824.140353180572
0.0040304280305680515,12259.474066112149
0.00418864523543527,12709.189560461731
0.004353073364731888,13173.610684069685
0.00452395623253805,13653.056680434845
0.004701547224022131,14147.837054010364
0.004886109671160325,14658.250029269291
0.005077917243205399,15184.583740009046
0.005277254352483535,15727.106908137617
0.005484416576121017,16286.072926768176
0.005699711094326071,16861.714817655244
0.005923457145875801,17454.239195362916
0.006155986501483508,18063.83042230899
0.006397643955748424,18690.633423228286
0.0066487878384172625,19334.757704266358
0.0069097905457156435,19996.28176980467
0.007181039092537346,20675.24819544507
0.007462935686310132,21371.661342865096
0.007755898323389004,22085.436420391346
0.00806036140886134,22816.396999210756
0.008376776400682916,23564.309383430904
0.008705612479099857,24328.87946260475
0.009047357242349292,25109.750093401613
0.00940251742967013,25906.48243042843
0.009771619672696168,26718.54426337848
0.010155211276345676,27545.31559046901
0.010553861030365234,28386.01931408847
0.010968160052731372,29239.74906602092
0.011398722666160517,30105.47116193484
0.011846187309026826,30981.983546373303
0.012311217482038896,31867.954846888573
0.012794502732078732,32761.863248973186
0.013296759674662111,33662.00259412495
0.013818733056536317,34566.50265471976
0.014361196859990781,35473.249362703194
0.014924955450518284,36379.950693471685
0.015510844769528393,37284.070983006925
0.016119733573881575,38182.8009446615
0.01675252472408214,39073.14008940071
0.017410156523040152,39951.78446504623
0.018093604107387147,40815.2059449732
0.01880388089340914,41659.633496354836
0.019542040079740527,42480.96937879331
0.02030917620904734,43274.937733328225
0.021106426791015535,44036.98350227805
0.021934973989050584,44762.33440123656
0.02279604637318978,45446.06526113791
0.023690920741826323,46082.97225116021
0.02462092401494623,46667.77570613522
0.02558743520168586,47195.21703651032
0.02659188744512693,47660.10959361649
0.027635770147361564,48057.29122163791
0.028720631177978267,48381.20017004991
0.029848079169243254,48626.296012545165
0.03101978590138095,48788.48972452603
0.03223748878149028,48866.17321950212
0.0335029934197723,48858.102651884474
0.03481817630688963,48760.32626479434
0.03618498759642746,48567.46468337113
0.037605453996581675,48275.99193390516
0.03908168177536263,47886.8703539521
0.04061585988376978,47402.49273000084
0.04221026320156896,46828.143037047885
0.04386725591048496,46171.8084449754
0.0455892949998106,45441.43517921153
0.047378933909631396,44643.37446878824
0.049238826317067365,43783.6432905181
0.05117173007114603,42871.17524941738
0.05318051128214196,41917.99043339306
0.05526814857144601,40936.696376182466
0.057437737488265785,39941.46728489945
0.0596924950997073,38945.94845722464
0.0620357647610427,37963.301681690406
0.06447102107323864,37005.2053114411
0.06700187503509585,36081.28075339605
0.06963207939763882,35198.76275163276
0.0723655342286965,34362.11723536133
0.07520629269592405,33572.17335924742
0.07815856707684081,32826.448592304376
0.08122673500479707,32118.426098099793
0.08441534596012978,31437.53761971496
0.0877291280161335,30769.31002240172
0.09117299484984914,30095.588001021664
0.09475205302806537,29395.786706246934
0.09847160957933764,28648.98141521026
0.1023371798632519,27836.61919478567
0.10635449574860109,26945.35768239815
0.11052951411260206,25970.046111934364
0.1148684256737553,24915.278431473384
0.1193776641714435,23796.232603835637
0.1240639159058831,22638.451920042222
0.12893412965257148,21476.50601075449
0.13399552696593373,20350.080120700302
0.1392556128874462,19299.554111043864
0.14472218707411338,18358.452929470473
0.15040335536380234,17547.346305495816
0.15630754179458153,16867.66787007561
0.16244350109588662,16303.639996439626
0.16882033167003618,15818.070945384885
0.17544748908334581,15355.041617644943
0.1823348000868439,14855.350155190008
0.189492477187382,14269.692039925283
0.19693113379074215,13574.14453145683
0.20466179993919872,12781.46959306972
0.21269593866686892,11942.396832727583
0.22104546299710207,11131.499840175082
0.22972275360711503,10420.59565120293
0.23874067718606454,9852.073610447125
0.2481126055137766,9423.76544028569
0.25785243528842716,9086.194490755135
0.26797460873256895,8756.80408052957
0.27849413500806414,8357.10892385161
0.28942661247167484,7855.178452962751
0.3007882518043098,7286.196444489082
0.31259590004822796,6735.679457548917
0.324867065587837,6286.4068707079105
0.3376199441111335,5964.238366271292
0.35087344559027084,5719.130998770253
0.36464722232127456,5458.207908490594
0.37896169806447155,5118.851901481919
0.3938380983288488,4724.186772241605
0.4092984818452433,4361.820802252288
0.4253657732750382,4094.862893113411
0.44206379720285277,3898.6010215159217
0.45941731346364734,3689.531880798538
0.47745205385661277,3425.060522815827
0.4961947603002895,3153.718351208912
0.5156732244854959,2942.578742712503
0.5359163290848509,2782.61743068864
0.556954090580013,2609.7287502345753
0.5788177037701272,2408.4143316940394
0.6015395880274836,2229.7471987644544
0.6251534353689703,2093.7611643066834
0.6496942604146115,1957.6610208072714
0.6751984523072497,1806.3369446400875
0.7017038286703824,1676.2528723360983
0.7292496916841444,1567.751062922279
0.7578768863625915,1452.2597637342485
0.7876278611187046,1342.6638928639973
0.8185467307069019,1250.356495315717
0.850679341636415,1158.3472927645644
0.8840733401525058,1071.9106315084211
0.9187782428863317,992.222811235532
0.9548455102782278,918.4946433823033
0.9923286228832539,850.0545444992176
1.0312831606721837,786.3314707300866
1.0717668854455022,726.8790653633023
1.1138398264826193,671.4639621474795
1.1575643695533022,619.8969938737242
1.2030053494233226,571.9852838058877
1.2502301459914542,527.5345563947996
1.299308784200415,486.35101763630837
1.3503140378698726,448.2305908479691
1.4033215376054824,412.95463983053355
1.4584098829439835,380.31739840813555
1.5156607589006013,350.12797877454204
1.575159057091621,322.20925643012
1.6369930016117014,296.3970395961553
1.7012542798525885,272.54249197085073
1.7680381784572046,250.50956502947835
1.8374437246107238,230.17044246036204
1.9095738328780953,211.4050519992275
1.9845354578058014,194.10072597180172
2.0624397525140905,178.15173847694786
2.143402233514853,163.45830154742836
2.227542951999554,149.92699417166253
2.314986671851158,137.47082508140323
2.405863054644063,126.00884060311299
2.5003068519063225,115.46575019680293
2.598458104929248,105.77159752090974
2.7004623524206774,96.86146514496821
2.806470846309834,88.67506842557879
2.916640776023701,81.1564419817917
3.031135501567576,74.25366138996127
3.150124795755327,67.91857911639536
3.2737850959485697,62.10654387928769
3.4022997656780634,56.77616528604507
3.5358593665351745,51.88914558476528
3.6746619407366854,47.41006996013223
3.8189133047818515,43.30620537341412
3.968827354637162,39.54731252186783
4.1246263829013445,36.10547570654228
4.286541408420921,32.95493223194414
4.4548125188449825,30.071911673256785
4.629689226627261,27.43449186529919
4.811430839003257,25.022464422209488
5.000306842491082,22.817204045245482
5.196597302486189,20.801533087767872
5.400593278542364,18.959638113239688
5.612597255954967,17.276976189106744
5.8329235942862,15.740177548589047
6.06189899349756,14.336955290344127
6.29986297838068,13.056032364537398
6.547168402004727,11.887072854726734
6.804181968927091,10.820581833102187
7.071284778942991,9.847836953921307
7.348872892180382,8.960829112043287
7.637357916378006,8.152205731452263
7.937167617217536,7.4151795360067
8.248746552614573,6.743494418901898
8.572556731909314,6.13143544939509
8.909078300934132,5.573784566438566
9.258810253973934,5.065777270878351
9.622271173675122,4.603076262375245
9.999999999999984,4.1818314365182845
