k [1/Mpc],P(k) [Mpc^3]
0.0001,119.66012952095014
0.00010392556829367125,124.71666819760635
0.00010800523745162529,129.98684357606064
0.00011224505680853065,135.47967472163808
0.00011665131316981963,141.2045640870306
0.00012123054013376525,147.17131474752668
0.00012598952777950273,153.39014293211707
0.00013093533273536104,159.87168822546423
0.00013607528864243335,166.62703524501524
0.00014141701702890234,173.66773913437103
0.00014696843861124463,181.00584973011811
0.00015273778503907136,188.65392544866882
0.00015873361110102093,196.6250426135563
0.00016496480740980205,204.93281965409582
0.0001714406135851971,213.5914500991005
0.00017817063195457305,222.61573466918145
0.00018516484179121546,232.02109952317065
0.000192433614111598,241.82361833760686
0.00019998772705352857,252.04003899509644
0.0002078383818579757,262.6878123121357
0.00021599721947827182,273.78511321320565
0.0002244763378413224,285.3508760830769
0.0002332883097864157,297.4048279627927
0.00024244620170823283,309.9675200401946
0.0002519635929317015,323.06036542111855
0.0002618545958474233,336.7056857444861
0.0002721338768375308,350.9267460308079
0.0002828166780230032,365.74777580531
0.0002939188398646886,381.19398303688195
0.0003054568246515432,397.2916207318727
0.00031744774091091926,414.0680460867366
0.00032990936877709396,431.5517672699823
0.00034286018635565856,449.772480838106
0.00035631939712285854,468.7611140235747
0.000370306958400514,488.54987945844084
0.00038484361094874304,509.1723093577814
0.0003999509097203664,530.6632939289589
0.00041565125582259895,553.0591649356335
0.00043196792973341727,576.3977649212059
0.0004489251258218605,600.7185058104088
0.0004665479882234472,626.062415472328
0.000484862648123908,652.4721793820119
0.000503896262506515,679.992230725164
0.0005236770544204653,708.6687878190606
0.0005442343548300266,738.5499246784452
0.0005655986461065005,769.6856794112789
0.0005878016072274912,802.1281489352936
0.0006108761607505036,835.9315578557691
0.0006348565216305217,871.1522696740335
0.0006597782479539537,907.8488305732618
0.0006856782936641739,946.0821394981887
0.0007125950633568407,985.9155753585977
0.0007405684692262436,1027.4150801686621
0.0007696399902471156,1070.6491809801446
0.0007998527336796708,1115.6889920583324
0.000831251498989063,1162.6084211742175
0.0008638828442740447,1211.4842469407274
0.000897795155303332,1262.3962289314914
0.0009330387172620361,1315.4272281042834
0.0009696657893145519,1370.6632425732973
0.001007730682094461,1428.1935822636324
0.0010472898382363582,1488.1109555912637
0.0010884019160690055,1550.5115659198018
0.0011311278765939214,1615.4952508890117
0.001175531073878369,1683.165327070875
0.0012216773489967915,1753.6288491867624
0.0012696351276599736,1826.9968071323758
0.0013194755216767058,1903.3841862895026
0.0013712724343984,1982.9101619461264
0.0014251026703029975,2065.6979587350124
0.0014810460488806749,2151.875019611889
0.0015391855229902056,2241.5732073776926
0.001599607301861487,2334.9286081634123
0.0016624009789266115,2432.0819197786777
0.0017276596646690358,2533.17838370714
0.0017954801246878305,2638.367812620614
0.0018659629231817451,2747.804875471558
0.001939212572065829,2861.648624231547
0.0020153376859417325,2980.0629190490486
0.002094451143151469,3103.2165106231514
0.002176670253153458,3231.282855339799
0.002262116930469025,3364.440503179737
0.002350917875457286,3502.8724304872508
0.002443204762186487,3646.766270641022
0.0025391144336803463,3796.3145064083524
0.002638789104828933,3951.7137045625827
0.002742376573264949,4113.165218096898
0.0028500304385181063,4280.874632001983
0.0029619103297725525,4455.051577230717
0.0030781821425650787,4635.910061706566
0.003199018284775064,4823.666975309007
0.0033245979322709396,5018.542849709141
0.003455107294592217,5220.7613308821865
0.0035907398910610534,5430.548190285202
0.0037316968377327513,5648.132163416931
0.0038781871456107214,5873.7428625690045
0.0040304280305680515,6107.611075672547
0.00418864523543527,6349.968525761241
0.004353073364731888,6601.0454142047165
0.00452395623253805,6861.071887751579
0.004701547224022131,7130.275432652902
0.004886109671160325,7408.880040116079
0.005077917243205399,7697.106741679249
0.005277254352483535,7995.168811196627
0.005484416576121017,8303.273718076158
0.005699711094326071,8621.620449409473
0.005923457145875801,8950.396277116617
0.006155986501483508,9289.7787110622
0.006397643955748424,9639.92648094848
0.0066487878384172625,10000.98133121001
0.0069097905457156435,10373.07005580823
0.007181039092537346,10756.301709396314
0.007462935686310132,11150.766150433688
0.007755898323389004,11556.50710227679
0.00806036140886134,11973.520177674607
0.008376776400682916,12401.770270789213
0.008705612479099857,12841.18945466884
0.009047357242349292,13291.67512617789
0.00940251742967013,13753.079601846928
0.009771619672696168,14225.203267728537
0.010155211276345676,14707.796819284162
0.010553861030365234,15200.523450014609
0.010968160052731372,15702.972552766925
0.011398722666160517,16214.659735783622
0.011846187309026826,16735.00361641688
0.012311217482038896,17263.34561752739
0.012794502732078732,17798.915693805764
0.013296759674662111,18340.834099473177
0.013818733056536317,18888.12094692427
0.014361196859990781,19439.651118432914
0.014924955450518284,19994.18845877004
0.015510844769528393,20550.3480615172
0.016119733573881575,21106.57764829581
0.01675252472408214,21661.200956694513
0.017410156523040152,22212.353662848807
0.018093604107387147,22758.02501240973
0.01880388089340914,23296.045383698445
0.019542040079740527,23824.037160399355
0.02030917620904734,24339.49547606875
0.021106426791015535,24839.729555101992
0.021934973989050584,25321.89528869233
0.02279604637318978,25783.029742793882
0.023690920741826323,26219.978110106647
0.02462092401494623,26629.506915952756
0.02558743520168586,27008.35859791115
0.02659188744512693,27353.280614739342
0.027635770147361564,27660.998474340155
0.028720631177978267,27927.970876957243
0.029848079169243254,28150.629800105296
0.03101978590138095,28326.21069089441
0.03223748878149028,28453.363842155388
0.0335029934197723,28530.939015584616
0.03481817630688963,28556.18924023142
0.03618498759642746,28525.499772369178
0.037605453996581675,28436.308404234485
0.03908168177536263,28288.6775196419
0.04061585988376978,28083.52062177746
0.04221026320156896,27823.48253647151
0.04386725591048496,27512.852335273987
0.0455892949998106,27155.946969995268
0.047378933909631396,26756.179911672218
0.049238826317067365,26316.805501799303
0.05117173007114603,25842.875995408707
0.05318051128214196,25341.36996179591
0.05526814857144601,24819.704554250977
0.057437737488265785,24286.336677707925
0.0596924950997073,23749.499496464206
0.0620357647610427,23217.226252301913
0.06447102107323864,22696.733388624845
0.06700187503509585,22194.055293070436
0.06963207939763882,21713.823203090793
0.0723655342286965,21259.00798633036
0.07520629269592405,20830.357209997397
0.07815856707684081,20426.565038328503
0.08122673500479707,20043.79152649864
0.08441534596012978,19675.615381032516
0.0877291280161335,19313.08894141409
0.09117299484984914,18944.842382607712
0.09475205302806537,18557.84023707175
0.09847160957933764,18138.681306004124
0.1023371798632519,17675.316274739514
0.10635449574860109,17158.876120899877
0.11052951411260206,16585.622917388315
0.1148684256737553,15958.01951850452
0.1193776641714435,15285.358643549234
0.1240639159058831,14583.720540040858
0.12893412965257148,13875.205269471853
0.13399552696593373,13185.484511768133
0.1392556128874462,12540.97856261689
0.14472218707411338,11963.945087747074
0.15040335536380234,11468.42974586092
0.15630754179458153,11056.094266796843
0.16244350109588662,10717.30152613708
0.16882033167003618,10428.181279616718
0.17544748908334581,10152.20156039121
0.1823348000868439,9850.228549880463
0.189492477187382,9489.256706088525
0.19693113379074215,9052.82749030724
0.20466179993919872,8548.831307458659
0.21269593866686892,8010.7215292767605
0.22104546299710207,7488.382190740371
0.22972275360711503,7030.416302313362
0.23874067718606454,6666.077010412232
0.2481126055137766,6394.716964806853
0.25785243528842716,6183.481537625058
0.26797460873256895,5976.554078071225
0.27849413500806414,5720.255977454468
0.28942661247167484,5392.245259090925
0.3007882518043098,5016.128325134028
0.31259590004822796,4650.539679288532
0.324867065587837,4352.899191541409
0.3376199441111335,4141.763495864649
0.35087344559027084,3983.038725386052
0.36464722232127456,3812.3146631665713
0.37896169806447155,3585.6294853275485
0.3938380983288488,3318.7465397598858
0.4092984818452433,3073.0457533935846
0.4253657732750382,2893.308564357737
0.44206379720285277,2762.6022451046015
0.45941731346364734,2622.0140598824714
0.47745205385661277,2441.103421915005
0.4961947603002895,2254.2133383509104
0.5156732244854959,2109.3778625047307
0.5359163290848509,2000.4788881649683
0.556954090580013,1881.6117733162125
0.5788177037701272,1741.4861916931884
0.6015395880274836,1616.957629889192
0.6251534353689703,1522.7350126841736
0.6496942604146115,1427.8706535748054
0.6751984523072497,1321.3087754068072
0.7017038286703824,1229.7002757878477
0.7292496916841444,1153.4294075761218
0.7578768863625915,1071.5499036360893
0.7876278611187046,993.5496784948145
0.8185467307069019,927.9195232855429
0.850679341636415,862.1233868901367
0.8840733401525058,800.098391661078
0.9187782428863317,742.7594857477486
0.9548455102782278,689.5564228924931
0.9923286228832539,640.0208972381263
1.0312831606721837,593.7548892883001
1.0717668854455022,550.4500088737217
1.1138398264826193,509.95588900976156
1.1575643695533022,472.1539349981229
1.2030053494233226,436.9212013492447
1.2502301459914542,404.1321096685129
1.299308784200415,373.6598661975648
1.3503140378698726,345.36816138795575
1.4033215376054824,319.10773861336384
1.4584098829439835,294.73747620555116
1.5156607589006013,272.12607903355513
1.575159057091621,251.1513637470415
1.6369930016117014,231.6997526956998
1.7012542798525885,213.66830841848483
1.7680381784572046,196.96287855447378
1.8374437246107238,181.49463969607933
1.9095738328780953,167.17979662871238
1.9845354578058014,153.9393935750379
2.0624397525140905,141.69902337056476
2.143402233514853,130.38809937881416
2.227542951999554,119.94026043857654
2.314986671851158,110.2934884901114
2.405863054644063,101.38986162397276
2.5003068519063225,93.17531653965563
2.598458104929248,85.59944318113664
2.7004623524206774,78.61530260535818
2.806470846309834,72.17915098692376
2.916640776023701,66.25023396452103
3.031135501567576,60.790605828334165
3.150124795755327,55.764956863146004
3.2737850959485697,51.14042367796464
3.4022997656780634,46.88643328381125
3.5358593665351745,42.97459972537628
3.6746619407366854,39.3785841824851
3.8189133047818515,36.07395947163643
3.968827354637162,33.03808288542803
4.1246263829013445,30.24998157659278
4.286541408420921,27.690235323816808
4.4548125188449825,25.340865357673263
4.629689226627261,23.185235183975184
4.811430839003257,21.207957573526247
5.000306842491082,19.39480298052997
5.196597302486189,17.732602163764874
5.400593278542364,16.209191415599676
5.612597255954967,14.813347900018766
5.8329235942862,13.534720612749643
6.06189899349756,12.363766088565383
6.29986297838068,11.291697828411474
6.547168402004727,10.31043846856907
6.804181968927091,9.412543682915931
7.071284778942991,8.591152359470989
7.348872892180382,7.839943760131389
7.637357916378006,7.153096167836238
7.937167617217536,6.525214369993721
8.248746552614573,5.951306208915736
8.572556731909314,5.426797733865653
8.909078300934132,4.94750035244376
9.258810253973934,4.509578245959934
9.622271173675122,4.1095302966694724
9.999999999999984,3.7442489786222715
