k [1/Mpc],P(k) [Mpc^3]
0.0001,1762.326439357313
0.00010392556829367125,1831.3521527770818
0.00010800523745162529,1903.0686605021008
0.00011224505680853065,1977.579234051625
0.00011665131316981963,2054.9910332136715
0.00012123054013376525,2135.415237539407
0.00012598952777950273,2218.967065997836
0.00013093533273536104,2305.765677183785
0.00013607528864243335,2395.934531423484
0.00014141701702890234,2489.601465572802
0.00014696843861124463,2586.8988217009737
0.00015273778503907136,2687.963664645328
0.00015873361110102093,2792.937705031125
0.00016496480740980205,2901.967607037892
0.0001714406135851971,3015.205043340646
0.00017817063195457305,3132.8067119100497
0.00018516484179121546,3254.934678949494
0.000192433614111598,3381.756051701813
0.00019998772705352857,3513.443321032748
0.0002078383818579757,3650.174598603428
0.00021599721947827182,3792.1334501568167
0.0002244763378413224,3939.5093607587146
0.0002332883097864157,4092.497328173604
0.00024244620170823283,4251.2980137631275
0.0002519635929317015,4416.118160808042
0.0002618545958474233,4587.170052338643
0.0002721338768375308,4764.672138744585
0.0002828166780230032,4948.848670450366
0.0002939188398646886,5139.929464976135
0.0003054568246515432,5338.150600297714
0.00031744774091091926,5543.7534910432805
0.00032990936877709396,5756.985459369843
0.00034286018635565856,5978.099637401478
0.00035631939712285854,6207.3542107747635
0.000370306958400514,6445.013319601863
0.00038484361094874304,6691.345981599134
0.0003999509097203664,6946.626261270012
0.00041565125582259895,7211.133352793636
0.00043196792973341727,7485.149778168106
0.0004489251258218605,7768.962723282573
0.0004665479882234472,8062.863365191803
0.000484862648123908,8367.146439930766
0.000503896262506515,8682.11034122508
0.0005236770544204653,9008.053898364044
0.0005442343548300266,9345.277818028608
0.0005655986461065005,9694.084004459288
0.0005878016072274912,10054.773840916154
0.0006108761607505036,10427.64930201858
0.0006348565216305217,10813.008930404603
0.0006597782479539537,11211.148363704362
0.0006856782936641739,11622.359609389852
0.0007125950633568407,12046.926102270898
0.0007405684692262436,12485.125849516806
0.0007696399902471156,12937.227150592793
0.0007998527336796708,13403.487313451338
0.000831251498989063,13884.153439215544
0.0008638828442740447,14379.455063792057
0.000897795155303332,14889.607258178636
0.0009330387172620361,15414.808693499592
0.0009696657893145519,15955.238651754556
0.001007730682094461,16511.05728092297
0.0010472898382363582,17082.395189370738
0.0010884019160690055,17669.355611808045
0.0011311278765939214,18272.01284563477
0.001175531073878369,18890.40448234948
0.0012216773489967915,19524.535954320687
0.0012696351276599736,20174.374726548027
0.0013194755216767058,20839.84870962862
0.0013712724343984,21520.845402507603
0.0014251026703029975,22217.20347821728
0.0014810460488806749,22928.71563561337
0.0015391855229902056,23655.12372491831
0.001599607301861487,24396.115033205133
0.0016624009789266115,25151.323700988072
0.0017276596646690358,25920.324194935733
0.0017954801246878305,26702.631783665063
0.0018659629231817451,27497.699317563747
0.001939212572065829,28304.91212617152
0.0020153376859417325,29123.59070973854
0.002094451143151469,29952.98847886379
0.002176670253153458,30792.29060752298
0.002262116930469025,31640.609031386346
0.002350917875457286,32496.97155818022
0.002443204762186487,33360.33020066152
0.0025391144336803463,34229.55063521369
0.002638789104828933,35103.41061014016
0.002742376573264949,35980.61168041796
0.0028500304385181063,36859.782565127105
0.0029619103297725525,37739.47710664905
0.0030781821425650787,38618.10429129595
0.003199018284775064,39493.88266622306
0.0033245979322709396,40364.974057782114
0.003455107294592217,41229.804137999716
0.0035907398910610534,42086.93006578895
0.0037316968377327513,42934.52574217273
0.0038781871456107214,43769.81955487249
0.0040304280305680515,44589.81757864921
0.00418864523543527,45391.93475762117
0.004353073364731888,46173.951475020425
0.00452395623253805,46933.65176660537
0.004701547224022131,47668.88850022977
0.004886109671160325,48377.52402844519
0.005077917243205399,49057.14313363002
0.005277254352483535,49704.96483306285
0.005484416576121017,50318.15819170405
0.005699711094326071,50893.7781371712
0.005923457145875801,51428.84362684797
0.006155986501483508,51920.418883522216
0.006397643955748424,52365.64935483852
0.0066487878384172625,52761.74468357916
0.0069097905457156435,53105.887065245275
0.007181039092537346,53395.28650965454
0.007462935686310132,53627.20819853645
0.007755898323389004,53798.8304124304
0.00806036140886134,53907.4513657683
0.008376776400682916,53950.480906216486
0.008705612479099857,53925.46278572682
0.009047357242349292,53830.16762929465
0.00940251742967013,53662.514927779164
0.009771619672696168,53420.69233191815
0.010155211276345676,53103.18000192472
0.010553861030365234,52708.74480664056
0.010968160052731372,52236.54992254031
0.011398722666160517,51686.19315747422
0.011846187309026826,51057.72599678737
0.012311217482038896,50351.7535449836
0.012794502732078732,49569.584475641415
0.013296759674662111,48713.053355046926
0.013818733056536317,47784.823816230324
0.014361196859990781,46788.302971287085
0.014924955450518284,45727.49782152614
0.015510844769528393,44607.65972121782
0.016119733573881575,43434.51611121806
0.01675252472408214,42214.7526931838
0.017410156523040152,40956.15264781666
0.018093604107387147,39666.58606560693
0.01880388089340914,38355.198800436374
0.019542040079740527,37031.27566506547
0.02030917620904734,35704.29455090824
0.021106426791015535,34384.78087104309
0.021934973989050584,33082.37208034481
0.02279604637318978,31806.132364942427
0.023690920741826323,30564.309719711127
0.02462092401494623,29364.579537096735
0.02558743520168586,28215.733064639928
0.02659188744512693,27125.41483649264
0.027635770147361564,26095.93060016394
0.028720631177978267,25124.592908170296
0.029848079169243254,24208.4064920466
0.03101978590138095,23343.478141292562
0.03223748878149028,22525.787012593166
0.0335029934197723,21747.222754212376
0.03481817630688963,20992.790123842635
0.03618498759642746,20249.327442413432
0.037605453996581675,19510.68734079411
0.03908168177536263,18773.409611588802
0.04061585988376978,18024.59748208691
0.04221026320156896,17245.17921606515
0.04386725591048496,16425.907715674766
0.0455892949998106,15567.633909419566
0.047378933909631396,14682.902931951372
0.049238826317067365,13792.209906837514
0.05117173007114603,12916.746939224106
0.05318051128214196,12074.287094389403
0.05526814857144601,11275.841180133912
0.057437737488265785,10536.852325074164
0.0596924950997073,9875.319287700673
0.0620357647610427,9301.436398190353
0.06447102107323864,8812.248554824713
0.06700187503509585,8391.568821646822
0.06963207939763882,8012.985965240861
0.0723655342286965,7647.810436208282
0.07520629269592405,7271.091953289382
0.07815856707684081,6866.78007686439
0.08122673500479707,6434.929148150646
0.08441534596012978,5988.277228485655
0.0877291280161335,5543.099757951312
0.09117299484984914,5117.097273237717
0.09475205302806537,4732.089838569995
0.09847160957933764,4406.041969168109
0.1023371798632519,4135.116833888751
0.10635449574860109,3897.9319044260137
0.11052951411260206,3675.085219819049
0.1148684256737553,3451.500124028449
0.1193776641714435,3215.6025079627193
0.1240639159058831,2974.388596846233
0.12893412965257148,2745.7549156590135
0.13399552696593373,2539.6805782396596
0.1392556128874462,2360.7668258801887
0.14472218707411338,2202.7268939152927
0.15040335536380234,2055.4951814666306
0.15630754179458153,1910.1416806606662
0.16244350109588662,1766.5476844364807
0.16882033167003618,1631.8743907194319
0.17544748908334581,1509.5336741088481
0.1823348000868439,1399.6333145008696
0.189492477187382,1297.474855021397
0.19693113379074215,1200.372383756175
0.20466179993919872,1108.1865790610095
0.21269593866686892,1023.2568018713503
0.22104546299710207,945.3712186611581
0.22972275360711503,873.1192446941864
0.23874067718606454,805.4575716108608
0.2481126055137766,742.5616038626952
0.25785243528842716,684.5336319780876
0.26797460873256895,630.8389859411488
0.27849413500806414,580.996514089335
0.28942661247167484,534.8358405487467
0.3007882518043098,492.21458953378004
0.31259590004822796,452.80344329849146
0.324867065587837,416.37030566394293
0.3376199441111335,382.74147739905163
0.35087344559027084,351.7036427110646
0.36464722232127456,323.0616569906243
0.37896169806447155,296.64342322956963
0.3938380983288488,272.2853483535418
0.4092984818452433,249.8359005848762
0.4253657732750382,229.1611502110723
0.44206379720285277,210.12082232063972
0.45941731346364734,192.59964855477548
0.47745205385661277,176.48357886016677
0.4961947603002895,161.66636484906172
0.5156732244854959,148.04846901038556
0.5359163290848509,135.53703344405793
0.556954090580013,124.0459972965426
0.5788177037701272,113.49563912509034
0.6015395880274836,103.81214257214255
0.6251534353689703,94.92730820442878
0.6496942604146115,86.77824870329547
0.6751984523072497,79.30674574514143
0.7017038286703824,72.4589005546889
0.7292496916841444,66.18484287369749
0.7578768863625915,60.43844444923171
0.7876278611187046,55.17696046881592
0.8185467307069019,50.36087909579301
0.850679341636415,45.95376887312969
0.8840733401525058,41.922052802667935
0.9187782428863317,38.23479686913714
0.9548455102782278,34.86353675108227
0.9923286228832539,31.782113613067434
1.0312831606721837,28.966442428384315
1.0717668854455022,26.39434966546649
1.1138398264826193,24.045430996428564
1.1575643695533022,21.900914697987165
1.2030053494233226,19.943501315996446
1.2502301459914542,18.15728058610682
1.299308784200415,16.52765431910495
1.3503140378698726,15.041232540349679
1.4033215376054824,13.685737029395993
1.4584098829439835,12.449919556276656
1.5156607589006013,11.32348686912836
1.575159057091621,10.297004310542405
1.6369930016117014,9.361824246955635
1.7012542798525885,8.510023227372647
1.7680381784572046,7.734343172462208
1.8374437246107238,7.028130274053044
1.9095738328780953,6.385291379085722
1.9845354578058014,5.80025464573019
2.0624397525140905,5.267926365174138
2.143402233514853,4.783651107999667
2.227542951999554,4.343175664226441
2.314986671851158,3.942616054920143
2.405863054644063,3.5784248007082917
2.5003068519063225,3.247362322815531
2.598458104929248,2.946470983610733
2.7004623524206774,2.673051203937125
2.806470846309834,2.4246391495872963
2.916640776023701,2.1989869343530466
3.031135501567576,1.99404455579597
3.150124795755327,1.8079429160429115
3.2737850959485697,1.638978246468002
3.4022997656780634,1.4855976954556023
3.5358593665351745,1.3463860550947226
3.6746619407366854,1.220054235711984
3.8189133047818515,1.1054283479189115
3.968827354637162,1.00143962268078
4.1246263829013445,0.9071151928159681
4.286541408420921,0.8215696797959647
4.4548125188449825,0.7439974741879964
4.629689226627261,0.6736656734575223
4.811430839003257,0.6099076474994554
5.000306842491082,0.5521171609308138
5.196597302486189,0.4997429379605532
5.400593278542364,0.45228364898597206
5.612597255954967,0.4092836725354955
5.8329235942862,0.370329041829733
6.06189899349756,0.33504369615253926
6.29986297838068,0.303086078007252
6.547168402004727,0.2741462470440411
6.804181968927091,0.24794290083239773
7.071284778942991,0.22422054052522158
7.348872892180382,0.202747143784611
7.637357916378006,0.18331205030101805
7.937167617217536,0.16572381436153294
8.248746552614573,0.14980801947605493
8.572556731909314,0.13540651284141653
8.909078300934132,0.12237607152715066
9.258810253973934,0.11058698990107675
9.622271173675122,0.09992185990960198
9.999999999999984,0.09027548213104555
