k [1/Mpc],P(k) [Mpc^3]
0.0001,60.284283674893494
0.00010392556829367125,63.01336987741133
0.00010800523745162529,65.86597635012998
0.00011224505680853065,68.84768953300551
0.00011665131316981963,71.96434824838289
0.00012123054013376525,75.22205569088767
0.00012598952777950273,78.62719113413793
0.00013093533273536104,82.18642153699732
0.00013607528864243335,85.90671354206756
0.00014141701702890234,89.79534805397054
0.00014696843861124463,93.85993543771072
0.00015273778503907136,98.10843037777452
0.00015873361110102093,102.5491456421971
0.00016496480740980205,107.1907640823353
0.0001714406135851971,112.04235824850309
0.00017817063195457305,117.11341134088974
0.00018516484179121546,122.41383695688702
0.000192433614111598,127.9539953164857
0.00019998772705352857,133.74470935398196
0.0002078383818579757,139.79728703668627
0.00021599721947827182,146.1235442758564
0.0002244763378413224,152.7358266836345
0.0002332883097864157,159.6470341855629
0.00024244620170823283,166.87064332434008
0.0002519635929317015,174.4207331102799
0.0002618545958474233,182.3120130213927
0.0002721338768375308,190.55984840708612
0.0002828166780230032,199.18029159992548
0.0002939188398646886,208.1901086315362
0.0003054568246515432,217.60680859908004
0.00031744774091091926,227.4486821083943
0.00032990936877709396,237.73483957912194
0.00034286018635565856,248.48524580525708
0.00035631939712285854,259.7207451735998
0.000370306958400514,271.4630851569582
0.00038484361094874304,283.73497413870086
0.0003999509097203664,296.56012666167436
0.00041565125582259895,309.96330720238717
0.00043196792973341727,323.97037069530074
0.0004489251258218605,338.6082951500395
0.0004665479882234472,353.9052418716227
0.000484862648123908,369.89060179015485
0.000503896262506515,386.59504486637604
0.0005236770544204653,404.05057962304573
0.0005442343548300266,422.29058502096734
0.0005655986461065005,441.3498817909213
0.0005878016072274912,461.2647943786878
0.0006108761607505036,482.07320229063833
0.0006348565216305217,503.81461755828747
0.0006597782479539537,526.5302186276693
0.0006856782936641739,550.2629256003092
0.0007125950633568407,575.0574901430598
0.0007405684692262436,600.9605568242989
0.0007696399902471156,628.0207499135039
0.0007998527336796708,656.2886900426885
0.000831251498989063,685.8170539249479
0.0008638828442740447,716.6607182953165
0.000897795155303332,748.8768337208693
0.0009330387172620361,782.5249218879186
0.0009696657893145519,817.6669137566287
0.001007730682094461,854.3671782361874
0.0010472898382363582,892.6926946100725
0.0010884019160690055,932.7130765038189
0.0011311278765939214,974.5006880871872
0.001175531073878369,1018.1307309684516
0.0012216773489967915,1063.6811922739637
0.0012696351276599736,1111.2330765382364
0.0013194755216767058,1160.8704507705377
0.0013712724343984,1212.680526065486
0.0014251026703029975,1266.753788385568
0.0014810460488806749,1323.1838206994416
0.0015391855229902056,1382.0675668408664
0.001599607301861487,1443.5053770774557
0.0016624009789266115,1507.6009599227905
0.0017276596646690358,1574.461664551295
0.0017954801246878305,1644.1983688195974
0.0018659629231817451,1716.9256302421695
0.001939212572065829,1792.7616926003182
0.0020153376859417325,1871.8281192375796
0.002094451143151469,1954.2502627568306
0.002176670253153458,2040.1571083010758
0.002262116930469025,2129.6812802229965
0.002350917875457286,2222.9592167384203
0.002443204762186487,2320.130587972718
0.0025391144336803463,2421.338703895647
0.002638789104828933,2526.7303354521805
0.002742376573264949,2636.455390476096
0.0028500304385181063,2750.667282878826
0.0029619103297725525,2869.5219688805155
0.0030781821425650787,2993.1781906345814
0.003199018284775064,3121.7974659016013
0.0033245979322709396,3255.543164758914
0.003455107294592217,3394.581111771676
0.0035907398910610534,3539.07847767194
0.0037316968377327513,3689.20349059611
0.0038781871456107214,3845.125635234389
0.0040304280305680515,4007.0136693553322
0.00418864523543527,4175.036440072854
0.004353073364731888,4349.361733294985
0.00452395623253805,4530.154968085103
0.004701547224022131,4717.579903232227
0.004886109671160325,4911.7951091557115
0.005077917243205399,5112.954551593111
0.005277254352483535,5321.206993403941
0.005484416576121017,5536.6928104455465
0.005699711094326071,5759.545499822214
0.005923457145875801,5989.886074949748
0.006155986501483508,6227.822114969011
0.006397643955748424,6473.4501842325935
0.0066487878384172625,6726.853349005217
0.0069097905457156435,6988.100764058555
0.007181039092537346,7257.2318955807505
0.007462935686310132,7534.246887635817
0.007755898323389004,7819.121617134835
0.00806036140886134,8111.806640474182
0.008376776400682916,8412.225764729252
0.008705612479099857,8720.27063516464
0.009047357242349292,9035.793122776713
0.00940251742967013,9358.608468151393
0.009771619672696168,9688.46856499128
0.010155211276345676,10025.062262272999
0.010553861030365234,10368.024536973624
0.010968160052731372,10716.912503472277
0.011398722666160517,11071.220830926179
0.011846187309026826,11430.363587576305
0.012311217482038896,11793.66318143689
0.012794502732078732,12160.366918526877
0.013296759674662111,12529.60734665619
0.013818733056536317,12900.422265049412
0.014361196859990781,13271.742514779324
0.014924955450518284,13642.355646545755
0.015510844769528393,14010.951490294983
0.016119733573881575,14376.072259379864
0.01675252472408214,14736.127550262538
0.017410156523040152,15089.41320632599
0.018093604107387147,15434.045364279778
0.01880388089340914,15768.033965864395
0.019542040079740527,16089.24619904973
0.02030917620904734,16395.401935613612
0.021106426791015535,16684.13996398406
0.021934973989050584,16952.924617603767
0.02279604637318978,17199.142255806004
0.023690920741826323,17420.1589441654
0.02462092401494623,17613.331148431545
0.02558743520168586,17776.042382260846
0.02659188744512693,17905.445405075556
0.027635770147361564,17998.60434564998
0.028720631177978267,18053.07368951927
0.029848079169243254,18067.69628632688
0.03101978590138095,18041.737358360784
0.03223748878149028,17973.377695195617
0.0335029934197723,17859.674667787047
0.03481817630688963,17698.315077109644
0.03618498759642746,17489.091314553232
0.037605453996581675,17232.828662222128
0.03908168177536263,16931.65116127408
0.04061585988376978,16589.534961941874
0.04221026320156896,16210.680939757793
0.04386725591048496,15798.33158297879
0.0455892949998106,15355.270231805871
0.047378933909631396,14885.610291416486
0.049238826317067365,14395.837211780292
0.05117173007114603,13892.70184989615
0.05318051128214196,13383.967092041556
0.05526814857144601,12877.192823396828
0.057437737488265785,12380.094608395417
0.0596924950997073,11899.77393482125
0.0620357647610427,11442.669162281134
0.06447102107323864,11014.188840308983
0.06700187503509585,10618.567302970883
0.06963207939763882,10258.601279000983
0.0723655342286965,9935.628164315258
0.07520629269592405,9649.134635742015
0.07815856707684081,9396.728960057728
0.08122673500479707,9173.882390435603
0.08441534596012978,8973.620844864092
0.0877291280161335,8786.741849507282
0.09117299484984914,8602.098213860982
0.09475205302806537,8407.554803136352
0.09847160957933764,8190.914743386702
0.1023371798632519,7941.591755104265
0.10635449574860109,7652.00371531074
0.11052951411260206,7318.9453453113765
0.1148684256737553,6944.813338591652
0.1193776641714435,6538.227596095724
0.1240639159058831,6113.993468398369
0.12893412965257148,5691.435333221367
0.13399552696593373,5292.594792098459
0.1392556128874462,4938.112496562952
0.14472218707411338,4642.353900444732
0.15040335536380234,4412.826824685814
0.15630754179458153,4248.351574891699
0.16244350109588662,4138.128861652412
0.16882033167003618,4061.817080859783
0.17544748908334581,3991.4758557467694
0.1823348000868439,3896.3116530527122
0.189492477187382,3750.4029110135166
0.19693113379074215,3542.2705580502775
0.20466179993919872,3281.8507528510636
0.21269593866686892,2998.9856901103904
0.22104546299710207,2733.0658199327045
0.22972275360711503,2519.470411030543
0.23874067718606454,2377.5943935761934
0.2481126055137766,2302.5411243032604
0.25785243528842716,2264.659986037138
0.26797460873256895,2219.251704132669
0.27849413500806414,2125.8831075101384
0.28942661247167484,1972.5389299752906
0.3007882518043098,1786.1344454758623
0.31259590004822796,1615.7177917847985
0.324867065587837,1500.5174338349404
0.3376199441111335,1445.348598375805
0.35087344559027084,1417.359756777125
0.36464722232127456,1366.4666454542069
0.37896169806447155,1266.2646620174032
0.3938380983288488,1140.695231627221
0.4092984818452433,1039.6704647362274
0.4253657732750382,987.899076827583
0.44206379720285277,961.3058285536767
0.45941731346364734,913.9602211036433
0.47745205385661277,833.3046449333682
0.4961947603002895,755.1551973924495
0.5156732244854959,711.1569680657898
0.5359163290848509,685.3054817206715
0.556954090580013,641.080855262584
0.5788177037701272,581.5281954654483
0.6015395880274836,539.1970395029088
0.6251534353689703,514.5590238341878
0.6496942604146115,480.14970751933646
0.6751984523072497,437.75081533827165
0.7017038286703824,409.3695851082517
0.7292496916841444,386.2012668113189
0.7578768863625915,354.7399903699542
0.7876278611187046,328.33146502943316
0.8185467307069019,305.14406180289325
0.850679341636415,283.47842280191446
0.8840733401525058,263.2353497953301
0.9187782428863317,244.3227909104647
0.9548455102782278,226.65524337554
0.9923286228832539,210.15337019763115
1.0312831606721837,194.74827752136812
1.0717668854455022,180.38023596180824
1.1138398264826193,166.9915646883745
1.1575643695533022,154.52635960193857
1.2030053494233226,142.93061660851743
1.2502301459914542,132.1522576805376
1.299308784200415,122.14020220800099
1.3503140378698726,112.84498703611587
1.4033215376054824,104.21980508701203
1.4584098829439835,96.2204430213675
1.5156607589006013,88.80518396545236
1.575159057091621,81.93467093195457
1.6369930016117014,75.57150839655849
1.7012542798525885,69.6804345965358
1.7680381784572046,64.2284411518462
1.8374437246107238,59.18464835850562
1.9095738328780953,54.52018346744021
1.9845354578058014,50.20807875056954
2.0624397525140905,46.22322357495337
2.143402233514853,42.54218157621053
2.227542951999554,39.14305827604203
2.314986671851158,36.00541255517913
2.405863054644063,33.11017205790152
2.5003068519063225,30.439543663143198
2.598458104929248,27.976915530881538
2.7004623524206774,25.706818636181612
2.806470846309834,23.61486442632963
2.916640776023701,21.687675876971234
3.031135501567576,19.91282234481377
3.150124795755327,18.278755112189973
3.2737850959485697,16.774746108462445
3.4022997656780634,15.390841575520259
3.5358593665351745,14.117811399995611
3.6746619407366854,12.947100071229874
3.8189133047818515,11.870780646576154
3.968827354637162,10.8815123785336
4.1246263829013445,9.97250045824493
4.286541408420921,9.137456415241047
4.4548125188449825,8.370562545978396
4.629689226627261,7.666438783091451
4.811430839003257,7.020111565049993
5.000306842491082,6.42698093779691
5.196597302486189,5.882794384518883
5.400593278542364,5.3836270893272635
5.612597255954967,4.925858101196985
5.8329235942862,4.5061478223753975
6.06189899349756,4.121417425889989
6.29986297838068,3.7688344340052775
6.547168402004727,3.4457914725893994
6.804181968927091,3.1498843342786356
7.071284778942991,2.878896875557657
7.348872892180382,2.630787095002971
7.637357916378006,2.4036725450999383
7.937167617217536,2.1958057422456587
8.248746552614573,2.00557490306365
8.572556731909314,1.8315025856602594
8.909078300934132,1.672234537943245
9.258810253973934,1.5265293840532403
9.622271173675122,1.3932548887252847
9.999999999999984,1.271404082335403
