k [1/Mpc],P(k) [Mpc^3]
0.0001,4547.738006898485
0.00010392556829367125,4698.644333604867
0.00010800523745162529,4854.525608167843
0.00011224505680853065,5015.542026259776
0.00011665131316981963,5181.8586835310025
0.00012123054013376525,5353.645703464047
0.00012598952777950273,5531.078285281457
0.00013093533273536104,5714.336067793441
0.00013607528864243335,5903.603688037178
0.00014141701702890234,6099.07118863293
0.00014696843861124463,6300.934091572241
0.00015273778503907136,6509.393567912334
0.00015873361110102093,6724.655813836692
0.00016496480740980205,6946.932343198095
0.0001714406135851971,7176.440349829226
0.00017817063195457305,7413.402130866878
0.00018516484179121546,7658.045821576328
0.000192433614111598,7910.604949566117
0.00019998772705352857,8171.318346610751
0.0002078383818579757,8440.430740146383
0.00021599721947827182,8718.19156538419
0.0002244763378413224,9004.855817652837
0.0002332883097864157,9300.683908350951
0.00024244620170823283,9605.940976427713
0.0002519635929317015,9920.89784800417
0.0002618545958474233,10245.829237251652
0.0002721338768375308,10581.01426305288
0.0002828166780230032,10926.737098092904
0.0002939188398646886,11283.285690169989
0.0003054568246515432,11650.95281588297
0.00031744774091091926,12030.033829390672
0.00032990936877709396,12420.826094533839
0.00034286018635565856,12823.630793863964
0.00035631939712285854,13238.751145326563
0.000370306958400514,13666.49327875073
0.00038484361094874304,14107.16410791522
0.0003999509097203664,14561.06882324199
0.00041565125582259895,15028.513949038634
0.00043196792973341727,15509.805674647749
0.0004489251258218605,16005.250005817228
0.0004665479882234472,16515.1511878595
0.000484862648123908,17039.806757091443
0.000503896262506515,17579.511311227383
0.0005236770544204653,18134.553704953123
0.0005442343548300266,18705.21604505479
0.0005655986461065005,19291.77423425654
0.0005878016072274912,19894.490449684297
0.0006108761607505036,20513.616841527713
0.0006348565216305217,21149.392064841693
0.0006597782479539537,21802.036574347487
0.0006856782936641739,22471.756813045933
0.0007125950633568407,23158.734390446076
0.0007405684692262436,23863.128554629162
0.0007696399902471156,24585.075840582245
0.0007998527336796708,25324.68022754087
0.000831251498989063,26082.020117585766
0.0008638828442740447,26857.13998363823
0.000897795155303332,27650.048395706348
0.0009330387172620361,28460.72095009462
0.0009696657893145519,29289.089336805748
0.001007730682094461,30135.04604254781
0.0010472898382363582,30998.43476432286
0.0010884019160690055,31879.041686420667
0.0011311278765939214,32776.605007825536
0.001175531073878369,33690.8004700059
0.0012216773489967915,34621.24496951709
0.0012696351276599736,35567.49498301926
0.0013194755216767058,36529.034055853765
0.0013712724343984,37505.282208602184
0.0014251026703029975,38495.58689101466
0.0014810460488806749,39499.22151800531
0.0015391855229902056,40515.38649037787
0.001599607301861487,41543.192104005786
0.0016624009789266115,42581.669175042574
0.0017276596646690358,43629.764586399084
0.0017954801246878305,44686.33613244904
0.0018659629231817451,45750.15761283031
0.001939212572065829,46819.89433512096
0.0020153376859417325,47894.11483409776
0.002094451143151469,48971.29397129172
0.002176670253153458,50049.800719178
0.002262116930469025,51127.91246648015
0.002350917875457286,52203.78080985651
0.002443204762186487,53275.4385211744
0.0025391144336803463,54340.82892162715
0.002638789104828933,55397.804464098124
0.002742376573264949,56444.13058975689
0.0028500304385181063,57477.33507897188
0.0029619103297725525,58494.654721222294
0.0030781821425650787,59493.30043040931
0.003199018284775064,60470.973796717415
0.0033245979322709396,61425.586430589945
0.003455107294592217,62354.28137469583
0.0035907398910610534,63252.53018708264
0.0037316968377327513,64115.559984521366
0.0038781871456107214,64939.76416425712
0.0040304280305680515,65722.44206905976
0.00418864523543527,66460.52701145533
0.004353073364731888,67149.43442427754
0.00452395623253805,67784.22783317008
0.004701547224022131,68360.57845303322
0.004886109671160325,68874.93362087641
0.005077917243205399,69323.69075071001
0.005277254352483535,69702.086122486
0.005484416576121017,70004.97048731105
0.005699711094326071,70227.10387509486
0.005923457145875801,70362.95659181735
0.006155986501483508,70407.16651154577
0.006397643955748424,70354.17169783566
0.0066487878384172625,70198.45759264159
0.0069097905457156435,69934.67689406768
0.007181039092537346,69557.01458576474
0.007462935686310132,69060.08446955182
0.007755898323389004,68438.19414413287
0.00806036140886134,67685.39860298543
0.008376776400682916,66796.52194870054
0.008705612479099857,65765.91417365203
0.009047357242349292,64588.82584481492
0.00940251742967013,63261.1030785417
0.009771619672696168,61778.547737983456
0.010155211276345676,60138.82687260381
0.010553861030365234,58338.664983614995
0.010968160052731372,56375.90689859947
0.011398722666160517,54251.705240232586
0.011846187309026826,51969.88923877169
0.012311217482038896,49537.940198394375
0.012794502732078732,46956.68171420622
0.013296759674662111,44223.12264181331
0.013818733056536317,41347.86827233193
0.014361196859990781,38371.856341604085
0.014924955450518284,35343.25205553619
0.015510844769528393,32252.948602865454
0.016119733573881575,29025.645430829733
0.01675252472408214,25656.13715514532
0.017410156523040152,22385.041695875752
0.018093604107387147,19476.118389001043
0.01880388089340914,16827.005266575892
0.019542040079740527,13793.850576603721
0.02030917620904734,10227.071445709254
0.021106426791015535,7278.307588228391
0.021934973989050584,5846.07316648014
0.02279604637318978,5574.735914693749
0.023690920741826323,3708.8765688763788
0.02462092401494623,854.5031533687952
0.02558743520168586,81.75412978355804
0.02659188744512693,15.557559136016197
0.027635770147361564,25.399323165052355
0.028720631177978267,192.61040156811012
0.029848079169243254,1211.540318516403
0.03101978590138095,2487.9137366089167
0.03223748878149028,2998.320239752478
0.0335029934197723,3864.1431889372507
0.03481817630688963,5190.417423086777
0.03618498759642746,6253.614902395983
0.037605453996581675,6861.534970032937
0.03908168177536263,7231.8371205305575
0.04061585988376978,7291.241838729577
0.04221026320156896,6945.17016689604
0.04386725591048496,6256.306679081762
0.0455892949998106,5282.4379725930885
0.047378933909631396,4121.797806673421
0.049238826317067365,2996.2284682086224
0.05117173007114603,1867.647893639345
0.05318051128214196,949.9592702786485
0.05526814857144601,471.12374190424305
0.057437737488265785,42.609671120553564
0.0596924950997073,4.294109806124116
0.0620357647610427,45.36740275157382
0.06447102107323864,340.43849109952487
0.06700187503509585,329.2834065227701
0.06963207939763882,339.16647448221795
0.0723655342286965,234.1127526237799
0.07520629269592405,95.63444620621428
0.07815856707684081,10.024481247696766
0.08122673500479707,17.409536813066634
0.08441534596012978,260.8286859104053
0.0877291280161335,432.3249963299086
0.09117299484984914,664.0100320243462
0.09475205302806537,704.269432769454
0.09847160957933764,580.0350077386066
0.1023371798632519,340.58788949765193
0.10635449574860109,119.22860436285399
0.11052951411260206,9.540612170600118
0.1148684256737553,8.223222011207058
0.1193776641714435,65.98646409370502
0.1240639159058831,58.88215879197077
0.12893412965257148,68.54200385373656
0.13399552696593373,0.004295290733807
0.1392556128874462,79.35766694132553
0.14472218707411338,151.42492611986358
0.15040335536380234,170.32884457203377
0.15630754179458153,106.94292783600545
0.16244350109588662,28.022460469781443
0.16882033167003618,1.208973188884162
0.17544748908334581,14.79709608798483
0.1823348000868439,10.684887163654807
0.189492477187382,0.7307583683005061
0.19693113379074215,24.77979362164444
0.20466179993919872,51.78604402167394
0.21269593866686892,33.86634948913575
0.22104546299710207,4.124449491121115
0.22972275360711503,1.119790541305353
0.23874067718606454,2.3718657504979683
0.2481126055137766,1.8351258855146195
0.25785243528842716,14.829340041608566
0.26797460873256895,14.615848009516922
0.27849413500806414,2.2351012275838458
0.28942661247167484,0.14633436508850142
0.3007882518043098,0.02806267531802234
0.31259590004822796,4.487864615443924
0.324867065587837,6.064999390863709
0.3376199441111335,0.9280845244228614
0.35087344559027084,0.003849158328886258
0.36464722232127456,0.8948680839469972
0.37896169806447155,2.9076796292663034
0.3938380983288488,0.936210742372948
0.4092984818452433,0.12774118573313775
0.4253657732750382,0.758217987733882
0.44206379720285277,2.3055560859630835
0.45941731346364734,2.6855728697620402
0.47745205385661277,1.6832877052026785
0.4961947603002895,0.7974811795787747
0.5156732244854959,0.4000935649544427
0.5359163290848509,0.25647468234408527
0.556954090580013,0.202032746414677
0.5788177037701272,0.18454687205321454
0.6015395880274836,0.18446440893111074
0.6251534353689703,0.19039378902703216
0.6496942604146115,0.19181251475900976
0.6751984523072497,0.18444062747522605
0.7017038286703824,0.1707854507366246
0.7292496916841444,0.15382536874758743
0.7578768863625915,0.13613069533261907
0.7876278611187046,0.11956480288573339
0.8185467307069019,0.10520683739932128
0.850679341636415,0.09300865438865064
0.8840733401525058,0.0825482579022028
0.9187782428863317,0.07349313975818753
0.9548455102782278,0.0655826878215015
0.9923286228832539,0.05861170097709731
1.0312831606721837,0.05242242343036855
1.0717668854455022,0.04690942190225611
1.1138398264826193,0.04199012313794978
1.1575643695533022,0.037593450842458326
1.2030053494233226,0.033658062477695934
1.2502301459914542,0.030130880096672624
1.299308784200415,0.026967055094065887
1.3503140378698726,0.024130417592936125
1.4033215376054824,0.02158872489198092
1.4584098829439835,0.019312620851825543
1.5156607589006013,0.017275424732941098
1.575159057091621,0.015452924211382217
1.6369930016117014,0.01382290622230933
1.7012542798525885,0.01236493310641396
1.7680381784572046,0.011060718440196831
1.8374437246107238,0.009893945038143672
1.9095738328780953,0.00885004897864741
1.9845354578058014,0.007916028848352918
2.0624397525140905,0.007080296764528121
2.143402233514853,0.006332516256774817
2.227542951999554,0.005663440679425186
2.314986671851158,0.0050647967267433355
2.405863054644063,0.004529181618621943
2.5003068519063225,0.004049973298365179
2.598458104929248,0.0036212668795397944
2.7004623524206774,0.003237783117592656
2.806470846309834,0.002894787924725006
2.916640776023701,0.002588036841048586
3.031135501567576,0.0023137252570157797
3.150124795755327,0.002068440691430034
3.2737850959485697,0.0018491106718587524
3.4022997656780634,0.0016529832927386844
3.5358593665351745,0.0014776001514821852
3.6746619407366854,0.0013207647547668953
3.8189133047818515,0.0011805143582433392
3.968827354637162,0.0010550971867421299
4.1246263829013445,0.0009429539323783497
4.286541408420921,0.0008426892446399314
4.4548125188449825,0.000753052985602665
4.629689226627261,0.0006729253230324826
4.811430839003257,0.0006013033176359109
5.000306842491082,0.0005372877932630681
5.196597302486189,0.00048007210524286104
5.400593278542364,0.0004289348769099934
5.612597255954967,0.0003832312411778081
5.8329235942862,0.0003423847196665453
6.06189899349756,0.00030587997022139954
6.29986297838068,0.00027325643917468635
6.547168402004727,0.00024410251474687658
6.804181968927091,0.00021805014774931966
7.071284778942991,0.00019477024002767385
7.348872892180382,0.00017396853074367683
7.637357916378006,0.00015538189886543432
7.937167617217536,0.00013877487781357293
8.248746552614573,0.0001239368768765827
8.572556731909314,0.00011067972237414339
8.909078300934132,9.88352684476919e-05
9.258810253973934,8.825325997547855e-05
9.622271173675122,7.879952081773535e-05
9.999999999999984,7.035473393711945e-05
