k [1/Mpc],P(k) [Mpc^3]
0.0001,1856.3998704054472
0.00010392556829367125,1940.284395268481
0.00010800523745162529,2027.9458449850488
0.00011224505680853065,2119.552535177916
0.00011665131316981963,2215.2800013025076
0.00012123054013376525,2315.3113915077033
0.00012598952777950273,2419.837769545433
0.00013093533273536104,2529.058418210947
0.00013607528864243335,2643.1812104118726
0.00014141701702890234,2762.4227268162936
0.00014696843861124463,2887.0087329385715
0.00015273778503907136,3017.174459586088
0.00015873361110102093,3153.164737733846
0.00016496480740980205,3295.2346920002046
0.0001714406135851971,3443.6500420794
0.00017817063195457305,3598.68755382039
0.00018516484179121546,3760.6352986664187
0.000192433614111598,3929.7924613233404
0.00019998772705352857,4106.470328663345
0.0002078383818579757,4290.9926022519285
0.00021599721947827182,4483.695813963776
0.0002244763378413224,4684.929835014612
0.0002332883097864157,4895.057494760868
0.00024244620170823283,5114.455600721344
0.0002519635929317015,5343.515068486423
0.0002618545958474233,5582.64098357518
0.0002721338768375308,5832.2536937757095
0.0002828166780230032,6092.788495856597
0.0002939188398646886,6364.696449509998
0.0003054568246515432,6648.444340658472
0.00031744774091091926,6944.513864347649
0.00032990936877709396,7253.403446695153
0.00034286018635565856,7575.628256020356
0.00035631939712285854,7911.720692900629
0.000370306958400514,8262.230254723241
0.00038484361094874304,8627.721403852542
0.0003999509097203664,9008.775921953855
0.00041565125582259895,9405.992993799713
0.00043196792973341727,9819.989260806458
0.0004489251258218605,10251.399126969225
0.0004665479882234472,10700.871999654928
0.000484862648123908,11169.07413343012
0.000503896262506515,11656.688001025997
0.0005236770544204653,12164.410953549039
0.0005442343548300266,12692.956680663117
0.0005655986461065005,13243.050996116799
0.0005878016072274912,13815.433045334157
0.0006108761607505036,14410.854837422392
0.0006348565216305217,15030.077328160949
0.0006597782479539537,15673.87295898725
0.0006856782936641739,16343.018723119956
0.0007125950633568407,17038.295641715828
0.0007405684692262436,17760.489943946755
0.0007696399902471156,18510.384932207948
0.0007998527336796708,19288.76467041534
0.000831251498989063,20096.406394313126
0.0008638828442740447,20934.076039964373
0.000897795155303332,21802.53234955913
0.0009330387172620361,22702.519654677464
0.0009696657893145519,23634.768084729516
0.001007730682094461,24599.98459896659
0.0010472898382363582,25598.842639856237
0.0010884019160690055,26631.988122329458
0.0011311278765939214,27700.02590479382
0.001175531073878369,28803.51927345038
0.0012216773489967915,29942.987795098546
0.0012696351276599736,31118.896314698246
0.0013194755216767058,32331.656377246323
0.0013712724343984,33581.61342734192
0.0014251026703029975,34869.04171999823
0.0014810460488806749,36194.1425522865
0.0015391855229902056,37557.02872214644
0.001599607301861487,38957.72613654892
0.0016624009789266115,40396.160391415906
0.0017276596646690358,41872.14653859861
0.0017954801246878305,43385.39102625759
0.0018659629231817451,44935.47258445536
0.001939212572065829,46521.84299085763
0.0020153376859417325,48143.81449365645
0.002094451143151469,49800.541787903036
0.002176670253153458,51491.03166730794
0.002262116930469025,53214.13178833956
0.002350917875457286,54968.526883940576
0.002443204762186487,56752.71892025584
0.0025391144336803463,58564.98560673293
0.002638789104828933,60403.412151361204
0.002742376573264949,62265.89147227491
0.0028500304385181063,64150.120369042634
0.0029619103297725525,66053.53949499295
0.0030781821425650787,67973.11815258146
0.003199018284775064,69905.52502601512
0.0033245979322709396,71847.59157529593
0.003455107294592217,73796.49457972629
0.0035907398910610534,75749.05822109178
0.0037316968377327513,77700.18691266171
0.0038781871456107214,79643.70209423034
0.0040304280305680515,81573.62590839627
0.00418864523543527,83484.8506697825
0.004353073364731888,85372.19936420432
0.00452395623253805,87230.22514876547
0.004701547224022131,89053.25309368888
0.004886109671160325,90835.14957800486
0.005077917243205399,92568.69453978747
0.005277254352483535,94246.28283280614
0.005484416576121017,95859.87319115852
0.005699711094326071,97401.02211961053
0.005923457145875801,98861.04956448523
0.006155986501483508,100230.68653660465
0.006397643955748424,101500.46690443694
0.0066487878384172625,102660.66358584285
0.0069097905457156435,103701.2340583341
0.007181039092537346,104612.1279144872
0.007462935686310132,105382.48139240955
0.007755898323389004,106001.27291569322
0.00806036140886134,106457.43277832879
0.008376776400682916,106739.42206489561
0.008705612479099857,106836.20614847576
0.009047357242349292,106736.54167791476
0.00940251742967013,106429.51428984749
0.009771619672696168,105905.01106987947
0.010155211276345676,105152.88312112725
0.010553861030365234,104164.4068163599
0.010968160052731372,102931.66651733589
0.011398722666160517,101447.85039849099
0.011846187309026826,99708.44480502371
0.012311217482038896,97710.27664253641
0.012794502732078732,95452.95391561689
0.013296759674662111,92938.87256957876
0.013818733056536317,90173.100881905
0.014361196859990781,87164.60554642632
0.014924955450518284,83926.05813990704
0.015510844769528393,80474.05912526634
0.016119733573881575,76829.72737796574
0.01675252472408214,73018.95472305783
0.017410156523040152,69071.02404638962
0.018093604107387147,65020.70454714811
0.01880388089340914,60905.93829200604
0.019542040079740527,56766.814932786176
0.02030917620904734,52649.45562625709
0.021106426791015535,48597.28706817614
0.021934973989050584,44656.08422148542
0.02279604637318978,40871.107568422936
0.023690920741826323,37280.41261281313
0.02462092401494623,33928.21122830435
0.02558743520168586,30847.847942731903
0.02659188744512693,28064.239143072355
0.027635770147361564,25598.355342882554
0.028720631177978267,23458.76424492613
0.029848079169243254,21653.383270442682
0.03101978590138095,20186.726520925542
0.03223748878149028,19049.00212564254
0.0335029934197723,18214.99122981698
0.03481817630688963,17664.29789147352
0.03618498759642746,17375.812867549263
0.037605453996581675,17330.58303677151
0.03908168177536263,17487.547533151064
0.04061585988376978,17795.230303785807
0.04221026320156896,18175.835706198937
0.04386725591048496,18536.855952345995
0.0455892949998106,18773.503680535716
0.047378933909631396,18784.869787889365
0.049238826317067365,18485.62214468806
0.05117173007114603,17819.025323867747
0.05318051128214196,16770.28358564157
0.05526814857144601,15371.181636038813
0.057437737488265785,13695.726369846661
0.0596924950997073,11874.727498018845
0.0620357647610427,10071.826150606415
0.06447102107323864,8438.146689293255
0.06700187503509585,7096.3742148175825
0.06963207939763882,6111.745001786563
0.0723655342286965,5498.5362735558
0.07520629269592405,5234.4145275733235
0.07815856707684081,5269.417846140323
0.08122673500479707,5527.77572226761
0.08441534596012978,5895.150344633646
0.0877291280161335,6214.604981006709
0.09117299484984914,6311.726974437433
0.09475205302806537,6055.106322310268
0.09847160957933764,5436.107307583593
0.1023371798632519,4595.225428738578
0.10635449574860109,3739.5415813938503
0.11052951411260206,3044.438519042947
0.1148684256737553,2618.167918442665
0.1193776641714435,2480.1962431918487
0.1240639159058831,2562.8726068196447
0.12893412965257148,2742.8965838289237
0.13399552696593373,2851.4871297365903
0.1392556128874462,2741.797757451614
0.14472218707411338,2404.206814372657
0.15040335536380234,1975.8594573964422
0.15630754179458153,1634.7752294650272
0.16244350109588662,1472.7267839316432
0.16882033167003618,1470.5193810616024
0.17544748908334581,1527.8124277490856
0.1823348000868439,1506.993988637658
0.189492477187382,1353.3123851200523
0.19693113379074215,1141.9863454732752
0.20466179993919872,991.336567323766
0.21269593866686892,941.7867007454786
0.22104546299710207,940.4989383578262
0.22972275360711503,900.3097490524133
0.23874067718606454,799.2253567448961
0.2481126055137766,698.9286870419451
0.25785243528842716,648.4096466515954
0.26797460873256895,626.5996030494357
0.27849413500806414,584.9464418229011
0.28942661247167484,522.3066036398176
0.3007882518043098,474.73239409766916
0.31259590004822796,447.87038900205005
0.324867065587837,416.50021190183173
0.3376199441111335,377.0327627803639
0.35087344559027084,346.4030385461453
0.36464722232127456,322.86073090714683
0.37896169806447155,296.01911492098134
0.3938380983288488,270.8161229406472
0.4092984818452433,250.50847484673747
0.4253657732750382,230.1977926020657
0.44206379720285277,210.9509554758658
0.45941731346364734,193.64798851838518
0.47745205385661277,177.9717648970428
0.4961947603002895,163.66330620053284
0.5156732244854959,150.51129809848035
0.5359163290848509,138.3449126056098
0.556954090580013,127.0629262429728
0.5788177037701272,116.62329967038512
0.6015395880274836,106.98497221308108
0.6251534353689703,98.10505405129973
0.6496942604146115,89.93967276607803
0.6751984523072497,82.44402958987506
0.7017038286703824,75.5665694276344
0.7292496916841444,69.25475494565782
0.7578768863625915,63.460748946402504
0.7876278611187046,58.141041521037025
0.8185467307069019,53.25602538420006
0.850679341636415,48.76988803934253
0.8840733401525058,44.65119665943347
0.9187782428863317,40.871266794575924
0.9548455102782278,37.403484700059195
0.9923286228832539,34.22317670730204
1.0312831606721837,31.307484618253067
1.0717668854455022,28.63515632058354
1.1138398264826193,26.18635383396241
1.1575643695533022,23.942784875484126
1.2030053494233226,21.887618985630265
1.2502301459914542,20.005373703804107
1.299308784200415,18.28181003394009
1.3503140378698726,16.703854809746353
1.4033215376054824,15.259505906945845
1.4584098829439835,13.937721599807782
1.5156607589006013,12.728345212815766
1.575159057091621,11.622036898100141
1.6369930016117014,10.610210062388003
1.7012542798525885,9.684969821435434
1.7680381784572046,8.839061451785819
1.8374437246107238,8.06582248747718
1.9095738328780953,7.359135928527564
1.9845354578058014,6.713386967960394
2.0624397525140905,6.1234222745303155
2.143402233514853,5.584510854180826
2.227542951999554,5.092313411121587
2.314986671851158,4.642851793387617
2.405863054644063,4.2324796727505385
2.5003068519063225,3.85785553792542
2.598458104929248,3.515918308259617
2.7004623524206774,3.203864768873394
2.806470846309834,2.919127294325579
2.916640776023701,2.65935439113332
3.031135501567576,2.422392950774446
3.150124795755327,2.206271892195998
3.2737850959485697,2.009186536496542
3.4022997656780634,1.8294849928568475
3.5358593665351745,1.6656562393632317
3.6746619407366854,1.5163183855087594
3.8189133047818515,1.3802078518824021
3.968827354637162,1.2561694592776231
4.1246263829013445,1.1431474885657094
4.286541408420921,1.0401771368339048
4.4548125188449825,0.9463767097718964
4.629689226627261,0.8609406002978215
4.811430839003257,0.7831328481190013
5.000306842491082,0.7122811358500359
5.196597302486189,0.647771118443249
5.400593278542364,0.5890418753380928
5.612597255954967,0.535581449740773
5.8329235942862,0.48692263669772445
6.06189899349756,0.44263912903657765
6.29986297838068,0.40234219066891236
6.547168402004727,0.36567753393272967
6.804181968927091,0.3323219005528553
7.071284778942991,0.30198034510401683
7.348872892180382,0.2743838038121946
7.637357916378006,0.2492868355106787
7.937167617217536,0.22646490902366806
8.248746552614573,0.20571283021299144
8.572556731909314,0.18684386939374437
8.909078300934132,0.16968812810975273
9.258810253973934,0.15409101632389677
9.622271173675122,0.13991209520661885
9.999999999999984,0.12702536305630407
