k [1/Mpc],P(k) [Mpc^3]
0.0001,1762.325865445697
0.00010392556829367125,1831.3514482012652
0.00010800523745162529,1903.0678540126992
0.00011224505680853065,1977.5784404260746
0.00011665131316981963,2054.9903645127874
0.00012123054013376525,2135.4146584220243
0.00012598952777950273,2218.966443623889
0.00013093533273536104,2305.7649034680585
0.00013607528864243335,2395.933478497382
0.00014141701702890234,2489.600080129338
0.00014696843861124463,2586.8971573426143
0.00015273778503907136,2687.9619193194626
0.00015873361110102093,2792.9361434553352
0.00016496480740980205,2901.9662655669413
0.0001714406135851971,3015.203838232473
0.00017817063195457305,3132.805574558172
0.00018516484179121546,3254.933589270424
0.000192433614111598,3381.755250889333
0.00019998772705352857,3513.4430186880663
0.0002078383818579757,3650.1750416753594
0.00021599721947827182,3792.1348717241926
0.0002244763378413224,3939.511757910409
0.0002332883097864157,4092.5008792927065
0.00024244620170823283,4251.303047333821
0.0002519635929317015,4416.125239638325
0.0002618545958474233,4587.180018247704
0.0002721338768375308,4764.68551546899
0.0002828166780230032,4948.86611882799
0.0002939188398646886,5139.951864245967
0.0003054568246515432,5338.178988499445
0.00031744774091091926,5543.78949545902
0.00032990936877709396,5757.030527090503
0.00034286018635565856,5978.155398069354
0.00035631939712285854,6207.422928954883
0.000370306958400514,6445.097702166004
0.00038484361094874304,6691.449727177732
0.0003999509097203664,6946.752673004125
0.00041565125582259895,7211.285433856669
0.00043196792973341727,7485.331797078333
0.0004489251258218605,7769.180232050344
0.0004665479882234472,8063.123729109793
0.000484862648123908,8367.456875768257
0.000503896262506515,8682.477344800333
0.0005236770544204653,9008.485370700198
0.0005442343548300266,9345.782365183939
0.0005655986461065005,9694.671917193495
0.0005878016072274912,10055.456542624368
0.0006108761607505036,10428.43810529558
0.0006348565216305217,10813.91712606913
0.0006597782479539537,11212.188209435097
0.0006856782936641739,11623.54301568506
0.0007125950633568407,12048.266494655692
0.0007405684692262436,12486.635460148356
0.0007696399902471156,12938.919638545654
0.0007998527336796708,13405.374159239938
0.000831251498989063,13886.242599899506
0.0008638828442740447,14381.755206728252
0.000897795155303332,14892.125130697388
0.0009330387172620361,15417.550388806476
0.0009696657893145519,15958.207526086764
0.001007730682094461,16514.251669043282
0.0010472898382363582,17085.814098850653
0.0010884019160690055,17672.99266743552
0.0011311278765939214,18275.857393033868
0.001175531073878369,18894.44538469694
0.0012216773489967915,19528.758176766252
0.0012696351276599736,20178.762358555938
0.0013194755216767058,20844.38045229483
0.0013712724343984,21525.493311500486
0.0014251026703029975,22221.935610257595
0.0014810460488806749,22933.48964024923
0.0015391855229902056,23659.888577034206
0.001599607301861487,24400.806346554484
0.0016624009789266115,25155.85813227906
0.0017276596646690358,25924.600486039464
0.0017954801246878305,26706.52418211389
0.0018659629231817451,27501.056669111404
0.001939212572065829,28307.549743142736
0.0020153376859417325,29125.276458869674
0.002094451143151469,29953.43820870293
0.002176670253153458,30791.157997471186
0.002262116930469025,31637.482633539687
0.002350917875457286,32491.363298905628
0.002443204762186487,33351.6388225651
0.0025391144336803463,34217.06372920271
0.002638789104828933,35086.319596546346
0.002742376573264949,35958.01217967194
0.0028500304385181063,36830.61051860735
0.0029619103297725525,37702.33514085309
0.0030781821425650787,38571.29268104552
0.003199018284775064,39435.78137566994
0.0033245979322709396,40294.31244110231
0.003455107294592217,41145.15583308497
0.0035907398910610534,41985.422494151455
0.0037316968377327513,42811.73500164187
0.0038781871456107214,43621.124189192946
0.0040304280305680515,44411.443297085345
0.00418864523543527,45180.50978011003
0.004353073364731888,45925.19776184026
0.00452395623253805,46641.78761742719
0.004701547224022131,47326.70970531746
0.004886109671160325,47977.02670113172
0.005077917243205399,48589.895125899515
0.005277254352483535,49161.84606760689
0.005484416576121017,49688.801403059486
0.005699711094326071,50166.59950739297
0.005923457145875801,50590.750770218285
0.006155986501483508,50956.71234030745
0.006397643955748424,51259.95993808967
0.0066487878384172625,51495.9794352115
0.0069097905457156435,51660.36582651351
0.007181039092537346,51748.2638947958
0.007462935686310132,51754.7310978006
0.007755898323389004,51674.906173644995
0.00806036140886134,51503.590405459094
0.008376776400682916,51235.95825277409
0.008705612479099857,50867.140106818544
0.009047357242349292,50392.38915246853
0.00940251742967013,49807.566418952614
0.009771619672696168,49108.260280457354
0.010155211276345676,48290.86889449518
0.010553861030365234,47352.34174127425
0.010968160052731372,46289.921422664724
0.011398722666160517,45102.40365402336
0.011846187309026826,43788.91337600336
0.012311217482038896,42350.020502966036
0.012794502732078732,40788.064254421304
0.013296759674662111,39106.04562280026
0.013818733056536317,37309.73786164606
0.014361196859990781,35406.352559322186
0.014924955450518284,33405.09258165267
0.015510844769528393,31318.402780944078
0.016119733573881575,29159.819034015716
0.01675252472408214,26946.247629760463
0.017410156523040152,24696.887225091392
0.018093604107387147,22432.36725724539
0.01880388089340914,20176.489848491434
0.019542040079740527,17953.36845577461
0.02030917620904734,15788.374937180692
0.021106426791015535,13707.63656272337
0.021934973989050584,11735.816738907992
0.02279604637318978,9896.289870605759
0.023690920741826323,8209.38213905318
0.02462092401494623,6690.936349013073
0.02558743520168586,5352.358021773867
0.02659188744512693,4201.90207490914
0.027635770147361564,3238.078610380655
0.028720631177978267,2453.105664362344
0.029848079169243254,1833.3086146637345
0.03101978590138095,1358.680926349259
0.03223748878149028,1013.783222313379
0.0335029934197723,776.3651453126681
0.03481817630688963,624.5290647175518
0.03618498759642746,541.5594853280329
0.037605453996581675,515.189817231458
0.03908168177536263,542.0998912823779
0.04061585988376978,623.4259431132273
0.04221026320156896,762.1069560539144
0.04386725591048496,961.1922506319962
0.0455892949998106,1216.4140252008804
0.047378933909631396,1514.0932801653282
0.049238826317067365,1827.2278450500387
0.05117173007114603,2116.963907316451
0.05318051128214196,2337.230035444823
0.05526814857144601,2445.262938594948
0.057437737488265785,2408.7751677047777
0.0596924950997073,2214.5471679798598
0.0620357647610427,1884.7458391946038
0.06447102107323864,1471.3769318544278
0.06700187503509585,1043.5650640497915
0.06963207939763882,667.5553933114038
0.0723655342286965,385.6068287114855
0.07520629269592405,206.9054272963431
0.07815856707684081,114.60443727773391
0.08122673500479707,81.31944468927078
0.08441534596012978,89.92576995011345
0.0877291280161335,141.21673075967124
0.09117299484984914,244.406709471349
0.09475205302806537,392.0365280837175
0.09847160957933764,540.6214620146061
0.1023371798632519,624.8287653160478
0.10635449574860109,599.1519081578424
0.11052951411260206,469.51928289916754
0.1148684256737553,295.6330061226488
0.1193776641714435,151.29997844684752
0.1240639159058831,70.88235230373502
0.12893412965257148,44.32613308009284
0.13399552696593373,54.6809537376041
0.1392556128874462,100.57119636460872
0.14472218707411338,171.60515427108314
0.15040335536380234,223.06650911584808
0.15630754179458153,208.92630407251173
0.16244350109588662,140.17397680576892
0.16882033167003618,71.47701807691675
0.17544748908334581,37.59735271645399
0.1823348000868439,36.17175567551369
0.189492477187382,59.28638512781989
0.19693113379074215,90.45345218036314
0.20466179993919872,94.95245718917506
0.21269593866686892,65.9751507983127
0.22104546299710207,36.095406961961665
0.22972275360711503,26.489748542426934
0.23874067718606454,34.8715332673263
0.2481126055137766,47.90682148888663
0.25785243528842716,45.006580906662656
0.26797460873256895,29.397259210362655
0.27849413500806414,20.760432408859984
0.28942661247167484,23.49979902838703
0.3007882518043098,28.192460192056725
0.31259590004822796,23.909105498472037
0.324867065587837,16.97116596138801
0.3376199441111335,16.075760290391592
0.35087344559027084,17.893696870062442
0.36464722232127456,15.603376795862467
0.37896169806447155,12.30504031652632
0.3938380983288488,12.13969017018734
0.4092984818452433,11.84346100740115
0.4253657732750382,9.93893858052812
0.44206379720285277,8.635025777411808
0.45941731346364734,7.822640223639226
0.47745205385661277,7.280735642134129
0.4961947603002895,6.859547310597183
0.5156732244854959,6.445847659849075
0.5359163290848509,5.9698596909666035
0.556954090580013,5.452967879740326
0.5788177037701272,4.932130192410863
0.6015395880274836,4.43523839555739
0.6251534353689703,3.981331268408912
0.6496942604146115,3.5819038966988592
0.6751984523072497,3.238039916068482
0.7017038286703824,2.9389230509387034
0.7292496916841444,2.6747633191418223
0.7578768863625915,2.437962420043997
0.7876278611187046,2.222626753398444
0.8185467307069019,2.0242551613079254
0.850679341636415,1.8406826099856932
0.8840733401525058,1.6716217116589036
0.9187782428863317,1.5166917440388565
0.9548455102782278,1.3753450005593977
0.9923286228832539,1.2469119293168163
1.0312831606721837,1.1306198995301644
1.0717668854455022,1.025401016801829
1.1138398264826193,0.9300986380896201
1.1575643695533022,0.8436893368154538
1.2030053494233226,0.7652697384650472
1.2502301459914542,0.6940409398634902
1.299308784200415,0.6293023402091492
1.3503140378698726,0.5704729654459153
1.4033215376054824,0.5170387491871808
1.4584098829439835,0.46852664399709754
1.5156607589006013,0.4245018087309865
1.575159057091621,0.38456496966082815
1.6369930016117014,0.3483480511841633
1.7012542798525885,0.31550864000991874
1.7680381784572046,0.2857343111566371
1.8374437246107238,0.258741359181903
1.9095738328780953,0.23427216919306895
1.9845354578058014,0.21209282979951324
2.0624397525140905,0.19199111888258746
2.143402233514853,0.17377457616137365
2.227542951999554,0.15726838697077272
2.314986671851158,0.14231375373571764
2.405863054644063,0.12876644721589656
2.5003068519063225,0.11649549201150111
2.598458104929248,0.10538206944924522
2.7004623524206774,0.09531837431038968
2.806470846309834,0.0862064891487905
2.916640776023701,0.07795748944659475
3.031135501567576,0.0704906332773869
3.150124795755327,0.06373261428897878
3.2737850959485697,0.05761682482013595
3.4022997656780634,0.052082804386863135
3.5358593665351745,0.047075726664472274
3.6746619407366854,0.04254588067271876
3.8189133047818515,0.03844819862207733
3.968827354637162,0.03474182902609565
4.1246263829013445,0.031389753915758045
4.286541408420921,0.028358423704788433
4.4548125188449825,0.02561743245975649
4.629689226627261,0.023139226783104733
4.811430839003257,0.02089884130191888
5.000306842491082,0.01887365778967731
5.196597302486189,0.0170431862861175
5.400593278542364,0.015388868547947507
5.612597255954967,0.013893898152163938
5.8329235942862,0.012543056890337958
6.06189899349756,0.011322566318301168
6.29986297838068,0.010219955612556553
6.547168402004727,0.009223939130890969
6.804181968927091,0.008324300899639045
7.071284778942991,0.0075117941162393944
7.348872892180382,0.006778050292825432
7.637357916378006,0.0061154958157972955
7.937167617217536,0.005517263181505527
8.248746552614573,0.004977132679139173
8.572556731909314,0.0044894851760471435
8.909078300934132,0.004049244385224385
9.258810253973934,0.0036518243086898004
9.622271173675122,0.003293087345949956
9.999999999999984,0.002969333077528246
