k [1/Mpc],P(k) [Mpc^3]
0.0001,599.5429871478999
0.00010392556829367125,623.0737642630821
0.00010800523745162529,647.5277240820113
0.00011224505680853065,672.9410157436396
0.00011665131316981963,699.3511855524206
0.00012123054013376525,726.7972634589754
0.00012598952777950273,755.319831653737
0.00013093533273536104,784.9610591752557
0.00013607528864243335,815.7647461789228
0.00014141701702890234,847.7763943414909
0.00014696843861124463,881.0432726821031
0.00015273778503907136,915.6144737163019
0.00015873361110102093,951.5409974590644
0.00016496480740980205,988.8758109408574
0.0001714406135851971,1027.673924929356
0.00017817063195457305,1067.9924970121242
0.00018516484179121546,1109.890955152469
0.000192433614111598,1153.4310526027455
0.00019998772705352857,1198.67686407691
0.0002078383818579757,1245.6948308263138
0.00021599721947827182,1294.5539586016284
0.0002244763378413224,1345.3260086070381
0.0002332883097864157,1398.0855644179578
0.00024244620170823283,1452.9100393803553
0.0002519635929317015,1509.8796920445834
0.0002618545958474233,1569.0778418898951
0.0002721338768375308,1630.5910165907999
0.0002828166780230032,1694.5090721647434
0.0002939188398646886,1760.9252859075818
0.0003054568246515432,1829.9364050685783
0.00031744774091091926,1901.6428369871217
0.00032990936877709396,1976.1487874242562
0.00034286018635565856,2053.562389490124
0.00035631939712285854,2133.9958498464675
0.000370306958400514,2217.565420587965
0.00038484361094874304,2304.3916271227454
0.0003999509097203664,2394.599531927789
0.00041565125582259895,2488.318932964088
0.00043196792973341727,2585.68447779658
0.0004489251258218605,2686.8355641577564
0.0004665479882234472,2791.9165224214194
0.000484862648123908,2901.076962720067
0.000503896262506515,3014.4718675931736
0.0005236770544204653,3132.2618495765923
0.0005442343548300266,3254.613272984363
0.0005655986461065005,3381.6983955627734
0.0005878016072274912,3513.6956239472197
0.0006108761607505036,3650.789287895293
0.0006348565216305217,3793.170030303906
0.0006597782479539537,3941.0352321478435
0.0006856782936641739,4094.5892441034757
0.0007125950633568407,4254.0435446409065
0.0007405684692262436,4419.616243381143
0.0007696399902471156,4591.532320163044
0.0007998527336796708,4770.024335534749
0.000831251498989063,4955.332555067637
0.0008638828442740447,5147.705243988945
0.000897795155303332,5347.39841814013
0.0009330387172620361,5554.675783620972
0.0009696657893145519,5769.80937576512
0.001007730682094461,5993.078722787507
0.0010472898382363582,6224.771507861218
0.0010884019160690055,6465.184139184588
0.0011311278765939214,6714.621732807902
0.001175531073878369,6973.398403969148
0.0012216773489967915,7241.835369127403
0.0012696351276599736,7520.261163596625
0.0013194755216767058,7809.013164442604
0.0013712724343984,8108.4372200399785
0.0014251026703029975,8418.888093551433
0.0014810460488806749,8740.727506832967
0.0015391855229902056,9074.322977151065
0.001599607301861487,9420.050219516064
0.0016624009789266115,9778.292787272421
0.0017276596646690358,10149.442247697973
0.0017954801246878305,10533.896352553273
0.0018659629231817451,10932.055802391122
0.001939212572065829,11344.327386510884
0.0020153376859417325,11771.1221282961
0.002094451143151469,12212.855075030433
0.002176670253153458,12669.945605277326
0.002262116930469025,13142.813702204532
0.002350917875457286,13631.881893399936
0.002443204762186487,14137.572090260028
0.0025391144336803463,14660.303007366096
0.002638789104828933,15200.49286271988
0.002742376573264949,15758.55439778854
0.0028500304385181063,16334.895897573198
0.0029619103297725525,16929.919075288326
0.0030781821425650787,17544.013051067886
0.003199018284775064,18177.558245215783
0.0033245979322709396,18830.919012262235
0.003455107294592217,19504.442502298294
0.0035907398910610534,20198.459400968466
0.0037316968377327513,20913.27276793306
0.0038781871456107214,21649.163195881316
0.0040304280305680515,22406.38140045973
0.00418864523543527,23185.141728387505
0.004353073364731888,23985.62671323033
0.00452395623253805,24807.96821508167
0.004701547224022131,25652.2523178388
0.004886109671160325,26518.51547657723
0.005077917243205399,27406.727905730982
0.005277254352483535,28316.804305466783
0.005484416576121017,29248.573337101177
0.005699711094326071,30201.77600246459
0.005923457145875801,31176.082304864198
0.006155986501483508,32171.08211895014
0.006397643955748424,33186.28426465614
0.0066487878384172625,34221.02930653586
0.0069097905457156435,35274.44237267149
0.007181039092537346,36345.52580985072
0.007462935686310132,37433.15908253936
0.007755898323389004,38536.0964727786
0.00806036140886134,39652.949905885274
0.008376776400682916,40782.1631724571
0.008705612479099857,41922.02666626922
0.009047357242349292,43070.53160423236
0.00940251742967013,44225.381398686804
0.009771619672696168,45384.06574361722
0.010155211276345676,46543.74491928029
0.010553861030365234,47701.34492219287
0.010968160052731372,48853.48286970063
0.011398722666160517,49996.41882273103
0.011846187309026826,51126.165748389416
0.012311217482038896,52238.3017460894
0.012794502732078732,53328.08756997835
0.013296759674662111,54390.43990303849
0.013818733056536317,55419.748024595596
0.014361196859990781,56410.145952292005
0.014924955450518284,57355.292797060254
0.015510844769528393,58248.45350651589
0.016119733573881575,59082.65400172881
0.01675252472408214,59850.35245565442
0.017410156523040152,60543.841307345436
0.018093604107387147,61155.09962758039
0.01880388089340914,61675.7425843609
0.019542040079740527,62097.469827273046
0.02030917620904734,62411.711335196116
0.021106426791015535,62610.04059609928
0.021934973989050584,62684.24096557757
0.02279604637318978,62626.03365960384
0.023690920741826323,62427.87135384844
0.02462092401494623,62083.18326887931
0.02558743520168586,61586.54723995362
0.02659188744512693,60933.35048887868
0.027635770147361564,60118.389447863294
0.028720631177978267,59137.82534363215
0.029848079169243254,57994.010540888936
0.03101978590138095,56696.5074686588
0.03223748878149028,55254.83705492601
0.0335029934197723,53667.63673025443
0.03481817630688963,51930.876496981946
0.03618498759642746,50052.807542824194
0.037605453996581675,48063.14203954191
0.03908168177536263,45992.39119886626
0.04061585988376978,43859.84110583859
0.04221026320156896,41677.38502906365
0.04386725591048496,39462.628126986005
0.0455892949998106,37246.280369773114
0.047378933909631396,35058.02708694048
0.049238826317067365,32927.030832130826
0.05117173007114603,30878.905177305012
0.05318051128214196,28938.29424317995
0.05526814857144601,27125.884728359306
0.057437737488265785,25458.287630779163
0.0596924950997073,23947.34394749321
0.0620357647610427,22600.483900096235
0.06447102107323864,21420.115538963764
0.06700187503509585,20403.897651116313
0.06963207939763882,19543.958118429666
0.0723655342286965,18827.16065919456
0.07520629269592405,18234.085697439587
0.07815856707684081,17738.19744789867
0.08122673500479707,17306.747124735306
0.08441534596012978,16901.429585909125
0.0877291280161335,16481.060810557774
0.09117299484984914,16005.088445624877
0.09475205302806537,15438.028125590867
0.09847160957933764,14753.949225815659
0.1023371798632519,13941.093719393904
0.10635449574860109,13006.73940414901
0.11052951411260206,11978.882852488174
0.1148684256737553,10902.810687946621
0.1193776641714435,9836.042505078054
0.1240639159058831,8841.111217356936
0.12893412965257148,7973.602422948053
0.13399552696593373,7273.751956107184
0.1392556128874462,6761.450917993577
0.14472218707411338,6433.9444486309985
0.15040335536380234,6264.592831294702
0.15630754179458153,6202.591634048987
0.16244350109588662,6175.579588401516
0.16882033167003618,6099.085316956688
0.17544748908334581,5896.925548872258
0.1823348000868439,5529.753974509538
0.189492477187382,5016.621577698544
0.19693113379074215,4430.5889028414485
0.20466179993919872,3871.1610952514748
0.21269593866686892,3428.5074627274594
0.22104546299710207,3153.62970487992
0.22972275360711503,3043.1177044036076
0.23874067718606454,3040.264530853051
0.2481126055137766,3046.637436773253
0.25785243528842716,2956.7021830120475
0.26797460873256895,2720.3460940098716
0.27849413500806414,2383.4144019664695
0.28942661247167484,2057.612182630864
0.3007882518043098,1841.3352865009024
0.31259590004822796,1761.2842155475978
0.324867065587837,1762.694034914322
0.3376199441111335,1737.7566411916546
0.35087344559027084,1607.1733989489628
0.36464722232127456,1399.2776530869378
0.37896169806447155,1219.549524236715
0.3938380983288488,1137.5979602239004
0.4092984818452433,1125.7696641950702
0.4253657732750382,1090.8146729083014
0.44206379720285277,980.8319834700653
0.45941731346364734,853.1661752578905
0.47745205385661277,785.4491828954374
0.4961947603002895,767.5566189384515
0.5156732244854959,725.7262999960415
0.5359163290848509,641.6871425987399
0.556954090580013,576.8525824462222
0.5788177037701272,553.1125441126743
0.6015395880274836,520.4679901287716
0.6251534353689703,463.1706535369871
0.6496942604146115,424.47766974050074
0.6751984523072497,403.69757883892953
0.7017038286703824,368.039119779893
0.7292496916841444,330.1065163769057
0.7578768863625915,300.2736881618769
0.7876278611187046,276.39700371428523
0.8185467307069019,256.32387697116303
0.850679341636415,238.4357017809163
0.8840733401525058,221.4964772180256
0.9187782428863317,204.79220556384007
0.9548455102782278,188.52171394820832
0.9923286228832539,172.99012694331435
1.0312831606721837,158.41775782274442
1.0717668854455022,144.95047378483906
1.1138398264826193,132.66903383450824
1.1575643695533022,121.5261115890139
1.2030053494233226,111.38111727901298
1.2502301459914542,102.1103370663495
1.299308784200415,93.60914131520362
1.3503140378698726,85.78897222684216
1.4033215376054824,78.57800260263264
1.4584098829439835,71.9322732257395
1.5156607589006013,65.81671182424789
1.575159057091621,60.196959754196946
1.6369930016117014,55.03960378884333
1.7012542798525885,50.31235346174088
1.7680381784572046,45.98266434902857
1.8374437246107238,42.017377468352
1.9095738328780953,38.3858746649268
1.9845354578058014,35.06016894326552
2.0624397525140905,32.01466852313623
2.143402233514853,29.226007426711387
2.227542951999554,26.673223311056436
2.314986671851158,24.337241114472572
2.405863054644063,22.20042990122762
2.5003068519063225,20.246501153475997
2.598458104929248,18.4604167444094
2.7004623524206774,16.828268307448283
2.806470846309834,15.337150594520418
2.916640776023701,13.975189746453353
3.031135501567576,12.7314823170382
3.150124795755327,11.596018660232055
3.2737850959485697,10.559612864392143
3.4022997656780634,9.613850686889073
3.5358593665351745,8.75102217582415
3.6746619407366854,7.9640505098183505
3.8189133047818515,7.246441850258061
3.968827354637162,6.5922394863694596
4.1246263829013445,5.995979758454557
4.286541408420921,5.45264772287656
4.4548125188449825,4.957648471966795
4.629689226627261,4.506775571243742
4.811430839003257,4.096179250918155
5.000306842491082,3.7223371097955407
5.196597302486189,3.3820275757555764
5.400593278542364,3.0723050618168886
5.612597255954967,2.7904763213807144
5.8329235942862,2.5340794303862704
6.06189899349756,2.300864513190595
6.29986297838068,2.0887762111300683
6.547168402004727,1.895938629759159
6.804181968927091,1.7206389937829483
7.071284778942991,1.5613130764951066
7.348872892180382,1.416532725633869
7.637357916378006,1.284994389197531
7.937167617217536,1.1655057315232384
8.248746552614573,1.0569735787722407
8.572556731909314,0.9584025757449103
8.909078300934132,0.868887448429165
9.258810253973934,0.7876048340941831
9.622271173675122,0.713806710779176
9.999999999999984,0.6468248379647014
