k [1/Mpc],P(k) [Mpc^3]
0.0001,363.64125665957545
0.00010392556829367125,377.9134141684699
0.00010800523745162529,392.7454670825704
0.00011224505680853065,408.15936010380943
0.00011665131316981963,424.17789854951786
0.00012123054013376525,440.824776662797
0.00012598952777950273,458.1246132991808
0.00013093533273536104,476.10297763094275
0.00013607528864243335,494.7863988456518
0.00014141701702890234,514.2024321391519
0.00014696843861124463,534.3797496496135
0.00015273778503907136,555.348188909443
0.00015873361110102093,577.1387392393859
0.00016496480740980205,599.7835013215629
0.0001714406135851971,623.3157881962903
0.00017817063195457305,647.7702456906811
0.00018516484179121546,673.1829349305643
0.000192433614111598,699.5913212479206
0.00019998772705352857,727.0342601347841
0.0002078383818579757,755.552076149157
0.00021599721947827182,785.186656857574
0.0002244763378413224,815.9815215957932
0.0002332883097864157,847.9818713589889
0.00024244620170823283,881.2346132699033
0.0002519635929317015,915.7884275465918
0.0002618545958474233,951.6938697339184
0.0002721338768375308,989.0034638725316
0.0002828166780230032,1027.7717577170022
0.0002939188398646886,1068.055312122648
0.0003054568246515432,1109.9127415488567
0.00031744774091091926,1153.4048873032873
0.00032990936877709396,1198.5949556282758
0.00034286018635565856,1245.5485793276262
0.00035631939712285854,1294.3338273910217
0.000370306958400514,1345.0212241332347
0.00038484361094874304,1397.6839284946236
0.0003999509097203664,1452.3977919400857
0.00041565125582259895,1509.2414660205766
0.00043196792973341727,1568.2965139837536
0.0004489251258218605,1629.6474594072472
0.0004665479882234472,1693.381938633972
0.000484862648123908,1759.5907397502415
0.000503896262506515,1828.367894221131
0.0005236770544204653,1899.8108403455424
0.0005442343548300266,1974.0204017915844
0.0005655986461065005,2051.1009904005336
0.0005878016072274912,2131.1606992944935
0.0006108761607505036,2214.3113563967763
0.0006348565216305217,2300.6687416802215
0.0006597782479539537,2390.3525836259296
0.0006856782936641739,2483.4867335016766
0.0007125950633568407,2580.199249775176
0.0007405684692262436,2680.6222889564515
0.0007696399902471156,2784.892470988744
0.0007998527336796708,2893.1509021804027
0.000831251498989063,3005.543300391684
0.0008638828442740447,3122.220162584564
0.000897795155303332,3243.3365339131565
0.0009330387172620361,3369.052393762115
0.0009696657893145519,3499.532616403389
0.001007730682094461,3634.9469318987076
0.0010472898382363582,3775.4702823545053
0.0010884019160690055,3921.2822663671063
0.0011311278765939214,4072.567554223457
0.001175531073878369,4229.516025834316
0.0012216773489967915,4392.32244635953
0.0012696351276599736,4561.18699581655
0.0013194755216767058,4736.314608937451
0.0013712724343984,4917.915133716878
0.0014251026703029975,5106.203541627911
0.0014810460488806749,5301.398762769858
0.0015391855229902056,5503.724677936626
0.001599607301861487,5713.409685037213
0.0016624009789266115,5930.686421711328
0.0017276596646690358,6155.792224228512
0.0017954801246878305,6388.967583961377
0.0018659629231817451,6630.456890338631
0.001939212572065829,6880.507654689712
0.0020153376859417325,7139.369031007098
0.002094451143151469,7407.293368753321
0.002176670253153458,7684.535018891998
0.002262116930469025,7971.35038956263
0.002350917875457286,8267.997068149472
0.002443204762186487,8574.730563731304
0.0025391144336803463,8891.806585547261
0.002638789104828933,9219.479527247055
0.002742376573264949,9558.001728708068
0.0028500304385181063,9907.623785778176
0.0029619103297725525,10268.591107478049
0.0030781821425650787,10641.145124504697
0.003199018284775064,11025.520462033499
0.0033245979322709396,11421.941911570293
0.003455107294592217,11830.62692889981
0.0035907398910610534,12251.780784373514
0.0037316968377327513,12685.597168915376
0.0038781871456107214,13132.25668613847
0.0040304280305680515,13591.921367812232
0.00418864523543527,14064.737629648273
0.004353073364731888,14550.827458248477
0.00452395623253805,15050.287272180565
0.004701547224022131,15563.19092116924
0.004886109671160325,16089.582523605648
0.005077917243205399,16629.478868850536
0.005277254352483535,17182.856119285243
0.005484416576121017,17749.641992066037
0.005699711094326071,18329.729570221818
0.005923457145875801,18922.98505454628
0.006155986501483508,19529.241131323044
0.006397643955748424,20148.2508132184
0.0066487878384172625,20779.636157443125
0.0069097905457156435,21422.95194273454
0.007181039092537346,22077.715030546322
0.007462935686310132,22743.397522874253
0.007755898323389004,23419.405218549742
0.00806036140886134,24105.06319091592
0.008376776400682916,24799.623002137992
0.008705612479099857,25502.211359420187
0.009047357242349292,26211.81748019101
0.00940251742967013,26927.33432726707
0.009771619672696168,27647.52238859201
0.010155211276345676,28371.03293014422
0.010553861030365234,29096.39236000337
0.010968160052731372,29821.977906050208
0.011398722666160517,30546.054563513193
0.011846187309026826,31266.726379767424
0.012311217482038896,31981.95945355057
0.012794502732078732,32689.585063043254
0.013296759674662111,33387.24481662898
0.013818733056536317,34072.46102386244
0.014361196859990781,34742.6033196713
0.014924955450518284,35394.89914630951
0.015510844769528393,36026.47468938827
0.016119733573881575,36634.30488420654
0.01675252472408214,37215.280635406576
0.017410156523040152,37766.22161081061
0.018093604107387147,38283.882701931194
0.01880388089340914,38765.009794587626
0.019542040079740527,39206.37124674606
0.02030917620904734,39604.78023641453
0.021106426791015535,39957.169064748574
0.021934973989050584,40260.682054000594
0.02279604637318978,40512.62149122229
0.023690920741826323,40710.64685092495
0.02462092401494623,40852.75345802383
0.02558743520168586,40937.32075932027
0.02659188744512693,40963.58916470341
0.027635770147361564,40931.19815132334
0.028720631177978267,40840.25685081658
0.029848079169243254,40691.37939632999
0.03101978590138095,40485.86427462486
0.03223748878149028,40227.87632838412
0.0335029934197723,39922.70663310097
0.03481817630688963,39574.57959719093
0.03618498759642746,39185.711237606905
0.037605453996581675,38758.491504359954
0.03908168177536263,38298.72543220028
0.04061585988376978,37814.146612674005
0.04221026320156896,37312.26290797877
0.04386725591048496,36800.32103864122
0.0455892949998106,36285.11666835817
0.047378933909631396,35771.5065100519
0.049238826317067365,35262.90035179358
0.05117173007114603,34760.50383929386
0.05318051128214196,34262.60304511121
0.05526814857144601,33765.76938745241
0.057437737488265785,33263.948746011665
0.0596924950997073,32749.88051163726
0.0620357647610427,32214.850597618333
0.06447102107323864,31649.20017534855
0.06700187503509585,31042.685425876865
0.06963207939763882,30384.882964174598
0.0723655342286965,29666.601175068077
0.07520629269592405,28881.226207352378
0.07815856707684081,28027.512747492052
0.08122673500479707,27111.21811426719
0.08441534596012978,26145.955610766825
0.0877291280161335,25152.48483788474
0.09117299484984914,24156.043434359377
0.09475205302806537,23182.396929593204
0.09847160957933764,22255.535042418767
0.1023371798632519,21393.430828173838
0.10635449574860109,20610.227660385284
0.11052951411260206,19909.006086247133
0.1148684256737553,19273.46774906883
0.1193776641714435,18673.444381124657
0.1240639159058831,18072.565835384627
0.12893412965257148,17436.71359238328
0.13399552696593373,16743.39097640037
0.1392556128874462,15988.436123405829
0.14472218707411338,15188.357168360555
0.15040335536380234,14376.888920496374
0.15630754179458153,13595.421473055054
0.16244350109588662,12880.878383555237
0.16882033167003618,12254.615912507392
0.17544748908334581,11712.47529369466
0.1823348000868439,11221.886493766733
0.189492477187382,10736.41028579562
0.19693113379074215,10219.802987878793
0.20466179993919872,9660.891612548065
0.21269593866686892,9080.293319757919
0.22104546299710207,8523.38038631853
0.22972275360711503,8029.37694146389
0.23874067718606454,7605.540470898094
0.2481126055137766,7225.157545894948
0.25785243528842716,6845.185968303904
0.26797460873256895,6441.658305847268
0.27849413500806414,6028.83556990169
0.28942661247167484,5643.382937654268
0.3007882518043098,5305.895556302986
0.31259590004822796,5003.637581945058
0.324867065587837,4708.037728906166
0.3376199441111335,4406.123601798043
0.35087344559027084,4112.798940319416
0.36464722232127456,3847.8318271477656
0.37896169806447155,3609.1155883066117
0.3938380983288488,3378.2568002286184
0.4092984818452433,3150.1710218969542
0.4253657732750382,2937.107763287326
0.44206379720285277,2743.1824624588457
0.45941731346364734,2559.5106324007047
0.47745205385661277,2382.7280555324137
0.4961947603002895,2217.621763066911
0.5156732244854959,2065.0705595531704
0.5359163290848509,1920.310137239077
0.556954090580013,1784.0772223287113
0.5788177037701272,1657.6734722884787
0.6015395880274836,1538.918221833052
0.6251534353689703,1427.6129362971278
0.6496942604146115,1324.063184243552
0.6751984523072497,1227.0974513554154
0.7017038286703824,1136.6787315381812
0.7292496916841444,1052.433548193532
0.7578768863625915,973.8948666157609
0.7876278611187046,900.7646446759219
0.8185467307069019,832.7192107567954
0.850679341636415,769.4444478022165
0.8840733401525058,710.6419276907656
0.9187782428863317,656.0284767229662
0.9548455102782278,605.3357425445946
0.9923286228832539,558.3099165201705
1.0312831606721837,514.7110625419589
1.0717668854455022,474.3124684541791
1.1138398264826193,436.90015515880475
1.1575643695533022,402.27238000179153
1.2030053494233226,370.23895842307564
1.2502301459914542,340.6206639553446
1.299308784200415,313.2491343035955
1.3503140378698726,287.9664004897878
1.4033215376054824,264.62437412165247
1.4584098829439835,243.08434444281946
1.5156607589006013,223.2164725261838
1.575159057091621,204.89934019289598
1.6369930016117014,188.019506886022
1.7012542798525885,172.47106744380608
1.7680381784572046,158.15522563930227
1.8374437246107238,144.97982836880172
1.9095738328780953,132.85895582796093
1.9845354578058014,121.7126596989233
2.0624397525140905,111.46660688215431
2.143402233514853,102.05172865308464
2.227542951999554,93.40388280563946
2.314986671851158,85.4635124730022
2.405863054644063,78.17537629090116
2.5003068519063225,71.48828010924096
2.598458104929248,65.35480670635557
2.7004623524206774,59.731060813549064
2.806470846309834,54.57642083063142
2.916640776023701,49.853312349516514
3.031135501567576,45.527010969391384
3.150124795755327,41.56544305697788
3.2737850959485697,37.93899768719481
3.4022997656780634,34.62034840106146
3.5358593665351745,31.58427911454656
3.6746619407366854,28.80754205729632
3.8189133047818515,26.268718584022324
3.968827354637162,23.948083616517103
4.1246263829013445,21.827479251222687
4.286541408420921,19.89019497360331
4.4548125188449825,18.12085836456909
4.629689226627261,16.505336660413143
4.811430839003257,15.030641981619176
5.000306842491082,13.68484308672487
5.196597302486189,12.456981602759319
5.400593278542364,11.336989390154047
5.612597255954967,10.315627738881139
5.8329235942862,9.38442513756113
6.06189899349756,8.535615953591533
6.29986297838068,7.762084058470478
6.547168402004727,7.057318692005547
6.804181968927091,6.415363998296886
7.071284778942991,5.830762763543971
7.348872892180382,5.298515968097135
7.637357916378006,4.81404606000803
7.937167617217536,4.373155562887151
8.248746552614573,3.971974336110813
8.572556731909314,3.6069646780798617
8.909078300934132,3.274902838333314
9.258810253973934,2.9728510527670835
9.622271173675122,2.6981341298155708
9.999999999999984,2.4483619644777455
