k [1/Mpc],P(k) [Mpc^3]
0.0001,155.56546583424148
0.00010392556829367125,161.67148467215088
0.00010800523745162529,168.0171111618407
0.00011224505680853065,174.61172981699934
0.00011665131316981963,181.46509116598696
0.00012123054013376525,188.58733703515307
0.00012598952777950273,195.9890126110149
0.00013093533273536104,203.68107328100763
0.00013607528864243335,211.6748938489729
0.00014141701702890234,219.98229189432905
0.00014696843861124463,228.61555066939536
0.00015273778503907136,237.5874376589795
0.00015873361110102093,246.91121799449726
0.00016496480740980205,256.60066547435093
0.0001714406135851971,266.6700879026442
0.00017817063195457305,277.13435098229735
0.00018516484179121546,288.0089001723051
0.000192433614111598,299.3097822179055
0.00019998772705352857,311.0536638855483
0.0002078383818579757,323.25785755284335
0.00021599721947827182,335.9403490941292
0.0002244763378413224,349.1198248527724
0.0002332883097864157,362.815696990529
0.00024244620170823283,377.04811842303917
0.0002519635929317015,391.83801063734353
0.0002618545958474233,407.2071058860092
0.0002721338768375308,423.17798689439854
0.0002828166780230032,439.7741131790922
0.0002939188398646886,457.0198310389048
0.0003054568246515432,474.94039337701713
0.00031744774091091926,493.5620209884264
0.00032990936877709396,512.9119465616509
0.00034286018635565856,533.0184508466073
0.00035631939712285854,553.9108896400242
0.000370306958400514,575.61971690875
0.00038484361094874304,598.1765435662477
0.0003999509097203664,621.6141617032566
0.00041565125582259895,645.9665884075288
0.00043196792973341727,671.2691294378326
0.0004489251258218605,697.5584288099859
0.0004665479882234472,724.8725157599894
0.000484862648123908,753.2508008581813
0.000503896262506515,782.7340942260664
0.0005236770544204653,813.3647235858535
0.0005442343548300266,845.1866116754296
0.0005655986461065005,878.2453253849218
0.0005878016072274912,912.5880738523489
0.0006108761607505036,948.2636839430253
0.0006348565216305217,985.3227509643782
0.0006597782479539537,1023.8177199337257
0.0006856782936641739,1063.802948757003
0.0007125950633568407,1105.3347420855691
0.0007405684692262436,1148.4713170058944
0.0007696399902471156,1193.272942285182
0.0007998527336796708,1239.8019668035201
0.000831251498989063,1288.122851415637
0.0008638828442740447,1338.302302720068
0.000897795155303332,1390.409256285827
0.0009330387172620361,1444.5149889384204
0.0009696657893145519,1500.6931674574596
0.001007730682094461,1559.0198229996997
0.0010472898382363582,1619.5735236043727
0.0010884019160690055,1682.4352702574124
0.0011311278765939214,1747.6885826987714
0.001175531073878369,1815.419642169074
0.0012216773489967915,1885.7171491976535
0.0012696351276599736,1958.6725526321673
0.0013194755216767058,2034.3799358927238
0.0013712724343984,2112.935969458763
0.0014251026703029975,2194.440173914851
0.0014810460488806749,2278.994626823039
0.0015391855229902056,2366.704189081794
0.001599607301861487,2457.6764749208764
0.0016624009789266115,2552.0215719677853
0.0017276596646690358,2649.8524309569357
0.0017954801246878305,2751.2844579346383
0.0018659629231817451,2856.4355951596044
0.001939212572065829,2965.4264774201074
0.0020153376859417325,3078.3798635347553
0.002094451143151469,3195.421080230173
0.002176670253153458,3316.6775238936943
0.002262116930469025,3442.2783809111725
0.002350917875457286,3572.3550805891987
0.002443204762186487,3707.040337268349
0.0025391144336803463,3846.4685461087965
0.002638789104828933,3990.7755575650726
0.002742376573264949,4140.0979264849575
0.0028500304385181063,4294.5734835348185
0.0029619103297725525,4454.33997147944
0.0030781821425650787,4619.535081508822
0.003199018284775064,4790.296508162698
0.0033245979322709396,4966.760100619864
0.003455107294592217,5149.060927605352
0.0035907398910610534,5337.332046136109
0.0037316968377327513,5531.703738398963
0.0038781871456107214,5732.304012298182
0.0040304280305680515,5939.255676306119
0.00418864523543527,6152.677298879283
0.004353073364731888,6372.681956044823
0.00452395623253805,6599.37471843379
0.004701547224022131,6832.8544353695215
0.004886109671160325,7073.20975301823
0.005077917243205399,7320.519226195888
0.005277254352483535,7574.851148118142
0.005484416576121017,7836.258429476155
0.005699711094326071,8104.781421415415
0.005923457145875801,8380.441547408038
0.006155986501483508,8663.238720861893
0.006397643955748424,8953.156278410323
0.0066487878384172625,9250.158904244576
0.0069097905457156435,9554.192177447234
0.007181039092537346,9865.164770400504
0.007462935686310132,10182.930379529049
0.007755898323389004,10507.31117135857
0.00806036140886134,10838.099707230012
0.008376776400682916,11175.057511038745
0.008705612479099857,11517.90963001288
0.009047357242349292,11866.334307216284
0.00940251742967013,12219.969181088865
0.009771619672696168,12578.383112195008
0.010155211276345676,12941.070166272972
0.010553861030365234,13307.469391000233
0.010968160052731372,13676.93675647272
0.011398722666160517,14048.762609824238
0.011846187309026826,14422.159376460731
0.012311217482038896,14796.24241356169
0.012794502732078732,15170.057211870664
0.013296759674662111,15542.538877735951
0.013818733056536317,15912.528639358321
0.014361196859990781,16278.777140029526
0.014924955450518284,16639.896343121694
0.015510844769528393,16994.414791092753
0.016119733573881575,17340.737908056588
0.01675252472408214,17677.15035099664
0.017410156523040152,18001.85670262835
0.018093604107387147,18312.911557676605
0.01880388089340914,18608.29005619675
0.019542040079740527,18885.87786899154
0.02030917620904734,19143.449551593232
0.021106426791015535,19378.75000716777
0.021934973989050584,19589.421874874588
0.02279604637318978,19773.072966083568
0.023690920741826323,19927.3603493337
0.02462092401494623,20050.01767862214
0.02558743520168586,20138.873733625518
0.02659188744512693,20191.652183175735
0.027635770147361564,20206.022291604368
0.028720631177978267,20180.096943277244
0.029848079169243254,20113.415724326627
0.03101978590138095,20006.10662355254
0.03223748878149028,19857.505833252308
0.0335029934197723,19665.674105955462
0.03481817630688963,19429.121997590806
0.03618498759642746,19148.502690873294
0.037605453996581675,18825.702333150482
0.03908168177536263,18463.575513208532
0.04061585988376978,18066.880874988106
0.04221026320156896,17640.586716049856
0.04386725591048496,17188.65777011668
0.0455892949998106,16714.238242576008
0.047378933909631396,16221.354951882791
0.049238826317067365,15716.674651485362
0.05117173007114603,15206.988422986857
0.05318051128214196,14699.31708359595
0.05526814857144601,14200.306134274815
0.057437737488265785,13716.23586820495
0.0596924950997073,13252.71788860321
0.0620357647610427,12814.184023086635
0.06447102107323864,12403.994515439425
0.06700187503509585,12024.055263846103
0.06963207939763882,11674.835976460447
0.0723655342286965,11355.126517188677
0.07520629269592405,11061.867683923841
0.07815856707684081,10790.232718691723
0.08122673500479707,10533.39417284903
0.08441534596012978,10282.667659175242
0.0877291280161335,10028.032586932028
0.09117299484984914,9758.92394511895
0.09475205302806537,9465.438962373752
0.09847160957933764,9139.845265423472
0.1023371798632519,8777.74217513333
0.10635449574860109,8379.083529511046
0.11052951411260206,7948.843656654865
0.1148684256737553,7497.066325726585
0.1193776641714435,7038.307348268143
0.1240639159058831,6590.43886038021
0.12893412965257148,6171.991264488933
0.13399552696593373,5799.9285597652815
0.1392556128874462,5486.800909862533
0.14472218707411338,5234.998444103948
0.15040335536380234,5039.494508499707
0.15630754179458153,4886.556574374508
0.16244350109588662,4755.08328171204
0.16882033167003618,4619.593083839808
0.17544748908334581,4455.507385058302
0.1823348000868439,4245.923651282062
0.189492477187382,3988.0529418676633
0.19693113379074215,3696.516392550382
0.20466179993919872,3400.262386082669
0.21269593866686892,3132.271102388352
0.22104546299710207,2917.855280073953
0.22972275360711503,2766.3645056279356
0.23874067718606454,2666.5551929225308
0.2481126055137766,2588.023667335776
0.25785243528842716,2493.0141118949796
0.26797460873256895,2355.056749379403
0.27849413500806414,2174.928070414997
0.28942661247167484,1982.388763528893
0.3007882518043098,1817.3087470313822
0.31259590004822796,1703.632946537217
0.324867065587837,1634.1005004279134
0.3376199441111335,1574.8417307946374
0.35087344559027084,1489.9383090973608
0.36464722232127456,1371.3097971755594
0.37896169806447155,1246.6581588895122
0.3938380983288488,1151.3747811041283
0.4092984818452433,1093.2788836915731
0.4253657732750382,1045.5158618751525
0.44206379720285277,977.2675270471832
0.45941731346364734,891.360314118004
0.47745205385661277,818.0309708737636
0.4961947603002895,770.9665797597207
0.5156732244854959,730.1133239301811
0.5359163290848509,674.9122954519274
0.556954090580013,616.5620188224485
0.5788177037701272,574.5675109002859
0.6015395880274836,540.9548145346783
0.6251534353689703,499.36743269714236
0.6496942604146115,458.1413899215371
0.6751984523072497,427.73059334689873
0.7017038286703824,398.1149021387752
0.7292496916841444,365.40325046975704
0.7578768863625915,338.76404280022814
0.7876278611187046,314.81424749588155
0.8185467307069019,291.62802821087973
0.850679341636415,269.5319035070497
0.8840733401525058,248.68245719894136
0.9187782428863317,229.18289238364957
0.9548455102782278,211.09081519875227
0.9923286228832539,194.42430870023622
1.0312831606721837,179.1158532557638
1.0717668854455022,165.02988248760505
1.1138398264826193,152.04394548557724
1.1575643695533022,140.0510994365882
1.2030053494233226,128.95780733733412
1.2502301459914542,118.68287940002425
1.299308784200415,109.16658307778633
1.3503140378698726,100.3629108221408
1.4033215376054824,92.22752345918471
1.4584098829439835,84.71756989192764
1.5156607589006013,77.79182400968482
1.575159057091621,71.41053951637171
1.6369930016117014,65.53359065171755
1.7012542798525885,60.12231787301028
1.7680381784572046,55.14095432595012
1.8374437246107238,50.556425700038155
1.9095738328780953,46.338148488221236
1.9845354578058014,42.45791614628465
2.0624397525140905,38.89004473608448
2.143402233514853,35.610809889674215
2.227542951999554,32.59813649288464
2.314986671851158,29.831499653512648
2.405863054644063,27.29183031757675
2.5003068519063225,24.961402689713236
2.598458104929248,22.823695478652382
2.7004623524206774,20.863400833565432
2.806470846309834,19.066365164229484
2.916640776023701,17.419508000566033
3.031135501567576,15.91074601050084
3.150124795755327,14.52892497728435
3.2737850959485697,13.263756617849298
3.4022997656780634,12.10574766736909
3.5358593665351745,11.046141072348533
3.6746619407366854,10.076862530080971
3.8189133047818515,9.190470532959115
3.968827354637162,8.380107991898264
4.1246263829013445,7.639458284479344
4.286541408420921,6.962708285045162
4.4548125188449825,6.344510664979615
4.629689226627261,5.779948471000842
4.811430839003257,5.264502137151142
5.000306842491082,4.794016772554814
5.196597302486189,4.364674347819811
5.400593278542364,3.972970437355362
5.612597255954967,3.615689660461484
5.8329235942862,3.2898827770356815
6.06189899349756,2.992845739917404
6.29986297838068,2.7221034049349657
6.547168402004727,2.475389295768589
6.804181968927091,2.2506255416136383
7.071284778942991,2.0459078270230155
7.348872892180382,1.8594915603332138
7.637357916378006,1.6897779294868698
7.937167617217536,1.5352932874103742
8.248746552614573,1.394686864007288
8.572556731909314,1.2667270291269248
8.909078300934132,1.1502908315683256
9.258810253973934,1.0443543947944351
9.622271173675122,0.9479881534870075
9.999999999999984,0.8603659831467307
