k [1/Mpc],P(k) [Mpc^3]
0.0001,81.13933160690436
0.00010392556829367125,84.32387592837294
0.00010800523745162529,87.6333489334388
0.00011224505680853065,91.0726522306314
0.00011665131316981963,94.64687710102955
0.00012123054013376525,98.36130480758938
0.00012598952777950273,102.22142071064428
0.00013093533273536104,106.23292793352071
0.00013607528864243335,110.40175636559407
0.00014141701702890234,114.7340662255046
0.00014696843861124463,119.23624992743449
0.00015273778503907136,123.91494601683718
0.00015873361110102093,128.77705600723345
0.00016496480740980205,133.82975750510533
0.0001714406135851971,139.08050744276025
0.00017817063195457305,144.53704266185756
0.00018516484179121546,150.2073953632006
0.000192433614111598,156.09991056394026
0.00019998772705352857,162.22326008858104
0.0002078383818579757,168.5864516363592
0.00021599721947827182,175.19883039055324
0.0002244763378413224,182.0700943130434
0.0002332883097864157,189.2103194887434
0.00024244620170823283,196.6299859986177
0.0002519635929317015,204.33998135429775
0.0002618545958474233,212.35159020416674
0.0002721338768375308,220.67650704828137
0.0002828166780230032,229.32687497871544
0.0002939188398646886,238.31531622626824
0.0003054568246515432,247.65494056961938
0.00031744774091091926,257.3593490448202
0.00032990936877709396,267.44264672370144
0.00034286018635565856,277.91946905441523
0.00035631939712285854,288.8049727504367
0.000370306958400514,300.1148696612572
0.00038484361094874304,311.8654765591931
0.0003999509097203664,324.0737563619661
0.00041565125582259895,336.75731027095816
0.00043196792973341727,349.9343366328707
0.0004489251258218605,363.6236672835988
0.0004665479882234472,377.84482773960656
0.000484862648123908,392.61806268444343
0.000503896262506515,407.96435977732455
0.0005236770544204653,423.90546512848977
0.0005442343548300266,440.4639087386756
0.0005655986461065005,457.66302342584754
0.0005878016072274912,475.5269111672724
0.0006108761607505036,494.0805133690401
0.0006348565216305217,513.3496443887298
0.0006597782479539537,533.36101321518
0.0006856782936641739,554.1422621009835
0.0007125950633568407,575.7219671524582
0.0007405684692262436,598.1296824446596
0.0007696399902471156,621.3959239987223
0.0007998527336796708,645.5521331391988
0.000831251498989063,670.6307944425636
0.0008638828442740447,696.6654848772824
0.000897795155303332,723.6909024018516
0.0009330387172620361,751.7428100015798
0.0009696657893145519,780.8578943345498
0.001007730682094461,811.0739578234203
0.0010472898382363582,842.429984466179
0.0010884019160690055,874.966167222564
0.0011311278765939214,908.7238650826081
0.001175531073878369,943.7453800730675
0.0012216773489967915,980.0741573275003
0.0012696351276599736,1017.7547816384865
0.0013194755216767058,1056.8329505740228
0.0013712724343984,1097.3555476487518
0.0014251026703029975,1139.3703825869259
0.0014810460488806749,1182.9263432197963
0.0015391855229902056,1228.0733978598123
0.001599607301861487,1274.8624728843474
0.0016624009789266115,1323.3455846669951
0.0017276596646690358,1373.5754825449196
0.0017954801246878305,1425.6057381390192
0.0018659629231817451,1479.4907919194793
0.001939212572065829,1535.2856470777429
0.0020153376859417325,1593.0460988265545
0.002094451143151469,1652.8283836378407
0.002176670253153458,1714.6891251641161
0.002262116930469025,1778.6854095941858
0.002350917875457286,1844.8741983762318
0.002443204762186487,1913.3126408792443
0.0025391144336803463,1984.0576798516313
0.002638789104828933,2057.1657633842597
0.002742376573264949,2132.6930844454846
0.0028500304385181063,2210.694740118558
0.0029619103297725525,2291.2249961458983
0.0030781821425650787,2374.336926967786
0.003199018284775064,2460.0817540789067
0.0033245979322709396,2548.509266903846
0.003455107294592217,2639.666611591778
0.0035907398910610534,2733.5984144869826
0.0037316968377327513,2830.346554997119
0.0038781871456107214,2929.948819493128
0.0040304280305680515,3032.439676244254
0.00418864523543527,3137.848616854112
0.004353073364731888,3246.1998822220426
0.00452395623253805,3357.5127625744167
0.004701547224022131,3471.799452404646
0.004886109671160325,3589.0660172529615
0.005077917243205399,3709.3091824715116
0.005277254352483535,3832.514731628622
0.005484416576121017,3958.660983922535
0.005699711094326071,4087.7213191096666
0.005923457145875801,4219.661983542117
0.006155986501483508,4354.427930087582
0.006397643955748424,4491.931076742259
0.0066487878384172625,4632.068678764932
0.0069097905457156435,4774.737394560654
0.007181039092537346,4919.828265102156
0.007462935686310132,5067.2082400566605
0.007755898323389004,5216.700709136366
0.00806036140886134,5368.1064814662
0.008376776400682916,5521.214559988844
0.008705612479099857,5675.801172324734
0.009047357242349292,5831.6158672702195
0.00940251742967013,5988.35655853127
0.009771619672696168,6145.689911682478
0.010155211276345676,6303.245852922893
0.010553861030365234,6460.614335430564
0.010968160052731372,6617.354355948956
0.011398722666160517,6772.975407748463
0.011846187309026826,6926.950979630664
0.012311217482038896,7078.710890335794
0.012794502732078732,7227.630027590848
0.013296759674662111,7373.049371381997
0.013818733056536317,7514.244881453606
0.014361196859990781,7650.446368838872
0.014924955450518284,7780.842327897141
0.015510844769528393,7904.556010737957
0.016119733573881575,8020.684738084154
0.01675252472408214,8128.269795007681
0.017410156523040152,8226.312205927152
0.018093604107387147,8313.797125056211
0.01880388089340914,8389.657333235089
0.019542040079740527,8452.830667925118
0.02030917620904734,8502.24826388208
0.021106426791015535,8536.843590619068
0.021934973989050584,8555.596737735441
0.02279604637318978,8557.496704199502
0.023690920741826323,8541.60458145425
0.02462092401494623,8507.115249789671
0.02558743520168586,8453.38684483971
0.02659188744512693,8379.90759087347
0.027635770147361564,8286.151995080143
0.028720631177978267,8171.696033537937
0.029848079169243254,8036.706905693145
0.03101978590138095,7882.414189787169
0.03223748878149028,7710.205581803609
0.0335029934197723,7520.383695678587
0.03481817630688963,7312.613760232865
0.03618498759642746,7087.606695797515
0.037605453996581675,6848.8073200647505
0.03908168177536263,6600.012293913494
0.04061585988376978,6343.933765281468
0.04221026320156896,6082.281823938061
0.04386725591048496,5817.153429055661
0.0455892949998106,5552.282348353948
0.047378933909631396,5291.3739877065545
0.049238826317067365,5037.917157599646
0.05117173007114603,4794.9884789055195
0.05318051128214196,4565.351865854397
0.05526814857144601,4351.351484805764
0.057437737488265785,4154.7157185244005
0.0596924950997073,3976.612165050809
0.0620357647610427,3817.4479620799
0.06447102107323864,3677.0049580015684
0.06700187503509585,3554.3294184702568
0.06963207939763882,3447.6192244701383
0.0723655342286965,3354.2553496279465
0.07520629269592405,3270.6465080439957
0.07815856707684081,3192.303839891515
0.08122673500479707,3114.0950060328423
0.08441534596012978,3030.6081246284
0.0877291280161335,2936.7176863223463
0.09117299484984914,2828.315636193434
0.09475205302806537,2702.8612339255674
0.09847160957933764,2559.9128401248286
0.1023371798632519,2401.4465973567776
0.10635449574860109,2232.2000869572635
0.11052951411260206,2059.184827830178
0.1148684256737553,1890.630313169168
0.1193776641714435,1734.90843919497
0.1240639159058831,1599.4662959831505
0.12893412965257148,1489.4060876345281
0.13399552696593373,1406.729899909312
0.1392556128874462,1349.9386285212402
0.14472218707411338,1313.84905089695
0.15040335536380234,1289.742797047759
0.15630754179458153,1266.297160196725
0.16244350109588662,1231.6587977981833
0.16882033167003618,1176.6360203664212
0.17544748908334581,1098.3419141601066
0.1823348000868439,1002.3299021674321
0.189492477187382,901.1104468949644
0.19693113379074215,809.2754806932336
0.20466179993919872,738.3961870071876
0.21269593866686892,693.5857639799489
0.22104546299710207,671.5199670167656
0.22972275360711503,660.9093583531197
0.23874067718606454,646.209214717526
0.2481126055137766,614.3009928784376
0.25785243528842716,562.4383011591683
0.26797460873256895,501.1218349168549
0.27849413500806414,447.1972343489298
0.28942661247167484,412.6692513843773
0.3007882518043098,397.362635368254
0.31259590004822796,389.4000160268286
0.324867065587837,372.9893925512511
0.3376199441111335,341.32022567192183
0.35087344559027084,303.2492535236481
0.36464722232127456,273.9580360013072
0.37896169806447155,259.66903417381326
0.3938380983288488,252.0405674417154
0.4092984818452433,237.60203663205263
0.4253657732750382,213.97401881870914
0.44206379720285277,192.14871655298737
0.45941731346364734,180.28230755881538
0.47745205385661277,172.91165552319467
0.4961947603002895,160.19367217581276
0.5156732244854959,143.91355232641018
0.5359163290848509,132.70053050547077
0.556954090580013,125.95411736632643
0.5788177037701272,116.49094602352625
0.6015395880274836,105.36937904135789
0.6251534353689703,97.96919469689738
0.6496942604146115,91.73854773709517
0.6751984523072497,83.5987581689801
0.7017038286703824,77.00259170465011
0.7292496916841444,71.65076037784415
0.7578768863625915,66.2075206784246
0.7876278611187046,61.01641443241383
0.8185467307069019,56.12451280238423
0.850679341636415,51.563065978935775
0.8840733401525058,47.349874821452076
0.9187782428863317,43.48851739602259
0.9548455102782278,39.95313671340663
0.9923286228832539,36.71015343444144
1.0312831606721837,33.7301737636043
1.0717668854455022,30.987464289366294
1.1138398264826193,28.459466016136105
1.1575643695533022,26.12760925585563
1.2030053494233226,23.97762600198092
1.2502301459914542,21.99646048454618
1.299308784200415,20.171865455054288
1.3503140378698726,18.49236637356688
1.4033215376054824,16.9472182452201
1.4584098829439835,15.526301650685607
1.5156607589006013,14.220145036166846
1.575159057091621,13.019945395975125
1.6369930016117014,11.9175271963744
1.7012542798525885,10.905302417975646
1.7680381784572046,9.976228018142573
1.8374437246107238,9.1237636034475
1.9095738328780953,8.34185210581554
1.9845354578058014,7.624889466495576
2.0624397525140905,6.967693268485822
2.143402233514853,6.365473321439625
2.227542951999554,5.813804391613287
2.314986671851158,5.308600167638143
2.405863054644063,4.846088691663016
2.5003068519063225,4.4227897490418036
2.598458104929248,4.035493743010772
2.7004623524206774,3.6812416163739274
2.806470846309834,3.3573055021950426
2.916640776023701,3.0611730365920624
3.031135501567576,2.7905316848065924
3.150124795755327,2.5432536822744134
3.2737850959485697,2.3173820181245817
3.4022997656780634,2.1111170400493102
3.5358593665351745,1.922804426027787
3.6746619407366854,1.7509245299921505
3.8189133047818515,1.5940819407256641
3.968827354637162,1.4509957671586808
4.1246263829013445,1.3204906114975743
4.286541408420921,1.2014881039501053
4.4548125188449825,1.092999362539452
4.629689226627261,0.9941179352881231
4.811430839003257,0.9040131909447583
5.000306842491082,0.8219242115824854
5.196597302486189,0.7471539744656039
5.400593278542364,0.6790640879487265
5.612597255954967,0.6170703706940055
5.8329235942862,0.5606384301121327
6.06189899349756,0.5092795490548104
6.29986297838068,0.46254695490228703
6.547168402004727,0.4200327838892065
6.804181968927091,0.3813644465844553
7.071284778942991,0.34620134481996695
7.348872892180382,0.31423222094366055
7.637357916378006,0.2851727192039146
7.937167617217536,0.2587625078238352
8.248746552614573,0.23476251675742496
8.572556731909314,0.21295489234905463
8.909078300934132,0.19314140060582063
9.258810253973934,0.1751416553080703
9.622271173675122,0.15879168717000405
9.999999999999984,0.14394505925314527
