k [1/Mpc],P(k) [Mpc^3]
0.0001,1068.9046697974163
0.00010392556829367125,1110.7708020431999
0.00010800523745162529,1154.269000972228
0.00011224505680853065,1199.461956105108
0.00011665131316981963,1246.414661491046
0.00012123054013376525,1295.1944615327382
0.00012598952777950273,1345.8711809313934
0.00013093533273536104,1398.517108042718
0.00013607528864243335,1453.2071133406016
0.00014141701702890234,1510.0187790214725
0.00014696843861124463,1569.0324394517518
0.00015273778503907136,1630.3313162072698
0.00015873361110102093,1694.0014016252226
0.00016496480740980205,1760.1315135181242
0.0001714406135851971,1828.8135731712064
0.00017817063195457305,1900.1426318881836
0.00018516484179121546,1974.2170172209999
0.000192433614111598,2051.1382433085696
0.00019998772705352857,2131.0109119876192
0.0002078383818579757,2213.943076093945
0.00021599721947827182,2300.046065466157
0.0002244763378413224,2389.4346654710766
0.0002332883097864157,2482.2272581919374
0.00024244620170823283,2578.5456419377115
0.0002519635929317015,2678.5153549714446
0.0002618545958474233,2782.265322688389
0.0002721338768375308,2889.927849020635
0.0002828166780230032,3001.639031882241
0.0002939188398646886,3117.5383951122863
0.0003054568246515432,3237.7692235586865
0.00031744774091091926,3362.4782999887266
0.00032990936877709396,3491.8155235819722
0.00034286018635565856,3625.934537455646
0.00035631939712285854,3764.9923242143327
0.000370306958400514,3909.149361207124
0.00038484361094874304,4058.5694174590303
0.0003999509097203664,4213.418481617691
0.00041565125582259895,4373.865711573189
0.00043196792973341727,4540.083233049873
0.0004489251258218605,4712.246011571846
0.0004665479882234472,4890.531754761551
0.000484862648123908,5075.119138976732
0.000503896262506515,5266.188711881739
0.0005236770544204653,5463.922574902399
0.0005442343548300266,5668.50354348571
0.0005655986461065005,5880.11575363291
0.0005878016072274912,6098.942690509673
0.0006108761607505036,6325.167443777293
0.0006348565216305217,6558.972288552453
0.0006597782479539537,6800.535911490879
0.0006856782936641739,7050.035213501631
0.0007125950633568407,7307.643025397135
0.0007405684692262436,7573.527243234944
0.0007696399902471156,7847.851464335844
0.0007998527336796708,8130.770432498488
0.000831251498989063,8422.43188504672
0.0008638828442740447,8722.975473362487
0.000897795155303332,9032.530480044974
0.0009330387172620361,9351.21700847556
0.0009696657893145519,9679.142138628516
0.001007730682094461,10016.39995948528
0.0010472898382363582,10363.0700971033
0.0010884019160690055,10719.211901676199
0.0011311278765939214,11084.86784141084
0.001175531073878369,11460.060424084559
0.0012216773489967915,11844.790580322519
0.0012696351276599736,12239.038045519388
0.0013194755216767058,12642.755827031502
0.0013712724343984,13055.871658864267
0.0014251026703029975,13478.285265781202
0.0014810460488806749,13909.86460101321
0.0015391855229902056,14350.447827355956
0.001599607301861487,14799.837170895904
0.0016624009789266115,15257.799228608634
0.0017276596646690358,15724.065035583972
0.0017954801246878305,16198.325730808936
0.0018659629231817451,16680.234044310655
0.001939212572065829,17169.39682055655
0.0020153376859417325,17665.373144911056
0.002094451143151469,18167.678637386187
0.002176670253153458,18675.781373522128
0.002262116930469025,19189.10321336781
0.002350917875457286,19707.008016648077
0.002443204762186487,20228.79149754789
0.0025391144336803463,20753.69823710254
0.002638789104828933,21280.928571781555
0.002742376573264949,21809.636849291328
0.0028500304385181063,22338.89449546997
0.0029619103297725525,22867.622205688425
0.0030781821425650787,23394.671595803607
0.003199018284775064,23919.010494068272
0.0033245979322709396,24439.735907568756
0.003455107294592217,24955.798511420133
0.0035907398910610534,25465.446003691322
0.0037316968377327513,25966.629873988284
0.0038781871456107214,26457.54923187791
0.0040304280305680515,26936.902001771385
0.00418864523543527,27403.36440308322
0.004353073364731888,27855.040495922127
0.00452395623253805,28289.674213774648
0.004701547224022131,28705.10045959449
0.004886109671160325,29099.53765608805
0.005077917243205399,29471.261146079505
0.005277254352483535,29818.16692807654
0.005484416576121017,30137.781495327694
0.005699711094326071,30427.58069475853
0.005923457145875801,30684.841440017914
0.006155986501483508,30906.80835255357
0.006397643955748424,31090.737318092688
0.0066487878384172625,31233.890379387034
0.0069097905457156435,31333.59576575122
0.007181039092537346,31386.90863909394
0.007462935686310132,31390.831195998944
0.007755898323389004,31342.41493208933
0.00806036140886134,31238.50666619236
0.008376776400682916,31076.179560064014
0.008705612479099857,30852.480046683606
0.009047357242349292,30564.52903714249
0.00940251742967013,30209.816118768136
0.009771619672696168,29785.665505245513
0.010155211276345676,29289.892568674448
0.010553861030365234,28720.64707527314
0.010968160052731372,28076.256578534798
0.011398722666160517,27355.990642900277
0.011846187309026826,26559.31851804667
0.012311217482038896,25686.585874507542
0.012794502732078732,24739.211520635436
0.013296759674662111,23719.01565034938
0.013818733056536317,22629.499918929603
0.014361196859990781,21475.03837582377
0.014924955450518284,20261.212841311393
0.015510844769528393,18995.571499871985
0.016119733573881575,17686.324275802555
0.01675252472408214,16343.725351658597
0.017410156523040152,14979.419301483189
0.018093604107387147,13605.918511453125
0.01880388089340914,12237.65969849076
0.019542040079740527,10889.268413544956
0.02030917620904734,9576.133466438612
0.021106426791015535,8314.10184748962
0.021934973989050584,7118.13266891643
0.02279604637318978,6002.403223925962
0.023690920741826323,4979.2419646330345
0.02462092401494623,4058.258037862138
0.02558743520168586,3246.3692419647095
0.02659188744512693,2548.5824375425236
0.027635770147361564,1963.9939557555458
0.028720631177978267,1487.8837969504905
0.029848079169243254,1111.957883508849
0.03101978590138095,824.0816385975879
0.03223748878149028,614.890606635333
0.0335029934197723,470.88926376438707
0.03481817630688963,378.7960256328507
0.03618498759642746,328.47243190964605
0.037605453996581675,312.4784197226273
0.03908168177536263,328.8002046896475
0.04061585988376978,378.1269485584364
0.04221026320156896,462.2412348269676
0.04386725591048496,582.9925698864955
0.0455892949998106,737.7924011887899
0.047378933909631396,918.3439960851416
0.049238826317067365,1108.2697103034934
0.05117173007114603,1284.003515292481
0.05318051128214196,1417.60167529853
0.05526814857144601,1483.1269433168466
0.057437737488265785,1460.995991567388
0.0596924950997073,1343.1907547595686
0.0620357647610427,1143.156137237344
0.06447102107323864,892.4352211636166
0.06700187503509585,632.9542067511766
0.06963207939763882,404.89281309989224
0.0723655342286965,233.88236420807374
0.07520629269592405,125.4944853161753
0.07815856707684081,69.51110494805907
0.08122673500479707,49.32273643484841
0.08441534596012978,54.54273657300882
0.0877291280161335,85.65227687012474
0.09117299484984914,148.24016273385124
0.09475205302806537,237.78217401006748
0.09847160957933764,327.9034920105274
0.1023371798632519,378.97780323457266
0.10635449574860109,363.40400212305934
0.11052951411260206,284.7778404046347
0.1148684256737553,179.31048223639917
0.1193776641714435,91.76807574187364
0.1240639159058831,42.9923199047677
0.12893412965257148,26.885158739578692
0.13399552696593373,33.165674944185
0.1392556128874462,60.99951407911493
0.14472218707411338,104.0837874301283
0.15040335536380234,135.2966769338295
0.15630754179458153,126.72020904042279
0.16244350109588662,85.01981462654639
0.16882033167003618,43.35300292848414
0.17544748908334581,22.80394714655941
0.1823348000868439,21.93927883283351
0.189492477187382,35.95901028355386
0.19693113379074215,54.8627920242408
0.20466179993919872,57.59157650028593
0.21269593866686892,40.015951738341066
0.22104546299710207,21.89297099723459
0.22972275360711503,16.066844659059978
0.23874067718606454,21.150654077822463
0.2481126055137766,29.056956042389768
0.25785243528842716,27.297871208728115
0.26797460873256895,17.83033902260455
0.27849413500806414,12.591838764865381
0.28942661247167484,14.253348607801888
0.3007882518043098,17.09959147921032
0.31259590004822796,14.501605531127195
0.324867065587837,10.293532486653259
0.3376199441111335,9.750441494313367
0.35087344559027084,10.853075767296858
0.36464722232127456,9.463926421739258
0.37896169806447155,7.46338422097326
0.3938380983288488,7.363094287630698
0.4092984818452433,7.183422218099869
0.4253657732750382,6.028270974091065
0.44206379720285277,5.237407881409179
0.45941731346364734,4.744671135538482
0.47745205385661277,4.415989392216897
0.4961947603002895,4.16052575562653
0.5156732244854959,3.9096042335353935
0.5359163290848509,3.6209029367538315
0.556954090580013,3.3073922054907
0.5788177037701272,2.9914881793915584
0.6015395880274836,2.6901080700402256
0.6251534353689703,2.4147994807625928
0.6496942604146115,2.172534533492011
0.6751984523072497,1.9639704864688565
0.7017038286703824,1.7825469369305171
0.7292496916841444,1.6223259605342426
0.7578768863625915,1.4786989549838938
0.7876278611187046,1.3480912710337067
0.8185467307069019,1.2277728184147991
0.850679341636415,1.1164304377561944
0.8840733401525058,1.0138898195624362
0.9187782428863317,0.9199200440925921
0.9548455102782278,0.8341889105217637
0.9923286228832539,0.7562903150920811
1.0312831606721837,0.6857556335462619
1.0717668854455022,0.6219371551908184
1.1138398264826193,0.5641333405583192
1.1575643695533022,0.5117234500511914
1.2030053494233226,0.4641595593293195
1.2502301459914542,0.4209571091229789
1.299308784200415,0.38169116356575933
1.3503140378698726,0.3460093440801333
1.4033215376054824,0.31359985364149556
1.4584098829439835,0.2841757744765057
1.5156607589006013,0.25747336209881133
1.575159057091621,0.23325044475075093
1.6369930016117014,0.21128377329434075
1.7012542798525885,0.19136566357025178
1.7680381784572046,0.17330662024836996
1.8374437246107238,0.15693456727954308
1.9095738328780953,0.14209325333298178
1.9845354578058014,0.12864080397861805
2.0624397525140905,0.1164484999948224
2.143402233514853,0.10539960832044122
2.227542951999554,0.0953880985013245
2.314986671851158,0.08631765493950606
2.405863054644063,0.07810079817870974
2.5003068519063225,0.07065808762328359
2.598458104929248,0.06391745610493325
2.7004623524206774,0.05781351645321638
2.806470846309834,0.05228687873492588
2.916640776023701,0.04728360750358378
3.031135501567576,0.04275473030529479
3.150124795755327,0.03865578458990511
3.2737850959485697,0.03494637076870429
3.4022997656780634,0.03158981770444814
3.5358593665351745,0.028552871550253975
3.6746619407366854,0.025805381072479087
3.8189133047818515,0.023320011275010925
3.968827354637162,0.021071984478821307
4.1246263829013445,0.019038848150741944
4.286541408420921,0.01720025343807571
4.4548125188449825,0.015537758209959932
4.629689226627261,0.014034650485996749
4.811430839003257,0.012675788002082489
5.000306842491082,0.011447452110363463
5.196597302486189,0.010337215021724152
5.400593278542364,0.009333820592617597
5.612597255954967,0.00842707521221213
5.8329235942862,0.007607748570509773
6.06189899349756,0.00686748361867925
6.29986297838068,0.006198716419917757
6.547168402004727,0.005594601886208473
6.804181968927091,0.005048943716304538
7.071284778942991,0.004556133440948158
7.348872892180382,0.004111095315672817
7.637357916378006,0.0037092357116253827
7.937167617217536,0.0033463892772867703
8.248746552614573,0.0030187835673555893
8.572556731909314,0.0027230104055979624
8.909078300934132,0.0024559908683078227
9.258810253973934,0.002214943407104256
9.622271173675122,0.0019973584404303518
9.999999999999984,0.0018009915504197513
