k [1/Mpc],P(k) [Mpc^3]
0.0001,401.4415672330647
0.00010392556829367125,414.79567349451014
0.00010800523745162529,428.5938379057906
0.00011224505680853065,442.8507970088794
0.00011665131316981963,457.58177869298214
0.00012123054013376525,472.8025311116375
0.00012598952777950273,488.52932847574795
0.00013093533273536104,504.7789670152255
0.00013607528864243335,521.568776486394
0.00014141701702890234,538.916659884896
0.00014696843861124463,556.8411317476109
0.00015273778503907136,575.3613272180205
0.00015873361110102093,594.4969991144441
0.00016496480740980205,614.2685226935968
0.0001714406135851971,634.696941309451
0.00017817063195457305,655.8040067912433
0.00018516484179121546,677.6121977411692
0.000192433614111598,700.1447300855745
0.00019998772705352857,723.4255732615414
0.0002078383818579757,747.4794815179984
0.00021599721947827182,772.331994783233
0.0002244763378413224,798.0094625650457
0.0002332883097864157,824.5390953037115
0.00024244620170823283,851.9490019088662
0.0002519635929317015,880.2682117956397
0.0002618545958474233,909.5266908464292
0.0002721338768375308,939.7553652906821
0.0002828166780230032,970.9861620214606
0.0002939188398646886,1003.2520164980797
0.0003054568246515432,1036.5869164753017
0.00031744774091091926,1071.025929789299
0.00032990936877709396,1106.60521345116
0.00034286018635565856,1143.3620772906245
0.00035631939712285854,1181.3350017007167
0.000370306958400514,1220.5636774677034
0.00038484361094874304,1261.089057138929
0.0003999509097203664,1302.953387504584
0.00041565125582259895,1346.20025204
0.00043196792973341727,1390.8745261557692
0.0004489251258218605,1437.0223928226283
0.0004665479882234472,1484.6914648337636
0.000484862648123908,1533.9308060078613
0.000503896262506515,1584.7909893068593
0.0005236770544204653,1637.3241327976616
0.0005442343548300266,1691.583927946225
0.0005655986461065005,1747.625686016961
0.0005878016072274912,1805.5061539264536
0.0006108761607505036,1865.283632156233
0.0006348565216305217,1927.0181935218845
0.0006597782479539537,1990.7718145025492
0.0006856782936641739,2056.608323073739
0.0007125950633568407,2124.5931492343198
0.0007405684692262436,2194.7933612890497
0.0007696399902471156,2267.277936927082
0.0007998527336796708,2342.1178144832206
0.000831251498989063,2419.385937024518
0.0008638828442740447,2499.157071060749
0.000897795155303332,2581.507728727592
0.0009330387172620361,2666.5164461060767
0.0009696657893145519,2754.2636469357517
0.001007730682094461,2844.831777019501
0.0010472898382363582,2938.305325478582
0.0010884019160690055,3034.7707191406625
0.0011311278765939214,3134.316491550819
0.001175531073878369,3237.0327493648106
0.0012216773489967915,3343.0113010237365
0.0012696351276599736,3452.3459938508277
0.0013194755216767058,3565.1325318339686
0.0013712724343984,3681.468652857335
0.0014251026703029975,3801.453533014811
0.0014810460488806749,3925.1876355333306
0.0015391855229902056,4052.7731958829686
0.001599607301861487,4184.313565602509
0.0016624009789266115,4319.9136071319135
0.0017276596646690358,4459.679426885597
0.0017954801246878305,4603.717928862197
0.0018659629231817451,4752.137314432432
0.001939212572065829,4905.046047067925
0.0020153376859417325,5062.553146966025
0.002094451143151469,5224.768167227027
0.002176670253153458,5391.80018218319
0.002262116930469025,5563.758575052537
0.002350917875457286,5740.751694398626
0.002443204762186487,5922.886722175813
0.0025391144336803463,6110.270276142702
0.002638789104828933,6303.007086484097
0.002742376573264949,6501.200658770698
0.0028500304385181063,6704.951797248623
0.0029619103297725525,6914.357611299998
0.0030781821425650787,7129.512771578177
0.003199018284775064,7350.507608422842
0.0033245979322709396,7577.4286757868485
0.003455107294592217,7810.35758477628
0.0035907398910610534,8049.368723602638
0.0037316968377327513,8294.531182305225
0.0038781871456107214,8545.90602301078
0.0040304280305680515,8803.546406949543
0.00418864523543527,9067.497499172468
0.004353073364731888,9337.792757433675
0.00452395623253805,9614.456226996088
0.004701547224022131,9897.49846924451
0.004886109671160325,10186.915224759408
0.005077917243205399,10482.689726207116
0.005277254352483535,10784.787564201482
0.005484416576121017,11093.158996260265
0.005699711094326071,11407.733266837087
0.005923457145875801,11728.412963885181
0.006155986501483508,12055.082650439184
0.006397643955748424,12387.614193359275
0.0066487878384172625,12725.863879822424
0.0069097905457156435,13069.648244280435
0.007181039092537346,13418.709196119098
0.007462935686310132,13772.753828931196
0.007755898323389004,14131.486239317388
0.00806036140886134,14494.604843721942
0.008376776400682916,14861.766876337504
0.008705612479099857,15232.537568581825
0.009047357242349292,15606.431260814856
0.00940251742967013,15982.943047553752
0.009771619672696168,16361.554873822803
0.010155211276345676,16741.707024426432
0.010553861030365234,17122.74319203336
0.010968160052731372,17503.941323620485
0.011398722666160517,17884.522224581815
0.011846187309026826,18263.63438459497
0.012311217482038896,18640.377089816495
0.012794502732078732,19013.786510825066
0.013296759674662111,19382.842901526947
0.013818733056536317,19746.468891010227
0.014361196859990781,20103.49820552981
0.014924955450518284,20452.713331805247
0.015510844769528393,20792.82921142783
0.016119733573881575,21122.49604511677
0.01675252472408214,21440.324379704874
0.017410156523040152,21744.86318714447
0.018093604107387147,22034.629052807366
0.01880388089340914,22308.110445820905
0.019542040079740527,22563.76805982873
0.02030917620904734,22800.063970747506
0.021106426791015535,23015.478873453285
0.021934973989050584,23208.52007975871
0.02279604637318978,23377.745794823884
0.023690920741826323,23521.79901498985
0.02462092401494623,23639.396667601504
0.02558743520168586,23729.461053226816
0.02659188744512693,23791.102352726113
0.027635770147361564,23823.543697439643
0.028720631177978267,23826.169930310836
0.029848079169243254,23798.5096982698
0.03101978590138095,23740.825000897727
0.03223748878149028,23654.2169776047
0.0335029934197723,23539.809253115374
0.03481817630688963,23398.102308242618
0.03618498759642746,23229.427424629714
0.037605453996581675,23034.98734410658
0.03908168177536263,22817.453191544384
0.04061585988376978,22579.61399095241
0.04221026320156896,22323.94163433682
0.04386725591048496,22052.699584437036
0.0455892949998106,21768.367250071304
0.047378933909631396,21474.10403419289
0.049238826317067365,21173.020486901914
0.05117173007114603,20867.35058478574
0.05318051128214196,20558.693855082456
0.05526814857144601,20247.733546569965
0.057437737488265785,19933.980037381916
0.0596924950997073,19616.181038896913
0.0620357647610427,19291.945496470493
0.06447102107323864,18958.404695349353
0.06700187503509585,18612.14983627985
0.06963207939763882,18249.53461067613
0.0723655342286965,17866.842365379274
0.07520629269592405,17460.491170493453
0.07815856707684081,17027.496126521277
0.08122673500479707,16565.924018353304
0.08441534596012978,16075.877740389602
0.0877291280161335,15560.145145997876
0.09117299484984914,15024.580816499194
0.09475205302806537,14477.952526047464
0.09847160957933764,13930.95179482268
0.1023371798632519,13394.32697343266
0.10635449574860109,12877.853528922271
0.11052951411260206,12388.870271437125
0.1148684256737553,11931.37159810344
0.1193776641714435,11505.095266585775
0.1240639159058831,11104.568569151943
0.12893412965257148,10719.106458040804
0.13399552696593373,10336.02179270002
0.1392556128874462,9944.053977963029
0.14472218707411338,9532.592750892669
0.15040335536380234,9099.285966262114
0.15630754179458153,8651.101332246713
0.16244350109588662,8202.016080486821
0.16882033167003618,7769.3005679844455
0.17544748908334581,7367.9628646551255
0.1823348000868439,7005.776926293409
0.189492477187382,6679.940007312912
0.19693113379074215,6376.5194151864025
0.20466179993919872,6076.1401919242735
0.21269593866686892,5764.922673680165
0.22104546299710207,5441.457537615868
0.22972275360711503,5116.472939598864
0.23874067718606454,4807.90118573027
0.2481126055137766,4529.659190975354
0.25785243528842716,4281.554953074326
0.26797460873256895,4051.1861682397466
0.27849413500806414,3823.0185309401527
0.28942661247167484,3590.0789326175704
0.3007882518043098,3359.2857575440607
0.31259590004822796,3143.774053615689
0.324867065587837,2949.924327590991
0.3376199441111335,2771.6897655905136
0.35087344559027084,2598.812312057921
0.36464722232127456,2427.5820368548343
0.37896169806447155,2263.9703420032297
0.3938380983288488,2114.0779201245696
0.4092984818452433,1976.1161090136331
0.4253657732750382,1843.7348873723188
0.44206379720285277,1715.7740820466654
0.45941731346364734,1596.422728328051
0.47745205385661277,1486.7170395326077
0.4961947603002895,1382.8436752778111
0.5156732244854959,1283.8490975136021
0.5359163290848509,1191.8911136018944
0.556954090580013,1106.3604819579793
0.5788177037701272,1025.7208516621597
0.6015395880274836,950.3195935807679
0.6251534353689703,880.131286664874
0.6496942604146115,814.5417929006961
0.6751984523072497,753.2847491591697
0.7017038286703824,696.3817110814656
0.7292496916841444,643.2684148737718
0.7578768863625915,593.9070182843036
0.7876278611187046,548.025813324496
0.8185467307069019,505.41372025809324
0.850679341636415,465.8591938725872
0.8840733401525058,429.1626178660388
0.9187782428863317,395.1438484223068
0.9548455102782278,363.63128833777523
0.9923286228832539,334.4617820533569
1.0312831606721837,307.4804734961686
1.0717668854455022,282.5400063443285
1.1138398264826193,259.4998152351204
1.1575643695533022,238.22747865274803
1.2030053494233226,218.5985920884787
1.2502301459914542,200.49639928714342
1.299308784200415,183.8114333772057
1.3503140378698726,168.44127855867825
1.4033215376054824,154.29018839883335
1.4584098829439835,141.26858401623616
1.5156607589006013,129.2927306332377
1.575159057091621,118.28443138867328
1.6369930016117014,108.17071809883979
1.7012542798525885,98.88346901076945
1.7680381784572046,90.35921570554383
1.8374437246107238,82.53894409019848
1.9095738328780953,75.36782479317333
1.9845354578058014,68.7949547732195
2.0624397525140905,62.773107953810566
2.143402233514853,57.25849205154634
2.227542951999554,52.21053994885005
2.314986671851158,47.59170203592625
2.405863054644063,43.367245024696
2.5003068519063225,39.50506177016129
2.598458104929248,35.97548174441776
2.7004623524206774,32.75109552211615
2.806470846309834,29.80661986822641
2.916640776023701,27.118749120185253
3.031135501567576,24.66601256641789
3.150124795755327,22.428640666506375
3.2737850959485697,20.38843477284906
3.4022997656780634,18.52865240125975
3.5358593665351745,16.833905170816912
3.6746619407366854,15.290056593631542
3.8189133047818515,13.884126540850575
3.968827354637162,12.60420209717729
4.1246263829013445,11.439353009161595
4.286541408420921,10.379556849087608
4.4548125188449825,9.415629113270375
4.629689226627261,8.539156864439635
4.811430839003257,7.74243723529152
5.000306842491082,7.018418891888031
5.196597302486189,6.360645292243322
5.400593278542364,5.763212910415246
5.612597255954967,5.220727672986089
5.8329235942862,4.72826271849817
6.06189899349756,4.2813195102054715
6.29986297838068,3.8757954482564347
6.547168402004727,3.5079525583265436
6.804181968927091,3.1743792659809147
7.071284778942991,2.8719623402982113
7.348872892180382,2.5978619983006026
7.637357916378006,2.3494883892207064
7.937167617217536,2.124468629564192
8.248746552614573,1.9206328954547014
8.572556731909314,1.7360112186530936
8.909078300934132,1.5688156720039068
9.258810253973934,1.41742354098009
9.622271173675122,1.2803659591232983
9.999999999999984,1.1563402231833708
