k [1/Mpc],P(k) [Mpc^3]
0.0001,12362.030805537497
0.00010392556829367125,12772.236191296115
0.00010800523745162529,13195.965064037096
0.00011224505680853065,13633.653157585424
0.00011665131316981963,14085.749193390848
0.00012123054013376525,14552.714848745132
0.00012598952777950273,15035.025657457016
0.00013093533273536104,15533.170242850441
0.00013607528864243335,16047.651060337535
0.00014141701702890234,16578.98522805764
0.00014696843861124463,17127.704346549497
0.00015273778503907136,17694.35534178815
0.00015873361110102093,18279.498555890375
0.00016496480740980205,18883.70773016589
0.0001714406135851971,19507.572361400533
0.00017817063195457305,20151.697300860178
0.00018516484179121546,20816.703618775187
0.000192433614111598,21503.22695574759
0.00019998772705352857,22211.915824212796
0.0002078383818579757,22943.434748363947
0.00021599721947827182,23698.461750346014
0.0002244763378413224,24477.689523767665
0.0002332883097864157,25281.826176732266
0.00024244620170823283,26111.592681425107
0.0002519635929317015,26967.72547765575
0.0002618545958474233,27850.972204514277
0.0002721338768375308,28762.09099455096
0.0002828166780230032,29701.853979476382
0.0002939188398646886,30671.0429579104
0.0003054568246515432,31670.452080305346
0.00031744774091091926,32700.884615465362
0.00032990936877709396,33763.14867415001
0.00034286018635565856,34858.062772726706
0.00035631939712285854,35986.45133475736
0.000370306958400514,37149.14565818124
0.00038484361094874304,38346.98145684192
0.0003999509097203664,39580.78831658643
0.00041565125582259895,40851.39839192721
0.00043196792973341727,42159.644112886584
0.0004489251258218605,43506.35664343834
0.0004665479882234472,44892.36466770139
0.000484862648123908,46318.477921811
0.000503896262506515,47785.49557370314
0.0005236770544204653,49294.20331131625
0.0005442343548300266,50845.36584888345
0.0005655986461065005,52439.732593180204
0.0005878016072274912,54078.02026278971
0.0006108761607505036,55760.915742050485
0.0006348565216305217,57489.07293819482
0.0006597782479539537,59263.089236912594
0.0006856782936641739,61083.522437711676
0.0007125950633568407,62950.87192135115
0.0007405684692262436,64865.57264396527
0.0007696399902471156,66828.00214376238
0.0007998527336796708,68838.44338744476
0.000831251498989063,70897.10281490808
0.0008638828442740447,73004.10331266043
0.000897795155303332,75159.46745292516
0.0009330387172620361,77363.1300792202
0.0009696657893145519,79614.909100922
0.001007730682094461,81914.50904270181
0.0010472898382363582,84261.51229711248
0.0010884019160690055,86655.33564244915
0.0011311278765939214,89095.26232443903
0.001175531073878369,91580.42139043231
0.0012216773489967915,94109.77941920275
0.0012696351276599736,96682.14840337669
0.0013194755216767058,99296.14698853176
0.0013712724343984,101950.21769536786
0.0014251026703029975,104642.61111189696
0.0014810460488806749,107371.36280109124
0.0015391855229902056,110134.31518547538
0.001599607301861487,112929.07677309176
0.0016624009789266115,115753.03185743446
0.0017276596646690358,118603.34819303274
0.0017954801246878305,121476.95151785506
0.0018659629231817451,124370.54447817293
0.001939212572065829,127280.5585798996
0.0020153376859417325,130203.1492199008
0.002094451143151469,133134.23623042228
0.002176670253153458,136069.48216936566
0.002262116930469025,139004.31066806597
0.002350917875457286,141933.8298400128
0.002443204762186487,144852.77021216243
0.0025391144336803463,147755.61832340114
0.002638789104828933,150636.67425183827
0.002742376573264949,153490.0465406963
0.0028500304385181063,156309.4011900827
0.0029619103297725525,159087.50464204018
0.0030781821425650787,161816.81658575026
0.003199018284775064,164490.7754885112
0.0033245979322709396,167103.86163120499
0.003455107294592217,169649.69643768488
0.0035907398910610534,172117.30684184612
0.0037316968377327513,174493.99326095163
0.0038781871456107214,176769.01650742898
0.0040304280305680515,178935.21431086017
0.00418864523543527,180985.46426809148
0.004353073364731888,182909.0707133489
0.00452395623253805,184693.25445429943
0.004701547224022131,186326.14460949364
0.004886109671160325,187798.64494250427
0.005077917243205399,189102.262531247
0.005277254352483535,190226.3105220977
0.005484416576121017,191158.03682514993
0.005699711094326071,191884.69825340065
0.005923457145875801,192392.63507767464
0.006155986501483508,192668.34082036628
0.006397643955748424,192698.7327191227
0.0066487878384172625,192471.11294587885
0.0069097905457156435,191973.5300880448
0.007181039092537346,191192.69577409275
0.007462935686310132,190115.3606528482
0.007755898323389004,188728.9339796803
0.00806036140886134,187019.9490759005
0.008376776400682916,184976.65888223183
0.008705612479099857,182587.49380437357
0.009047357242349292,179841.65662273427
0.00940251742967013,176730.82582782497
0.009771619672696168,173245.98232401334
0.010155211276345676,169381.22964513247
0.010553861030365234,165132.80640464774
0.010968160052731372,160498.13225716192
0.011398722666160517,155480.11941198073
0.011846187309026826,150082.82130803211
0.012311217482038896,144315.20165644266
0.012794502732078732,138192.09131170408
0.013296759674662111,131730.28633654883
0.013818733056536317,124955.55555179305
0.014361196859990781,117897.93552385214
0.014924955450518284,110593.43042035514
0.015510844769528393,103087.94768676748
0.016119733573881575,95429.96216185366
0.01675252472408214,87677.84411565171
0.017410156523040152,79896.07110877162
0.018093604107387147,72152.26186195295
0.01880388089340914,64522.63509901408
0.019542040079740527,57082.641929898564
0.02030917620904734,49909.956495999715
0.021106426791015535,43082.80587219831
0.021934973989050584,36672.993097643914
0.02279604637318978,30746.599017607776
0.023690920741826323,25358.68840343713
0.02462092401494623,20549.196847343235
0.02558743520168586,16343.488006099891
0.02659188744512693,12756.66522826873
0.027635770147361564,9773.953267763598
0.028720631177978267,7361.914417152613
0.029848079169243254,5470.18138300189
0.03101978590138095,4030.65164655969
0.03223748878149028,2990.1606716424208
0.0335029934197723,2276.7067437785963
0.03481817630688963,1820.896905154147
0.03618498759642746,1569.8946475322894
0.037605453996581675,1484.8522838298077
0.03908168177536263,1553.4130157318652
0.04061585988376978,1776.1683593102905
0.04221026320156896,2158.772229883739
0.04386725591048496,2707.0283039617216
0.0455892949998106,3406.085877374297
0.047378933909631396,4215.202522618818
0.049238826317067365,5057.666130971014
0.05117173007114603,5825.89354701985
0.05318051128214196,6395.024146239984
0.05526814857144601,6652.087209727678
0.057437737488265785,6515.087800011531
0.0596924950997073,5955.257998674363
0.0620357647610427,5039.182397453496
0.06447102107323864,3911.315659865331
0.06700187503509585,2758.1005459421986
0.06963207939763882,1754.1612394588822
0.0723655342286965,1007.4385295787437
0.07520629269592405,537.4491269712951
0.07815856707684081,295.9774000540596
0.08122673500479707,208.80608993084726
0.08441534596012978,229.57498277218957
0.0877291280161335,358.44141852298276
0.09117299484984914,616.7892517638867
0.09475205302806537,983.6528309893432
0.09847160957933764,1348.653032613624
0.1023371798632519,1549.7427182329197
0.10635449574860109,1477.498929842393
0.11052951411260206,1151.1589654384095
0.1148684256737553,720.6533756898676
0.1193776641714435,366.6941746478947
0.1240639159058831,170.80276820109867
0.12893412965257148,106.19602674215804
0.13399552696593373,130.24952310574747
0.1392556128874462,238.18001385038102
0.14472218707411338,404.0672636544261
0.15040335536380234,522.215007156112
0.15630754179458153,486.2949255814157
0.16244350109588662,324.38864948681345
0.16882033167003618,164.4584981047839
0.17544748908334581,86.00799018004227
0.1823348000868439,82.27023920915607
0.189492477187382,134.0663485517269
0.19693113379074215,203.36752133084985
0.20466179993919872,212.253224018117
0.21269593866686892,146.62908284300255
0.22104546299710207,79.75966257531249
0.22972275360711503,58.19703244072593
0.23874067718606454,76.17030353296643
0.2481126055137766,104.04078948563122
0.25785243528842716,97.17933926342357
0.26797460873256895,63.10974147390682
0.27849413500806414,44.311616457669736
0.28942661247167484,49.86972634557825
0.3007882518043098,59.483628359008996
0.31259590004822796,50.15560146592752
0.324867065587837,35.396427671270864
0.3376199441111335,33.33580244895066
0.35087344559027084,36.89190713458269
0.36464722232127456,31.984625187970476
0.37896169806447155,25.0782570444914
0.3938380983288488,24.598778962410563
0.4092984818452433,23.860317623959187
0.4253657732750382,19.908073325734545
0.44206379720285277,17.196675729470133
0.45941731346364734,15.48908842971817
0.47745205385661277,14.333076000256906
0.4961947603002895,13.426141990978067
0.5156732244854959,12.54375191394344
0.5359163290848509,11.550563757800285
0.556954090580013,10.489713723593312
0.5788177037701272,9.433152756783262
0.6015395880274836,8.433948452123309
0.6251534353689703,7.527208181619465
0.6496942604146115,6.733039790959647
0.6751984523072497,6.051612182945193
0.7017038286703824,5.460956843269785
0.7292496916841444,4.941485516694057
0.7578768863625915,4.478069336366377
0.7876278611187046,4.059027401830263
0.8185467307069019,3.6754654078529363
0.850679341636415,3.322902760282765
0.8840733401525058,3.0003254458787265
0.9187782428863317,2.706570372636267
0.9548455102782278,2.440199269013017
0.9923286228832539,2.199586564536678
1.0312831606721837,1.9829581207656475
1.0717668854455022,1.7880608723104905
1.1138398264826193,1.6125351985264649
1.1575643695533022,1.4543013047763482
1.2030053494233226,1.3115293457042112
1.2502301459914542,1.18260633305225
1.299308784200415,1.0661200149835648
1.3503140378698726,0.9608895203193183
1.4033215376054824,0.8658708513620349
1.4584098829439835,0.7801102057266833
1.5156607589006013,0.7027370483431152
1.575159057091621,0.6329576678197052
1.6369930016117014,0.5700460858163916
1.7012542798525885,0.5133333475594024
1.7680381784572046,0.4622131044035912
1.8374437246107238,0.41613797961565185
1.9095738328780953,0.37461385597045893
1.9845354578058014,0.3371947182634151
2.0624397525140905,0.3034782388497081
2.143402233514853,0.27310163000509613
2.227542951999554,0.24573732451442834
2.314986671851158,0.22108954496794492
2.405863054644063,0.19889125307901073
2.5003068519063225,0.17890139598218924
2.598458104929248,0.16090256637439426
2.7004623524206774,0.14469866148656305
2.806470846309834,0.13011263861468328
2.916640776023701,0.1169846848029176
3.031135501567576,0.1051705670902242
3.150124795755327,0.09454012576630602
3.2737850959485697,0.0849758274715204
3.4022997656780634,0.07637163363626996
3.5358593665351745,0.06863195833841487
3.6746619407366854,0.061670648479820615
3.8189133047818515,0.0554100616362102
3.968827354637162,0.049780236288214354
4.1246263829013445,0.04471814963384546
4.286541408420921,0.040167022510490404
4.4548125188449825,0.036075702038836005
4.629689226627261,0.03239810978625262
4.811430839003257,0.02909274344439993
5.000306842491082,0.02612222609808932
5.196597302486189,0.02345289923218384
5.400593278542364,0.021054458453586562
5.612597255954967,0.01889962273975304
5.8329235942862,0.016963835603312896
6.06189899349756,0.01522499556839713
6.29986297838068,0.01366321650529418
6.547168402004727,0.012260608014086275
6.804181968927091,0.011001071529749036
7.071284778942991,0.009870122281973266
7.348872892180382,0.00885472917598819
7.637357916378006,0.007943169094589015
7.937167617217536,0.00712487868933216
8.248746552614573,0.006390349782427277
8.572556731909314,0.005731042021672808
8.909078300934132,0.0051392847180827825
9.258810253973934,0.004608188160167026
9.622271173675122,0.0041315709719309535
9.999999999999984,0.003703927884416706
