k [1/Mpc],P(k) [Mpc^3]
0.0001,137.30022793910288
0.00010392556829367125,143.101626875721
0.00010800523745162529,149.14806028367775
0.00011224505680853065,155.44987489273137
0.00011665131316981963,162.01785206229818
0.00012123054013376525,168.86321337903638
0.00012598952777950273,175.99764693597723
0.00013093533273536104,183.43333671463523
0.00013607528864243335,191.18298759439165
0.00014141701702890234,199.2598397821694
0.00014696843861124463,207.6776881149043
0.00015273778503907136,216.45090620770628
0.00015873361110102093,225.5944660387589
0.00016496480740980205,235.12395300467875
0.0001714406135851971,245.05560311727373
0.00017817063195457305,255.406342191526
0.00018516484179121546,266.193813948738
0.000192433614111598,277.43639893671786
0.00019998772705352857,289.15323392801554
0.0002078383818579757,301.3642521795324
0.00021599721947827182,314.09021608176295
0.0002244763378413224,327.35275019346284
0.0002332883097864157,341.1743781726139
0.00024244620170823283,355.5785472198425
0.0002519635929317015,370.58967327075294
0.0002618545958474233,386.23318679982447
0.0002721338768375308,402.53557527155414
0.0002828166780230032,419.52442342542963
0.0002939188398646886,437.22844169921626
0.0003054568246515432,455.67751689528785
0.00031744774091091926,474.9027601974992
0.00032990936877709396,494.9365387222381
0.00034286018635565856,515.8125435826269
0.00035631939712285854,537.5658312542056
0.000370306958400514,560.232877545605
0.00038484361094874304,583.851644570534
0.0003999509097203664,608.4616315429196
0.00041565125582259895,634.1039406489614
0.00043196792973341727,660.8212845617595
0.0004489251258218605,688.6580200076814
0.0004665479882234472,717.6602839248911
0.000484862648123908,747.8761087712365
0.000503896262506515,779.3554742951316
0.0005236770544204653,812.1502819988344
0.0005442343548300266,846.3143292951364
0.0005655986461065005,881.9035121971857
0.0005878016072274912,918.9759496240171
0.0006108761607505036,957.5920593081673
0.0006348565216305217,997.8145747989598
0.0006597782479539537,1039.7085124272514
0.0006856782936641739,1083.341360079208
0.0007125950633568407,1128.7831493156048
0.0007405684692262436,1176.1065380984949
0.0007696399902471156,1225.3869016067556
0.0007998527336796708,1276.7022625463333
0.000831251498989063,1330.1334888789715
0.0008638828442740447,1385.7643685470177
0.000897795155303332,1443.6816548471902
0.0009330387172620361,1503.9752276201848
0.0009696657893145519,1566.7380196117713
0.001007730682094461,1632.0661841987583
0.0010472898382363582,1700.0591114687036
0.0010884019160690055,1770.8192801879065
0.0011311278765939214,1844.452612227104
0.001175531073878369,1921.0684416832135
0.0012216773489967915,2000.7796225727911
0.0012696351276599736,2083.702559602541
0.0013194755216767058,2169.95682278757
0.0013712724343984,2259.665596194626
0.0014251026703029975,2352.955491989571
0.0014810460488806749,2449.9565072317882
0.0015391855229902056,2550.8023395548066
0.001599607301861487,2655.6299979801875
0.0016624009789266115,2764.580103737258
0.0017276596646690358,2877.796654036582
0.0017954801246878305,2995.4266721567865
0.0018659629231817451,3117.620670198994
0.001939212572065829,3244.531781438312
0.0020153376859417325,3376.316035178192
0.002094451143151469,3513.1324799228687
0.002176670253153458,3655.142590068626
0.002262116930469025,3802.5106706247534
0.002350917875457286,3955.4027462626163
0.002443204762186487,4113.986454312433
0.0025391144336803463,4278.431371917073
0.002638789104828933,4448.90777721286
0.002742376573264949,4625.587223061196
0.0028500304385181063,4808.641343614886
0.0029619103297725525,4998.241067709117
0.0030781821425650787,5194.557306550775
0.003199018284775064,5397.759121539999
0.0033245979322709396,5608.01413903308
0.003455107294592217,5825.48746023461
0.0035907398910610534,6050.3398560467385
0.0037316968377327513,6282.728842241736
0.0038781871456107214,6522.806125388824
0.0040304280305680515,6770.717558008837
0.00418864523543527,7026.6024441516975
0.004353073364731888,7290.590214087392
0.00452395623253805,7562.80204898855
0.004701547224022131,7843.3484926854035
0.004886109671160325,8132.3284134293735
0.005077917243205399,8429.827704223739
0.005277254352483535,8735.910652662023
0.005484416576121017,9050.624443861092
0.005699711094326071,9374.006392155949
0.005923457145875801,9706.086006714964
0.006155986501483508,10046.87061023483
0.006397643955748424,10396.301442600798
0.0066487878384172625,10754.272368831354
0.0069097905457156435,11120.665197171918
0.007181039092537346,11495.370869144095
0.007462935686310132,11878.25524482923
0.007755898323389004,12269.109111455678
0.00806036140886134,12667.655854234474
0.008376776400682916,13073.590514087218
0.008705612479099857,13486.608780751756
0.009047357242349292,13906.376252243776
0.00940251742967013,14332.482629916876
0.009771619672696168,14764.435107654104
0.010155211276345676,15201.686677021482
0.010553861030365234,15643.619928579132
0.010968160052731372,16089.557625256037
0.011398722666160517,16538.767357871562
0.011846187309026826,16990.46087235974
0.012311217482038896,17443.791356575046
0.012794502732078732,17897.829466457126
0.013296759674662111,18351.574840777557
0.013818733056536317,18803.960430055213
0.014361196859990781,19253.84143286462
0.014924955450518284,19700.01275220173
0.015510844769528393,20141.207815029276
0.016119733573881575,20576.102893198822
0.01675252472408214,21003.323736716124
0.017410156523040152,21421.445153836274
0.018093604107387147,21829.001301987802
0.01880388089340914,22224.50563863813
0.019542040079740527,22606.459924164694
0.02030917620904734,22973.35635115792
0.021106426791015535,23323.723465201885
0.021934973989050584,23656.107422541092
0.02279604637318978,23969.110166931867
0.023690920741826323,24261.431657340305
0.02462092401494623,24531.82519124596
0.02558743520168586,24779.216401628477
0.02659188744512693,25002.656288394213
0.027635770147361564,25201.323372371433
0.028720631177978267,25374.632092724987
0.029848079169243254,25522.112085580084
0.03101978590138095,25643.563375875598
0.03223748878149028,25739.027187436335
0.0335029934197723,25808.6983604995
0.03481817630688963,25853.108530887665
0.03618498759642746,25872.91336464767
0.037605453996581675,25868.150532992895
0.03908168177536263,25838.07969954293
0.04061585988376978,25782.325414394938
0.04221026320156896,25702.769169547766
0.04386725591048496,25602.18401785914
0.0455892949998106,25482.022447403164
0.047378933909631396,25341.29611233031
0.049238826317067365,25178.757189736418
0.05117173007114603,24992.510198004355
0.05318051128214196,24780.346581472775
0.05526814857144601,24540.36646976765
0.057437737488265785,24271.167240383715
0.0596924950997073,23971.793752411453
0.0620357647610427,23642.443983827896
0.06447102107323864,23283.756809015176
0.06700187503509585,22896.577562240473
0.06963207939763882,22482.000382405902
0.0723655342286965,22041.640267659408
0.07520629269592405,21578.066720008235
0.07815856707684081,21095.74287972375
0.08122673500479707,20600.462406427992
0.08441534596012978,20098.788792283245
0.0877291280161335,19596.121105938193
0.09117299484984914,19095.418738227352
0.09475205302806537,18596.99268394103
0.09847160957933764,18099.72401613524
0.1023371798632519,17600.147795107856
0.10635449574860109,17097.124402676927
0.11052951411260206,16591.55294395927
0.1148684256737553,16074.947612109941
0.1193776641714435,15542.490889786885
0.1240639159058831,14996.902823240607
0.12893412965257148,14445.434964579688
0.13399552696593373,13898.03414352297
0.1392556128874462,13363.570363315202
0.14472218707411338,12846.975797309042
0.15040335536380234,12347.797748447534
0.15630754179458153,11861.341787904277
0.16244350109588662,11382.12185111999
0.16882033167003618,10905.906411224501
0.17544748908334581,10430.501751108017
0.1823348000868439,9959.070958111739
0.189492477187382,9499.978742970918
0.19693113379074215,9058.660277536283
0.20466179993919872,8634.522880305114
0.21269593866686892,8224.83566804842
0.22104546299710207,7825.396113693094
0.22972275360711503,7434.510367851954
0.23874067718606454,7055.26981310897
0.2481126055137766,6690.212534687025
0.25785243528842716,6339.898057065835
0.26797460873256895,6003.256180241248
0.27849413500806414,5679.600456336274
0.28942661247167484,5368.345464044476
0.3007882518043098,5069.483106900229
0.31259590004822796,4783.024709360093
0.324867065587837,4509.538695731868
0.3376199441111335,4248.8203422360375
0.35087344559027084,3999.6540679138143
0.36464722232127456,3761.86219354157
0.37896169806447155,3536.0534459631294
0.3938380983288488,3321.3164959179076
0.4092984818452433,3116.997572315208
0.4253657732750382,2923.5097259849204
0.44206379720285277,2740.061032989399
0.45941731346364734,2566.1542350474892
0.47745205385661277,2401.8775093613935
0.4961947603002895,2246.397129704485
0.5156732244854959,2099.7564167224177
0.5359163290848509,1961.3510628785034
0.556954090580013,1830.9386516596273
0.5788177037701272,1708.1720154328516
0.6015395880274836,1592.6637085528068
0.6251534353689703,1484.0953587384738
0.6496942604146115,1382.124521434648
0.6751984523072497,1286.3780682838074
0.7017038286703824,1196.6122191238192
0.7292496916841444,1112.4987293188822
0.7578768863625915,1033.759743451301
0.7876278611187046,960.0713677650818
0.8185467307069019,891.1637890267684
0.850679341636415,826.7761841637359
0.8840733401525058,766.6569898311975
0.9187782428863317,710.5637001704306
0.9548455102782278,658.2606111156066
0.9923286228832539,609.5213265671795
1.0312831606721837,564.1302336219602
1.0717668854455022,521.8822488105594
1.1138398264826193,482.5825367153524
1.1575643695533022,446.0463841520736
1.2030053494233226,412.09900745556854
1.2502301459914542,380.574832644696
1.299308784200415,351.31714091477147
1.3503140378698726,324.177761763978
1.4033215376054824,299.0167301723694
1.4584098829439835,275.701668847687
1.5156607589006013,254.10770122240962
1.575159057091621,234.11738567853016
1.6369930016117014,215.62037188385756
1.7012542798525885,198.51305939477402
1.7680381784572046,182.6982644310409
1.8374437246107238,168.08489551090173
1.9095738328780953,154.5876385983115
1.9845354578058014,142.1266520857395
2.0624397525140905,130.62727199920573
2.143402233514853,120.01972427722488
2.227542951999554,110.23878922609266
2.314986671851158,101.22356843174747
2.405863054644063,92.91730341233605
2.5003068519063225,85.26712960813376
2.598458104929248,78.22383925323342
2.7004623524206774,71.74165114333326
2.806470846309834,65.77798280307195
2.916640776023701,60.293268234770544
3.031135501567576,55.25077075559295
3.150124795755327,50.61639903154279
3.2737850959485697,46.358533031103214
3.4022997656780634,42.44784902348625
3.5358593665351745,38.857166306952905
3.6746619407366854,35.561318858120664
3.8189133047818515,32.53701798482692
3.968827354637162,29.76272219230716
4.1246263829013445,27.218514524244682
4.286541408420921,24.88598519471173
4.4548125188449825,22.748128043707144
4.629689226627261,20.789241928082532
4.811430839003257,18.994836617514153
5.000306842491082,17.351544825363643
5.196597302486189,15.847033679024696
5.400593278542364,14.469925612102104
5.612597255954967,13.209740731660823
5.8329235942862,12.056830664291143
6.06189899349756,11.002315533559786
6.29986297838068,10.038026933100738
6.547168402004727,9.156466085333005
6.804181968927091,8.350741912935899
7.071284778942991,7.614514812850155
7.348872892180382,6.941954801214582
7.637357916378006,6.327702685245429
7.937167617217536,5.766817720297678
8.248746552614573,5.254725378676956
8.572556731909314,4.7872339825348105
8.909078300934132,4.360510205218359
9.258810253973934,3.9710483242924752
9.622271173675122,3.615646761806288
9.999999999999984,3.2914496720546635
