k [1/Mpc],P(k) [Mpc^3]
0.0001,412.01690182529865
0.00010392556829367125,426.95400450768915
0.00010800523745162529,442.4324550738888
0.00011224505680853065,458.47184670815244
0.00011665131316981963,475.0924803872989
0.00012123054013376525,492.3153943374781
0.00012598952777950273,510.1623890380242
0.00013093533273536104,528.6560491502936
0.00013607528864243335,547.8197656388862
0.00014141701702890234,567.6777718470188
0.00014696843861124463,588.2551803441656
0.00015273778503907136,609.5780144591023
0.00015873361110102093,631.6732300821933
0.00016496480740980205,654.5687241631609
0.0001714406135851971,678.2933874340868
0.00017817063195457305,702.8771609531151
0.00018516484179121546,728.3510810225263
0.000192433614111598,754.7472993913217
0.00019998772705352857,782.099099947886
0.0002078383818579757,810.4409489263634
0.00021599721947827182,839.8085441605191
0.0002244763378413224,870.2388533821209
0.0002332883097864157,901.7701647625755
0.00024244620170823283,934.442119944037
0.0002519635929317015,968.2957630084012
0.0002618545958474233,1003.3735966432666
0.0002721338768375308,1039.7196190599716
0.0002828166780230032,1077.3793876170735
0.0002939188398646886,1116.400053255747
0.0003054568246515432,1156.830404826916
0.00031744774091091926,1198.7209564815025
0.00032990936877709396,1242.1240272631462
0.00034286018635565856,1287.0937945091175
0.00035631939712285854,1333.6862937232734
0.000370306958400514,1381.9594067935873
0.00038484361094874304,1431.9730211776898
0.0003999509097203664,1483.789115006103
0.00041565125582259895,1537.4718273360952
0.00043196792973341727,1593.087505532642
0.0004489251258218605,1650.7047082838064
0.0004665479882234472,1710.3943384103309
0.000484862648123908,1772.2296987582904
0.000503896262506515,1836.2865561358558
0.0005236770544204653,1902.64324585083
0.0005442343548300266,1971.3806378535414
0.0005655986461065005,2042.5822831998676
0.0005878016072274912,2116.334505827961
0.0006108761607505036,2192.7264371322244
0.0006348565216305217,2271.8501621409455
0.0006597782479539537,2353.800658862874
0.0006856782936641739,2438.675919362591
0.0007125950633568407,2526.5771243662402
0.0007405684692262436,2617.6086795387014
0.0007696399902471156,2711.8783547620724
0.0007998527336796708,2809.497110786385
0.000831251498989063,2910.5791122129945
0.0008638828442740447,3015.24208892751
0.000897795155303332,3123.607381010202
0.0009330387172620361,3235.800072650323
0.0009696657893145519,3351.9488708632935
0.001007730682094461,3472.1859458960075
0.0010472898382363582,3596.6473530714256
0.0010884019160690055,3725.4728339580747
0.0011311278765939214,3858.805986663
0.001175531073878369,3996.794306024088
0.0012216773489967915,4139.588675003843
0.0012696351276599736,4287.343970808511
0.0013194755216767058,4440.218918966334
0.0013712724343984,4598.376086708333
0.0014251026703029975,4761.9820548149255
0.0014810460488806749,4931.206423541046
0.0015391855229902056,5106.222494947964
0.001599607301861487,5287.207114383204
0.0016624009789266115,5474.340172910887
0.0017276596646690358,5667.805318915741
0.0017954801246878305,5867.789219170096
0.0018659629231817451,6074.4817814268135
0.001939212572065829,6288.075852837173
0.0020153376859417325,6508.765629287192
0.002094451143151469,6736.74802401212
0.002176670253153458,6972.221820004627
0.002262116930469025,7215.387413694064
0.002350917875457286,7466.4471308465245
0.002443204762186487,7725.603001729917
0.0025391144336803463,7993.057913724629
0.002638789104828933,8269.014780918504
0.002742376573264949,8553.675281262102
0.0028500304385181063,8847.24088555229
0.0029619103297725525,9149.909580827329
0.0030781821425650787,9461.876576953584
0.003199018284775064,9783.334181287733
0.0033245979322709396,10114.468843120801
0.003455107294592217,10455.463049472733
0.0035907398910610534,10806.491903027094
0.0037316968377327513,11167.722359243877
0.0038781871456107214,11539.313972192256
0.0040304280305680515,11921.413114101955
0.00418864523543527,12314.155757039089
0.004353073364731888,12717.664371287943
0.00452395623253805,13132.044543454793
0.004701547224022131,13557.387564638208
0.004886109671160325,13993.760836306916
0.005077917243205399,14441.210399795216
0.005277254352483535,14899.760049988468
0.005484416576121017,15369.40333850015
0.005699711094326071,15850.108927216428
0.005923457145875801,16341.80629073144
0.006155986501483508,16844.38477420164
0.006397643955748424,17357.70177945139
0.0066487878384172625,17881.577539254657
0.0069097905457156435,18415.795652909852
0.007181039092537346,18960.063497578776
0.007462935686310132,19513.99064279806
0.007755898323389004,20077.131861619182
0.00806036140886134,20648.9870230111
0.008376776400682916,21229.00010754273
0.008705612479099857,21816.548373582533
0.009047357242349292,22410.926695645503
0.00940251742967013,23011.35924215844
0.009771619672696168,23616.93785936879
0.010155211276345676,24226.629024875838
0.010553861030365234,24839.30184993388
0.010968160052731372,25453.676017331825
0.011398722666160517,26068.365325444105
0.011846187309026826,26681.840789903912
0.012311217482038896,27292.412211368428
0.012794502732078732,27898.27423419103
0.013296759674662111,28497.42236608772
0.013818733056536317,29087.70802828223
0.014361196859990781,29666.81898117204
0.014924955450518284,30232.207492738256
0.015510844769528393,30781.20236869101
0.016119733573881575,31310.907554774167
0.01675252472408214,31818.246280812673
0.017410156523040152,32300.011477645257
0.018093604107387147,32752.73383288515
0.01880388089340914,33172.85026970134
0.019542040079740527,33556.63447200515
0.02030917620904734,33900.1973143899
0.021106426791015535,34199.63261820008
0.021934973989050584,34450.83125611252
0.02279604637318978,34649.68743006583
0.023690920741826323,34792.21705885257
0.02462092401494623,34874.577057333154
0.02558743520168586,34893.13448407705
0.02659188744512693,34843.95900933681
0.027635770147361564,34723.11301198131
0.028720631177978267,34527.76257795018
0.029848079169243254,34257.64633820589
0.03101978590138095,33913.339263510585
0.03223748878149028,33493.40933338739
0.0335029934197723,32994.432131407426
0.03481817630688963,32414.288651265462
0.03618498759642746,31754.792286577354
0.037605453996581675,31019.590427123454
0.03908168177536263,30214.558983528164
0.04061585988376978,29348.6830153363
0.04221026320156896,28431.064578205955
0.04386725591048496,27468.85435906252
0.0455892949998106,26468.190027327786
0.047378933909631396,25437.292459695665
0.049238826317067365,24388.13686176786
0.05117173007114603,23332.746904736243
0.05318051128214196,22284.427077509506
0.05526814857144601,21255.693056049535
0.057437737488265785,20258.882840691607
0.0596924950997073,19304.90632039342
0.0620357647610427,18403.21870022836
0.06447102107323864,17561.29030088512
0.06700187503509585,16784.45662686171
0.06963207939763882,16075.591832567588
0.0723655342286965,15435.176798469443
0.07520629269592405,14860.797040067571
0.07815856707684081,14347.224534309798
0.08122673500479707,13886.149007599872
0.08441534596012978,13465.85169029145
0.0877291280161335,13071.680874160458
0.09117299484984914,12686.605180542887
0.09475205302806537,12292.725751513053
0.09847160957933764,11872.668708626981
0.1023371798632519,11411.97890543119
0.10635449574860109,10900.9922939157
0.11052951411260206,10336.578868251983
0.1148684256737553,9723.583637620477
0.1193776641714435,9075.34762373707
0.1240639159058831,8413.286215277963
0.12893412965257148,7764.257980004352
0.13399552696593373,7157.87738624086
0.1392556128874462,6620.854550977967
0.14472218707411338,6170.61955178682
0.15040335536380234,5814.935055609078
0.15630754179458153,5549.909383573637
0.16244350109588662,5359.285717736107
0.16882033167003618,5215.076942289844
0.17544748908334581,5080.556945491955
0.1823348000868439,4916.646253812567
0.189492477187382,4691.704602668029
0.19693113379074215,4393.108413772836
0.20466179993919872,4035.0272932989315
0.21269593866686892,3655.4386664559547
0.22104546299710207,3302.5747560644713
0.22972275360711503,3018.2088388553907
0.23874067718606454,2823.678522411689
0.2481126055137766,2710.95517255601
0.25785243528842716,2643.354471511842
0.26797460873256895,2568.008276573981
0.27849413500806414,2438.746708560174
0.28942661247167484,2243.3154977900617
0.3007882518043098,2013.8001902147294
0.31259590004822796,1805.947816916325
0.324867065587837,1662.7164508576304
0.3376199441111335,1587.768610457482
0.35087344559027084,1543.5907310810835
0.36464722232127456,1475.327908433023
0.37896169806447155,1355.350024267741
0.3938380983288488,1210.4143536452943
0.4092984818452433,1093.6984680226856
0.4253657732750382,1030.2720900274105
0.44206379720285277,993.8901559141543
0.45941731346364734,936.7885326540766
0.47745205385661277,846.7506381430832
0.4961947603002895,760.7209976844506
0.5156732244854959,710.2187212873428
0.5359163290848509,678.4975913908422
0.556954090580013,629.2371718176671
0.5788177037701272,565.8610450995484
0.6015395880274836,520.1444611103755
0.6251534353689703,492.09520829225846
0.6496942604146115,455.2270540468211
0.6751984523072497,411.4488164369051
0.7017038286703824,381.45374647775657
0.7292496916841444,356.7610752008937
0.7578768863625915,324.8713238644041
0.7876278611187046,298.09259725303946
0.8185467307069019,274.65092597416
0.850679341636415,252.94937501005234
0.8840733401525058,232.86020272520614
0.9187782428863317,214.2656239925585
0.9548455102782278,197.05694601688398
0.9923286228832539,181.13392366805994
1.0312831606721837,166.4081218653152
1.0717668854455022,152.80138923353945
1.1138398264826193,140.2394966326053
1.1575643695533022,128.65179258025253
1.2030053494233226,117.97119914213565
1.2502301459914542,108.13412536101079
1.299308784200415,99.07960754522928
1.3503140378698726,90.74973639585065
1.4033215376054824,83.09039355960341
1.4584098829439835,76.05107718553533
1.5156607589006013,69.58470558666433
1.575159057091621,63.64739713068947
1.6369930016117014,58.19805665264046
1.7012542798525885,53.19841598183565
1.7680381784572046,48.61302990850219
1.8374437246107238,44.409086358380414
1.9095738328780953,40.556225914479285
1.9845354578058014,37.02638275231295
2.0624397525140905,33.79367094366181
2.143402233514853,30.834176669450855
2.227542951999554,28.1257953322942
2.314986671851158,25.64810644496292
2.405863054644063,23.382256034631656
2.5003068519063225,21.31084006187319
2.598458104929248,19.41778651987842
2.7004623524206774,17.688283173260704
2.806470846309834,16.108691469203496
2.916640776023701,14.66645922503854
3.031135501567576,13.350039246062236
3.150124795755327,12.148811564757434
3.2737850959485697,11.05301082536913
3.4022997656780634,10.053666291012187
3.5358593665351745,9.142541322051134
3.6746619407366854,8.312076259875314
3.8189133047818515,7.555335468274226
3.968827354637162,6.8659587687294446
4.1246263829013445,6.238116106613268
4.286541408420921,5.666464410980166
4.4548125188449825,5.1461086480678215
4.629689226627261,4.6725659040352845
4.811430839003257,4.241732098959274
5.000306842491082,3.8498489629031996
5.196597302486189,3.4934763472925723
5.400593278542364,3.1694694201308495
5.612597255954967,2.8749543384847915
5.8329235942862,2.60730565786917
6.06189899349756,2.364125752487512
6.29986297838068,2.1432285612272803
6.547168402004727,1.9426201047866716
6.804181968927091,1.7604794173517642
7.071284778942991,1.5951440634521619
7.348872892180382,1.4450968839402953
7.637357916378006,1.3089529098553927
7.937167617217536,1.185441411656643
8.248746552614573,1.0734023029969173
8.572556731909314,0.9717815080511899
8.909078300934132,0.8796213090859393
9.258810253973934,0.7960515262234468
9.622271173675122,0.7202844594333576
9.999999999999984,0.6516201850670511
