k [1/Mpc],P(k) [Mpc^3]
0.0001,137.30025556847218
0.00010392556829367125,143.10165647347858
0.00010800523745162529,149.14808778737492
0.00011224505680853065,155.44989961951006
0.00011665131316981963,162.0178747501005
0.00012123054013376525,168.86323460936313
0.00012598952777950273,175.99766908137215
0.00013093533273536104,183.43336599818292
0.00013607528864243335,191.18303301796058
0.00014141701702890234,199.25991037821356
0.00014696843861124463,207.67778085509227
0.00015273778503907136,216.4510009170944
0.00015873361110102093,225.59453743952676
0.00016496480740980205,235.12399846900456
0.0001714406135851971,245.05564702234167
0.00017817063195457305,255.4064103697664
0.00018516484179121546,266.19391574985985
0.000192433614111598,277.4365301961392
0.00019998772705352857,289.1533947963876
0.0002078383818579757,301.3644506602895
0.00021599721947827182,314.0904518784208
0.0002244763378413224,327.35300321993236
0.0002332883097864157,341.1746165129666
0.00024244620170823283,355.5787688620858
0.0002519635929317015,370.589921077861
0.0002618545958474233,386.23351134549875
0.0002721338768375308,402.5359906413935
0.0002828166780230032,419.5249062631171
0.0002939188398646886,437.22897166087847
0.0003054568246515432,455.67809662284577
0.00031744774091091926,474.90340917834703
0.00032990936877709396,494.93729452744265
0.00034286018635565856,515.8134596779882
0.00035631939712285854,537.5669330731683
0.000370306958400514,560.2341442969253
0.00038484361094874304,583.8530348092035
0.0003999509097203664,608.4631543632673
0.00041565125582259895,634.1056664985539
0.00043196792973341727,660.8232911042724
0.0004489251258218605,688.6603925442432
0.0004665479882234472,717.6631144295177
0.000484862648123908,747.8794504352642
0.000503896262506515,779.3593129381636
0.0005236770544204653,812.1545866683865
0.0005442343548300266,846.3192022191755
0.0005655986461065005,881.9091980574984
0.0005878016072274912,918.9826817550301
0.0006108761607505036,957.5999917332367
0.0006348565216305217,997.8237901544908
0.0006597782479539537,1039.7191340856139
0.0006856782936641739,1083.353580775153
0.0007125950633568407,1128.7972198971274
0.0007405684692262436,1176.1227916552148
0.0007696399902471156,1225.4056880568296
0.0007998527336796708,1276.723913128239
0.000831251498989063,1330.1583487628375
0.0008638828442740447,1385.7928880169713
0.000897795155303332,1443.7145294134705
0.0009330387172620361,1504.0133033589523
0.0009696657893145519,1566.78202559747
0.001007730682094461,1632.1167170355288
0.0010472898382363582,1700.116775694657
0.0010884019160690055,1770.8850735192866
0.0011311278765939214,1844.5279117534708
0.001175531073878369,1921.154608605789
0.0012216773489967915,2000.8779430850088
0.0012696351276599736,2083.8141895122944
0.0013194755216767058,2170.083104125317
0.0013712724343984,2259.8081171080144
0.0014251026703029975,2353.1158400208456
0.0014810460488806749,2450.1364168755013
0.0015391855229902056,2551.0035703631142
0.001599607301861487,2655.854388529718
0.0016624009789266115,2764.829638761788
0.0017276596646690358,2878.0730623254185
0.0017954801246878305,2995.7315942194477
0.0018659629231817451,3117.9554964311724
0.001939212572065829,3244.897747734683
0.0020153376859417325,3376.7145574751544
0.002094451143151469,3513.564654905918
0.002176670253153458,3655.6091983686188
0.002262116930469025,3803.011959395883
0.002350917875457286,3955.938088901744
0.002443204762186487,4114.554797013872
0.0025391144336803463,4279.030519374192
0.002638789104828933,4449.534299152218
0.002742376573264949,4626.236302665252
0.0028500304385181063,4809.30599378726
0.0029619103297725525,4998.912688133603
0.0030781821425650787,5195.224750562029
0.003199018284775064,5398.408116830951
0.0033245979322709396,5608.6271721516
0.003455107294592217,5826.042043178061
0.0035907398910610534,6050.808797574839
0.0037316968377327513,6283.078869353165
0.0038781871456107214,6522.995983636473
0.0040304280305680515,6770.6977644671415
0.00418864523543527,7026.3119224222855
0.004353073364731888,7289.955486116914
0.00452395623253805,7561.73531458553
0.004701547224022131,7841.743097228245
0.004886109671160325,8130.057317349934
0.005077917243205399,8426.73576018614
0.005277254352483535,8731.811559941803
0.005484416576121017,9045.300786093168
0.005699711094326071,9367.207981775051
0.005923457145875801,9697.520955583794
0.006155986501483508,10036.177904690225
0.006397643955748424,10383.03956033687
0.0066487878384172625,10737.930664521911
0.0069097905457156435,11100.672164576665
0.007181039092537346,11471.069468841644
0.007462935686310132,11848.869040523712
0.007755898323389004,12233.711907361369
0.00806036140886134,12625.181501052602
0.008376776400682916,13022.828269565201
0.008705612479099857,13426.166944091035
0.009047357242349292,13834.643077651917
0.00940251742967013,14247.572710458811
0.009771619672696168,14664.189189934754
0.010155211276345676,15083.62889275993
0.010553861030365234,15504.922127245518
0.010968160052731372,15927.013374168093
0.011398722666160517,16348.71535819818
0.011846187309026826,16768.739909617492
0.012311217482038896,17185.67799421294
0.012794502732078732,17597.97065467965
0.013296759674662111,18003.958295908247
0.013818733056536317,18401.80316714204
0.014361196859990781,18789.533271928773
0.014924955450518284,19165.052480775805
0.015510844769528393,19526.079797292576
0.016119733573881575,19870.244245472528
0.01675252472408214,20195.008961027852
0.017410156523040152,20497.708294247484
0.018093604107387147,20775.607105770403
0.01880388089340914,21025.808497181497
0.019542040079740527,21245.396040163854
0.02030917620904734,21431.40408884483
0.021106426791015535,21580.84015162346
0.021934973989050584,21690.79701905168
0.02279604637318978,21758.358355553988
0.023690920741826323,21780.759916175317
0.02462092401494623,21755.549758492783
0.02558743520168586,21680.668553124236
0.02659188744512693,21554.370145394747
0.027635770147361564,21374.85528516577
0.028720631177978267,21140.56898472856
0.029848079169243254,20851.474871506016
0.03101978590138095,20510.303226751224
0.03223748878149028,20120.23125968777
0.0335029934197723,19681.63574391943
0.03481817630688963,19193.22730296607
0.03618498759642746,18656.45657736356
0.037605453996581675,18080.010598195557
0.03908168177536263,17473.610776556623
0.04061585988376978,16844.21335515312
0.04221026320156896,16196.18816551979
0.04386725591048496,15534.98983757479
0.0455892949998106,14870.520791802963
0.047378933909631396,14212.722417914698
0.049238826317067365,13571.067746399634
0.05117173007114603,12954.025431286633
0.05318051128214196,12369.313974307881
0.05526814857144601,11823.599318351366
0.057437737488265785,11321.94477431173
0.0596924950997073,10867.937607218504
0.0620357647610427,10463.119994062994
0.06447102107323864,10107.33071972374
0.06700187503509585,9798.376377611528
0.06963207939763882,9531.690144021317
0.0723655342286965,9300.384931135022
0.07520629269592405,9094.788236458084
0.07815856707684081,8902.61073282731
0.08122673500479707,8709.619907893442
0.08441534596012978,8500.633815051573
0.0877291280161335,8261.100479491362
0.09117299484984914,7979.170786811448
0.09475205302806537,7647.294517643688
0.09847160957933764,7263.792446013231
0.1023371798632519,6833.848733693485
0.10635449574860109,6370.591084255119
0.11052951411260206,5893.80983341407
0.1148684256737553,5427.022058086205
0.1193776641714435,4994.4274646683625
0.1240639159058831,4617.835139653566
0.12893412965257148,4312.5151756554105
0.13399552696593373,4084.90923193636
0.1392556128874462,3931.333596809294
0.14472218707411338,3837.297981756578
0.15040335536380234,3777.7859342521247
0.15630754179458153,3719.838180280972
0.16244350109588662,3628.5491384891825
0.16882033167003618,3476.4734362500512
0.17544748908334581,3254.5317576647753
0.1823348000868439,2978.6249561806553
0.189492477187382,2685.575352566253
0.19693113379074215,2418.8552547362992
0.20466179993919872,2213.3858252877158
0.21269593866686892,2085.0766756214325
0.22104546299710207,2024.5801324302909
0.22972275360711503,1998.3526107867115
0.23874067718606454,1959.5554079651745
0.2481126055137766,1868.1846495211173
0.25785243528842716,1715.4088660250284
0.26797460873256895,1532.8168626184286
0.27849413500806414,1371.8298003437915
0.28942661247167484,1269.5722306825871
0.3007882518043098,1226.0170568478893
0.31259590004822796,1204.9239328701299
0.324867065587837,1157.4822165661933
0.3376199441111335,1062.2678826523127
0.35087344559027084,946.5116153737514
0.36464722232127456,857.5598351437056
0.37896169806447155,815.1822811002421
0.3938380983288488,793.5224130703576
0.4092984818452433,750.2276888789994
0.4253657732750382,677.5762173191558
0.44206379720285277,610.2232898958795
0.45941731346364734,574.1939072434407
0.47745205385661277,552.3112903256335
0.4961947603002895,513.1675544024896
0.5156732244854959,462.34877017733766
0.5359163290848509,427.55781906726344
0.556954090580013,406.9946904199561
0.5788177037701272,377.505016735585
0.6015395880274836,342.4515659931287
0.6251534353689703,319.3217161208613
0.6496942604146115,299.87824312710967
0.6751984523072497,274.06091529993563
0.7017038286703824,253.16682837164726
0.7292496916841444,236.2525160998047
0.7578768863625915,218.9359824116897
0.7876278611187046,202.35348261337558
0.8185467307069019,186.66838268677415
0.850679341636415,171.99312768475332
0.8840733401525058,158.3964256204949
0.9187782428863317,145.9000109464539
0.9548455102782278,134.4267764632443
0.9923286228832539,123.87260859348393
1.0312831606721837,114.14630109507048
1.0717668854455022,105.16796833030327
1.1138398264826193,96.8675627274935
1.1575643695533022,89.18780559666642
1.2030053494233226,82.08544719946876
1.2502301459914542,75.52086751760805
1.299308784200415,69.45674241818263
1.3503140378698726,63.85795663930502
1.4033215376054824,58.691489501558586
1.4584098829439835,53.926087148425424
1.5156607589006013,49.53236861302236
1.575159057091621,45.48292787195069
1.6369930016117014,41.75222105206956
1.7012542798525885,38.31645534774067
1.7680381784572046,35.15346667210288
1.8374437246107238,32.242595695218945
1.9095738328780953,29.564643043185615
1.9845354578058014,27.101784449626876
2.0624397525140905,24.83748049302702
2.143402233514853,22.7563915657977
2.227542951999554,20.844298888451135
2.314986671851158,19.0880284380691
2.405863054644063,17.47537869275694
2.5003068519063225,15.995054067253344
2.598458104929248,14.636602450950019
2.7004623524206774,13.390355350780156
2.806470846309834,12.24736954341594
2.916640776023701,11.199381009392592
3.031135501567576,10.238758020798578
3.150124795755327,9.358455588307592
3.2737850959485697,8.5519728812695
3.4022997656780634,7.813312131256017
3.5358593665351745,7.136941824123483
3.6746619407366854,6.517764301492703
3.8189133047818515,5.951083534614281
3.968827354637162,5.432575001518148
4.1246263829013445,4.958257571262383
4.286541408420921,4.524466966185771
4.4548125188449825,4.12783221214238
4.629689226627261,3.7652534653586747
4.811430839003257,3.4338811197049233
5.000306842491082,3.1310964276078947
5.196597302486189,2.854492856906807
5.400593278542364,2.6018592166280707
5.612597255954967,2.3711657025804063
5.8329235942862,2.1605496721174675
6.06189899349756,1.968302339561284
6.29986297838068,1.7928567009667187
6.547168402004727,1.6327779317014324
6.804181968927091,1.4867512641629939
7.071284778942991,1.3535710118753597
7.348872892180382,1.2321318667532624
7.637357916378006,1.1214208652093869
7.937167617217536,1.0205074691130658
8.248746552614573,0.9285339200438522
8.572556731909314,0.8447161923143439
8.909078300934132,0.7683387813407194
9.258810253973934,0.6987486930751892
9.622271173675122,0.635350684752019
9.999999999999984,0.5776126322776627
