k [1/Mpc],P(k) [Mpc^3]
0.0001,182.48139625087944
0.00010392556829367125,188.55197403044525
0.00010800523745162529,194.82444451002834
0.00011224505680853065,201.30551424498407
0.00011665131316981963,208.00211180386154
0.00012123054013376525,214.92139525528148
0.00012598952777950273,222.07076160713999
0.00013093533273536104,229.45785675754718
0.00013607528864243335,237.09058013332245
0.00014141701702890234,244.9770839486242
0.00014696843861124463,253.12578372564045
0.00015273778503907136,261.54537517183434
0.00015873361110102093,270.2448493811047
0.00016496480740980205,279.2334966047326
0.0001714406135851971,288.5209120245732
0.00017817063195457305,298.11700555555933
0.00018516484179121546,308.03201308114427
0.000192433614111598,318.27650130572346
0.00019998772705352857,328.8613828225097
0.0002078383818579757,339.79792425416707
0.00021599721947827182,351.09775477877594
0.0002244763378413224,362.772887164138
0.0002332883097864157,374.8357505298354
0.00024244620170823283,387.29919427985925
0.0002519635929317015,400.17647572348267
0.0002618545958474233,413.48125163267247
0.0002721338768375308,427.2276192305248
0.0002828166780230032,441.43013053895527
0.0002939188398646886,456.1038077712479
0.0003054568246515432,471.2641722213651
0.00031744774091091926,486.927287702707
0.00032990936877709396,503.1097496151273
0.00034286018635565856,519.8286357860711
0.00035631939712285854,537.1015127049292
0.000370306958400514,554.9465150772869
0.00038484361094874304,573.3824048860896
0.0003999509097203664,592.4285638765211
0.00041565125582259895,612.1049807259681
0.00043196792973341727,632.43225783391
0.0004489251258218605,653.4316461996435
0.0004665479882234472,675.1250070000194
0.000484862648123908,697.5348572882505
0.000503896262506515,720.6844475479306
0.0005236770544204653,744.5978231573104
0.0005442343548300266,769.2997919936153
0.0005655986461065005,794.8158356718611
0.0005878016072274912,821.1721459941305
0.0006108761607505036,848.3957265160343
0.0006348565216305217,876.51443879385
0.0006597782479539537,905.5570049252872
0.0006856782936641739,935.5529518998139
0.0007125950633568407,966.5326179289965
0.0007405684692262436,998.5272470660085
0.0007696399902471156,1031.5690159268418
0.0007998527336796708,1065.691058781583
0.000831251498989063,1100.9274209714044
0.0008638828442740447,1137.313027609162
0.000897795155303332,1174.883798282292
0.0009330387172620361,1213.676636735776
0.0009696657893145519,1253.729472805292
0.001007730682094461,1295.0812544516612
0.0010472898382363582,1337.7718824829392
0.0010884019160690055,1381.8423291543643
0.0011311278765939214,1427.3345823358557
0.001175531073878369,1474.2916769475578
0.0012216773489967915,1522.7577159666926
0.0012696351276599736,1572.7776820142312
0.0013194755216767058,1624.3976285344834
0.0013712724343984,1677.664660155773
0.0014251026703029975,1732.6269202588435
0.0014810460488806749,1789.333643785535
0.0015391855229902056,1847.8348836449409
0.001599607301861487,1908.1816920126967
0.0016624009789266115,1970.4260189345343
0.0017276596646690358,2034.6205240180961
0.0017954801246878305,2100.8188525441815
0.0018659629231817451,2169.075415815339
0.001939212572065829,2239.445471502994
0.0020153376859417325,2311.985050661318
0.002094451143151469,2386.7505954886537
0.002176670253153458,2463.799288184318
0.002262116930469025,2543.188640270679
0.002350917875457286,2624.9764810684946
0.002443204762186487,2709.2210905605843
0.0025391144336803463,2795.9805981287827
0.002638789104828933,2885.313373252762
0.002742376573264949,2977.27774931327
0.0028500304385181063,3071.9318174891982
0.0029619103297725525,3169.333546741038
0.0030781821425650787,3269.5396042476364
0.003199018284775064,3372.6058907051797
0.0033245979322709396,3478.5876393961917
0.003455107294592217,3587.5390623966214
0.0035907398910610534,3699.5134101839794
0.0037316968377327513,3814.5612299268428
0.0038781871456107214,3932.7307284637177
0.0040304280305680515,4054.0682246306164
0.00418864523543527,4178.617371339194
0.004353073364731888,4306.41950948194
0.00452395623253805,4437.511992103311
0.004701547224022131,4571.927962905952
0.004886109671160325,4709.696973468808
0.005077917243205399,4850.8433119291185
0.005277254352483535,4995.386828950617
0.005484416576121017,5143.341491754833
0.005699711094326071,5294.714397893204
0.005923457145875801,5449.506667926407
0.006155986501483508,5607.709882433287
0.006397643955748424,5769.307568643538
0.0066487878384172625,5934.277520301809
0.0069097905457156435,6102.592763133806
0.007181039092537346,6274.217717661227
0.007462935686310132,6449.091206812359
0.007755898323389004,6627.130722734098
0.00806036140886134,6808.246477874254
0.008376776400682916,6992.3506718370345
0.008705612479099857,7179.346456879441
0.009047357242349292,7369.10885037154
0.00940251742967013,7561.483748732954
0.009771619672696168,7756.304003026489
0.010155211276345676,7953.399262377691
0.010553861030365234,8152.58795430826
0.010968160052731372,8353.66178931236
0.011398722666160517,8556.379701958245
0.011846187309026826,8760.48077301228
0.012311217482038896,8965.678594718864
0.012794502732078732,9171.664662651123
0.013296759674662111,9378.107401786205
0.013818733056536317,9584.64771648828
0.014361196859990781,9790.905114990755
0.014924955450518284,9996.472658738521
0.015510844769528393,10200.919144125564
0.016119733573881575,10403.789954630587
0.01675252472408214,10604.599498617305
0.017410156523040152,10802.840595408179
0.018093604107387147,10997.982751866939
0.01880388089340914,11189.473237367314
0.019542040079740527,11376.742426573623
0.02030917620904734,11559.202846494232
0.021106426791015535,11736.25349272281
0.021934973989050584,11907.28567305992
0.02279604637318978,12071.686743514638
0.023690920741826323,12228.84078249236
0.02462092401494623,12378.140567658269
0.02558743520168586,12518.985316788861
0.02659188744512693,12650.794894772649
0.027635770147361564,12773.031908797293
0.028720631177978267,12885.176831683015
0.029848079169243254,12986.73480273644
0.03101978590138095,13077.236143063912
0.03223748878149028,13156.273642993976
0.0335029934197723,13223.597566937948
0.03481817630688963,13279.015028751734
0.03618498759642746,13322.352966784403
0.037605453996581675,13353.458592798706
0.03908168177536263,13372.241660491884
0.04061585988376978,13378.797734271739
0.04221026320156896,13373.29984638379
0.04386725591048496,13355.690484750556
0.0455892949998106,13325.551150738314
0.047378933909631396,13282.562334415063
0.049238826317067365,13227.196002192413
0.05117173007114603,13160.314596075941
0.05318051128214196,13082.454794638643
0.05526814857144601,12993.40040009567
0.057437737488265785,12892.852598361018
0.0596924950997073,12780.325927164246
0.0620357647610427,12655.226255615431
0.06447102107323864,12517.055103072978
0.06700187503509585,12365.462866188376
0.06963207939763882,12200.256823201984
0.0723655342286965,12021.687142167664
0.07520629269592405,11830.210379049746
0.07815856707684081,11626.472734549188
0.08122673500479707,11411.23153654166
0.08441534596012978,11185.342542922033
0.0877291280161335,10949.836109845191
0.09117299484984914,10706.142277420675
0.09475205302806537,10456.01239973717
0.09847160957933764,10201.443970303782
0.1023371798632519,9944.178280784667
0.10635449574860109,9685.337036547064
0.11052951411260206,9425.20335124973
0.1148684256737553,9163.394533808047
0.1193776641714435,8899.323302003135
0.1240639159058831,8632.436208280198
0.12893412965257148,8362.299092517642
0.13399552696593373,8088.591322176278
0.1392556128874462,7811.5163096015685
0.14472218707411338,7532.297666278852
0.15040335536380234,7253.441740856519
0.15630754179458153,6977.212720109483
0.16244350109588662,6707.677555537427
0.16882033167003618,6445.808285937736
0.17544748908334581,6189.051455147961
0.1823348000868439,5935.989957813678
0.189492477187382,5685.3194000528165
0.19693113379074215,5436.946173346248
0.20466179993919872,5191.637576386202
0.21269593866686892,4950.86847492929
0.22104546299710207,4716.819868936828
0.22972275360711503,4490.946519246096
0.23874067718606454,4272.764944160101
0.2481126055137766,4061.159621245463
0.25785243528842716,3855.3525857348955
0.26797460873256895,3655.1576951780135
0.27849413500806414,3461.629053357672
0.28942661247167484,3275.8042054542584
0.3007882518043098,3097.674089375439
0.31259590004822796,2926.513860821867
0.324867065587837,2761.5966795476957
0.3376199441111335,2602.9544944359855
0.35087344559027084,2451.159986634276
0.36464722232127456,2306.5829807165537
0.37896169806447155,2168.7653541893487
0.3938380983288488,2037.1762148454845
0.4092984818452433,1911.7305942788937
0.4253657732750382,1792.6420704737145
0.44206379720285277,1679.7168048306974
0.45941731346364734,1572.4110454338356
0.47745205385661277,1470.5944523824476
0.4961947603002895,1374.416280092217
0.5156732244854959,1283.6153412318386
0.5359163290848509,1197.7350024371358
0.556954090580013,1116.7363025986758
0.5788177037701272,1040.5259257067814
0.6015395880274836,968.7051820678671
0.6251534353689703,901.1972124200989
0.6496942604146115,837.8894958237385
0.6751984523072497,778.3933508240767
0.7017038286703824,722.6554007430909
0.7292496916841444,670.457976382239
0.7578768863625915,621.5814047785167
0.7876278611187046,575.9416803515094
0.8185467307069019,533.2588659145637
0.850679341636415,493.47857279477165
0.8840733401525058,456.38265457354333
0.9187782428863317,421.80764594843043
0.9548455102782278,389.61262818565666
0.9923286228832539,359.6612367089984
1.0312831606721837,331.82189939276896
1.0717668854455022,305.96788533460636
1.1138398264826193,281.97574070019544
1.1575643695533022,259.72646860936663
1.2030053494233226,239.10719253078872
1.2502301459914542,220.01102112537626
1.299308784200415,202.33685805962088
1.3503140378698726,185.98925415211565
1.4033215376054824,170.8783829006543
1.4584098829439835,156.91958908331557
1.5156607589006013,144.03309923839927
1.575159057091621,132.14383263506193
1.6369930016117014,121.18120935498615
1.7012542798525885,111.07888983075485
1.7680381784572046,101.77453836052476
1.8374437246107238,93.20979152439493
1.9095738328780953,85.33007741526055
1.9845354578058014,78.08441713390489
2.0624397525140905,71.42523061254977
2.143402233514853,65.30812772939332
2.227542951999554,59.691738779637824
2.314986671851158,54.537565143875774
2.405863054644063,49.809809750482124
2.5003068519063225,45.47521373086037
2.598458104929248,41.502897533588865
2.7004623524206774,37.8641987831719
2.806470846309834,34.53254685455928
2.916640776023701,31.48333521959691
3.031135501567576,28.693791847979195
3.150124795755327,26.142856558932483
3.2737850959485697,23.811060810560182
3.4022997656780634,21.680413801789797
3.5358593665351745,19.734311794560018
3.6746619407366854,17.957442173303576
3.8189133047818515,16.335691263431077
3.968827354637162,14.856057735731591
4.1246263829013445,13.506567523506185
4.286541408420921,12.276199475926985
4.4548125188449825,11.154820104205918
4.629689226627261,10.13311708386384
4.811430839003257,9.202536978745483
5.000306842491082,8.355226471658005
5.196597302486189,7.583973496067023
5.400593278542364,6.882162483872306
5.612597255954967,6.243730938667506
5.8329235942862,5.663125525803778
6.06189899349756,5.135261393298013
6.29986297838068,4.655487344355665
6.547168402004727,4.2195554800671005
6.804181968927091,3.8235793645218035
7.071284778942991,3.464003116824983
7.348872892180382,3.1375748669607613
7.637357916378006,2.8413218138133307
7.937167617217536,2.5725135713102865
8.248746552614573,2.328643003579735
8.572556731909314,2.1074290733669288
8.909078300934132,1.906797881483294
9.258810253973934,1.724863845947633
9.622271173675122,1.5599168309627165
9.999999999999984,1.4104420293698596
