k [1/Mpc],P(k) [Mpc^3]
0.0001,129.8074485272095
0.00010392556829367125,135.29157558230642
0.00010800523745162529,141.00725211237605
0.00011224505680853065,146.96423520751534
0.00011665131316981963,153.17269304459074
0.00012123054013376525,159.64322447123084
0.00012598952777950273,166.38687402899353
0.00013093533273536104,173.41514186201843
0.00013607528864243335,180.7400027146979
0.00014141701702890234,188.37393274572614
0.00014696843861124463,196.3299327040113
0.00015273778503907136,204.62154805123097
0.00015873361110102093,213.26288840743922
0.00016496480740980205,222.2686496949947
0.0001714406135851971,231.65414057161647
0.00017817063195457305,241.4353032496171
0.00018516484179121546,251.6287419073646
0.000192433614111598,262.25174291898463
0.00019998772705352857,273.3222911205845
0.0002078383818579757,284.85911459817
0.00021599721947827182,296.88173369707687
0.0002244763378413224,309.41049044937876
0.0002332883097864157,322.466557335662
0.00024244620170823283,336.0719343790811
0.0002519635929317015,350.24951519376486
0.0002618545958474233,365.0231389950871
0.0002721338768375308,380.4176301058297
0.0002828166780230032,396.4588239680639
0.0002939188398646886,413.17357301299097
0.0003054568246515432,430.58980789667305
0.00031744774091091926,448.7365888537284
0.00032990936877709396,467.6441467427702
0.00034286018635565856,487.343928531818
0.00035631939712285854,507.8685952494502
0.000370306958400514,529.2520853659802
0.00038484361094874304,551.529685771376
0.0003999509097203664,574.7380734643315
0.00041565125582259895,598.9153750612938
0.00043196792973341727,624.1011663004384
0.0004489251258218605,650.3365245212472
0.0004665479882234472,677.664117286947
0.000484862648123908,706.1282180813665
0.000503896262506515,735.7747951297557
0.0005236770544204653,766.6515388892926
0.0005442343548300266,798.8078980468227
0.0005655986461065005,832.2951791501264
0.0005878016072274912,867.1665179050857
0.0006108761607505036,903.47698563734
0.0006348565216305217,941.283676350091
0.0006597782479539537,980.6457453681837
0.0006856782936641739,1021.6244936376862
0.0007125950633568407,1064.283238492572
0.0007405684692262436,1108.687406511205
0.0007696399902471156,1154.904694996152
0.0007998527336796708,1203.0050462228626
0.000831251498989063,1253.0607859677211
0.0008638828442740447,1305.1465855183399
0.000897795155303332,1359.3394889307972
0.0009330387172620361,1415.7190181363933
0.0009696657893145519,1474.3668585283626
0.001007730682094461,1535.3671272711586
0.0010472898382363582,1598.8064094998147
0.0010884019160690055,1664.7736641423683
0.0011311278765939214,1733.3604289505377
0.001175531073878369,1804.6604748504415
0.0012216773489967915,1878.7699542156392
0.0012696351276599736,1955.7873716070526
0.0013194755216767058,2035.8130647034375
0.0013712724343984,2118.9497144257557
0.0014251026703029975,2205.3021810243667
0.0014810460488806749,2294.9774706447342
0.0015391855229902056,2388.084668875067
0.001599607301861487,2484.7339465507807
0.0016624009789266115,2585.0371589420624
0.0017276596646690358,2689.107654327257
0.0017954801246878305,2797.059947087615
0.0018659629231817451,2909.009936466734
0.001939212572065829,3025.0738733143176
0.0020153376859417325,3145.3686184666117
0.002094451143151469,3270.011287977263
0.002176670253153458,3399.1182120750136
0.002262116930469025,3532.8056332470373
0.002350917875457286,3671.1886855635453
0.002443204762186487,3814.3812349544432
0.0025391144336803463,3962.4956600015535
0.002638789104828933,4115.641053709104
0.002742376573264949,4273.924024959355
0.0028500304385181063,4437.4471786110835
0.0029619103297725525,4606.308227893938
0.0030781821425650787,4780.600513585103
0.003199018284775064,4960.410337455922
0.0033245979322709396,5145.817657843957
0.003455107294592217,5336.894839339079
0.0035907398910610534,5533.704616504486
0.0037316968377327513,5736.3010548463035
0.0038781871456107214,5944.725133984527
0.0040304280305680515,6159.00512826103
0.00418864523543527,6379.156606742606
0.004353073364731888,6605.178865969043
0.00452395623253805,6837.056300543505
0.004701547224022131,7074.749387605188
0.004886109671160325,7318.193153451572
0.005077917243205399,7567.3051615895965
0.005277254352483535,7821.992326640576
0.005484416576121017,8082.1438777382045
0.005699711094326071,8347.59664237933
0.005923457145875801,8618.115916393785
0.006155986501483508,8893.433378310707
0.006397643955748424,9173.265260959584
0.0066487878384172625,9457.303837203195
0.0069097905457156435,9745.204743340462
0.007181039092537346,10036.580455707855
0.007462935686310132,10331.003791007259
0.007755898323389004,10627.972047473644
0.00806036140886134,10926.912011917655
0.008376776400682916,11227.196800525266
0.008705612479099857,11528.12384182677
0.009047357242349292,11828.934244595166
0.00940251742967013,12128.794871295242
0.009771619672696168,12426.792937386646
0.010155211276345676,12721.954914100068
0.010553861030365234,13013.209290967421
0.010968160052731372,13299.414978994246
0.011398722666160517,13579.347930404589
0.011846187309026826,13851.67583297247
0.012311217482038896,14115.00816233162
0.012794502732078732,14367.851376985687
0.013296759674662111,14608.638382179553
0.013818733056536317,14835.745339932264
0.014361196859990781,15047.449416582565
0.014924955450518284,15242.000756807513
0.015510844769528393,15417.591225096381
0.016119733573881575,15572.373216027683
0.01675252472408214,15704.517895510871
0.017410156523040152,15812.183279025321
0.018093604107387147,15893.583509203105
0.01880388089340914,15947.0111179845
0.019542040079740527,15970.852610088694
0.02030917620904734,15963.649588087228
0.021106426791015535,15924.166375270555
0.021934973989050584,15851.391707221177
0.02279604637318978,15744.599502144365
0.023690920741826323,15603.440078980158
0.02462092401494623,15427.866428376243
0.02558743520168586,15218.479988972576
0.02659188744512693,14976.41181883558
0.027635770147361564,14703.098939799585
0.028720631177978267,14400.445694231841
0.029848079169243254,14070.63209354225
0.03101978590138095,13717.442401540799
0.03223748878149028,13346.256299408684
0.0335029934197723,12962.00068593109
0.03481817630688963,12567.79963475299
0.03618498759642746,12166.089821456393
0.037605453996581675,11761.199352753754
0.03908168177536263,11360.544936161794
0.04061585988376978,10970.93256996922
0.04221026320156896,10597.854723140012
0.04386725591048496,10245.836143748433
0.0455892949998106,9918.404107659466
0.047378933909631396,9618.241656188924
0.049238826317067365,9346.53049880677
0.05117173007114603,9103.03112780026
0.05318051128214196,8886.135625295437
0.05526814857144601,8693.00099704283
0.057437737488265785,8519.014690092126
0.0596924950997073,8358.219064069604
0.0620357647610427,8202.755460800408
0.06447102107323864,8043.350817261618
0.06700187503509585,7869.654614816782
0.06963207939763882,7671.207708479608
0.0723655342286965,7439.311119654663
0.07520629269592405,7168.093478521114
0.07815856707684081,6856.16284754397
0.08122673500479707,6509.186237019841
0.08441534596012978,6135.986065708563
0.0877291280161335,5748.199144319931
0.09117299484984914,5361.764295033828
0.09475205302806537,4994.563581912588
0.09847160957933764,4663.972836705039
0.1023371798632519,4384.014850367138
0.10635449574860109,4162.257473261169
0.11052951411260206,3997.713974237456
0.1148684256737553,3880.4501904243875
0.1193776641714435,3792.5899619762185
0.1240639159058831,3710.6129840491562
0.12893412965257148,3609.5872157541025
0.13399552696593373,3469.398003748745
0.1392556128874462,3281.15145984244
0.14472218707411338,3051.07922259459
0.15040335536380234,2800.4363975832935
0.15630754179458153,2559.8413276702013
0.16244350109588662,2358.065447499276
0.16882033167003618,2211.035283127335
0.17544748908334581,2117.5179102280176
0.1823348000868439,2059.0138865941367
0.189492477187382,2003.553937738468
0.19693113379074215,1919.5242538454859
0.20466179993919872,1794.166358252703
0.21269593866686892,1640.68261835061
0.22104546299710207,1490.6230438395635
0.22972275360711503,1374.1972686305382
0.23874067718606454,1301.3237335402175
0.2481126055137766,1255.9892322524977
0.25785243528842716,1206.289105104629
0.26797460873256895,1129.6079337761396
0.27849413500806414,1031.7793330812779
0.28942661247167484,940.6361253485752
0.3007882518043098,877.4217604080333
0.31259590004822796,837.1304448389479
0.324867065587837,795.4588820614711
0.3376199441111335,736.8176248696753
0.35087344559027084,672.6215442306162
0.36464722232127456,622.8948740321543
0.37896169806447155,588.6594240079005
0.3938380983288488,553.2994694227305
0.4092984818452433,509.3393791690082
0.4253657732750382,468.52248675787484
0.44206379720285277,438.3199645996591
0.45941731346364734,410.1386056979682
0.47745205385661277,378.02435892078
0.4961947603002895,349.07384162941986
0.5156732244854959,325.64646945260193
0.5359163290848509,301.82654189110144
0.556954090580013,278.2536076679759
0.5788177037701272,258.28531642900026
0.6015395880274836,239.22320662446455
0.6251534353689703,220.75486432536792
0.6496942604146115,204.29456875624714
0.6751984523072497,188.89217566288073
0.7017038286703824,174.51900352406275
0.7292496916841444,161.14083709757818
0.7578768863625915,148.70849458980203
0.7876278611187046,137.17227636884965
0.8185467307069019,126.48250466103654
0.850679341636415,116.58984582141494
0.8840733401525058,107.44150968020868
0.9187782428863317,98.9823852028776
0.9548455102782278,91.16123209636004
0.9923286228832539,83.93071753356233
1.0312831606721837,77.24709991220168
1.0717668854455022,71.07007752251518
1.1138398264826193,65.3635571975977
1.1575643695533022,60.09443804586116
1.2030053494233226,55.23165537337776
1.2502301459914542,50.7460796726511
1.299308784200415,46.61042501070391
1.3503140378698726,42.79908893817838
1.4033215376054824,39.28791428898523
1.4584098829439835,36.05436672556138
1.5156607589006013,33.07750011134633
1.575159057091621,30.337854047809273
1.6369930016117014,27.817357411520614
1.7012542798525885,25.499251746974604
1.7680381784572046,23.368007623247834
1.8374437246107238,21.4092170469587
1.9095738328780953,19.609517254361144
1.9845354578058014,17.956521299074385
2.0624397525140905,16.43875180433101
2.143402233514853,15.04556971876008
2.227542951999554,13.767123440752664
2.314986671851158,12.594303196691575
2.405863054644063,11.518688930939964
2.5003068519063225,10.532501327119608
2.598458104929248,9.628556007321148
2.7004623524206774,8.800220740712707
2.806470846309834,8.041375428045386
2.916640776023701,7.346374769213485
3.031135501567576,6.71001344962575
3.150124795755327,6.127493678895183
3.2737850959485697,5.594393904962679
3.4022997656780634,5.1066399897818116
3.5358593665351745,4.6604815022695965
3.6746619407366854,4.252467465278547
3.8189133047818515,3.8794235002747826
3.968827354637162,3.538430610867331
4.1246263829013445,3.2268054264350687
4.286541408420921,2.9420819947708825
4.4548125188449825,2.6819949645641277
4.629689226627261,2.44446391360341
4.811430839003257,2.2275788351017995
5.000306842491082,2.0295865157448114
5.196597302486189,1.8488771095136383
5.400593278542364,1.6839738371008899
5.612597255954967,1.5335229425846733
5.8329235942862,1.3962837552806469
6.06189899349756,1.2711195230342238
6.29986297838068,1.1569895474359169
6.547168402004727,1.052942170004918
6.804181968927091,0.9581057677454661
7.071284778942991,0.8716819532397351
7.348872892180382,0.7929396474685438
7.637357916378006,0.7212095342035915
7.937167617217536,0.6558764927678732
8.248746552614573,0.5963754215481847
8.572556731909314,0.542190753123149
8.909078300934132,0.4928523256757612
9.258810253973934,0.4479313737780629
9.622271173675122,0.4070376858017722
9.999999999999984,0.3698227959624678
