k [1/Mpc],P(k) [Mpc^3]
0.0001,1682.7684550085116
0.00010392556829367125,1743.7387598554149
0.00010800523745162529,1806.9143670315204
0.00011224505680853065,1872.3745861838559
0.00011665131316981963,1940.2016493132892
0.00012123054013376525,2010.4806987315058
0.00012598952777950273,2083.299720679735
0.00013093533273536104,2158.7497459337915
0.00013607528864243335,2236.925049984491
0.00014141701702890234,2317.9232940681827
0.00014696843861124463,2401.8455796377566
0.00015273778503907136,2488.7963750978183
0.00015873361110102093,2578.8836861775144
0.00016496480740980205,2672.219299408207
0.0001714406135851971,2768.918936573826
0.00017817063195457305,2869.102355056484
0.00018516484179121546,2972.893299448353
0.000192433614111598,3080.4196118488976
0.00019998772705352857,3191.8134989150753
0.0002078383818579757,3307.2115500632362
0.00021599721947827182,3426.754967601591
0.0002244763378413224,3550.5896608379603
0.0002332883097864157,3678.8663174798485
0.00024244620170823283,3811.7406499153126
0.0002519635929317015,3949.3731820291514
0.0002618545958474233,4091.929536726073
0.0002721338768375308,4239.5807572796475
0.0002828166780230032,4392.503386489671
0.0002939188398646886,4550.879691573815
0.0003054568246515432,4714.897283324026
0.00031744774091091926,4884.749248720493
0.00032990936877709396,5060.634709164936
0.00034286018635565856,5242.758746401339
0.00035631939712285854,5431.332738111047
0.000370306958400514,5626.574127687843
0.00038484361094874304,5828.706278070102
0.0003999509097203664,6037.959121510568
0.00041565125582259895,6254.568700764883
0.00043196792973341727,6478.7775846361355
0.0004489251258218605,6710.834982003778
0.0004665479882234472,6950.996296773364
0.000484862648123908,7199.523853535255
0.000503896262506515,7456.686263872023
0.0005236770544204653,7722.758569539425
0.0005442343548300266,7998.022634536215
0.0005655986461065005,8282.765986971295
0.0005878016072274912,8577.28284069426
0.0006108761607505036,8881.873982537294
0.0006348565216305217,9196.846545100267
0.0006597782479539537,9522.514245530196
0.0006856782936641739,9859.194673482318
0.0007125950633568407,10207.210548283774
0.0007405684692262436,10566.890221235877
0.0007696399902471156,10938.566633803292
0.0007998527336796708,11322.57814645596
0.000831251498989063,11719.26534828232
0.0008638828442740447,12128.971251213427
0.000897795155303332,12552.042223893797
0.0009330387172620361,12988.824571211751
0.0009696657893145519,13439.666724572115
0.001007730682094461,13904.916547072495
0.0010472898382363582,14384.919697138956
0.0010884019160690055,14880.021638024878
0.0011311278765939214,15390.562683181603
0.001175531073878369,15916.879754960317
0.0012216773489967915,16459.30435166811
0.0012696351276599736,17018.15798676327
0.0013194755216767058,17593.75587764674
0.0013712724343984,18186.401512587556
0.0014251026703029975,18796.386634767143
0.0014810460488806749,19423.99084762545
0.0015391855229902056,20069.473848051137
0.001599607301861487,20733.079754623115
0.0016624009789266115,21415.031443967397
0.0017276596646690358,22115.527538613853
0.0017954801246878305,22834.744731610102
0.0018659629231817451,23572.8273474384
0.001939212572065829,24329.890840903907
0.0020153376859417325,25106.01746043133
0.002094451143151469,25901.24856305231
0.002176670253153458,26715.590099857443
0.002262116930469025,27549.00192446367
0.002350917875457286,28401.398234283704
0.002443204762186487,29272.644989745168
0.0025391144336803463,30162.544547188227
0.002638789104828933,31070.84534356598
0.002742376573264949,31997.22927751295
0.0028500304385181063,32941.30739768369
0.0029619103297725525,33902.62438900425
0.0030781821425650787,34880.634888795685
0.003199018284775064,35874.71516424339
0.0033245979322709396,36884.14987934718
0.003455107294592217,37908.11538490341
0.0035907398910610534,38945.699118639364
0.0037316968377327513,39995.87229532573
0.0038781871456107214,41057.49802038079
0.0040304280305680515,42129.30840312287
0.00418864523543527,43209.835228207936
0.004353073364731888,44297.48566773205
0.00452395623253805,45390.62095000546
0.004701547224022131,46487.557199363706
0.004886109671160325,47586.41158875192
0.005077917243205399,48684.71187989423
0.005277254352483535,49779.693795543775
0.005484416576121017,50868.528862220955
0.005699711094326071,51948.38399067645
0.005923457145875801,53016.300273559056
0.006155986501483508,54069.135398788494
0.006397643955748424,55103.59616086331
0.0066487878384172625,56116.11069325619
0.0069097905457156435,57102.58482020574
0.007181039092537346,58058.720231284715
0.007462935686310132,58979.84876408099
0.007755898323389004,59860.981804913106
0.00806036140886134,60696.95038375526
0.008376776400682916,61482.181050499836
0.008705612479099857,62210.95266132878
0.009047357242349292,62877.22269850999
0.00940251742967013,63474.55724920093
0.009771619672696168,63996.458194958366
0.010155211276345676,64435.85300537593
0.010553861030365234,64785.52295113906
0.010968160052731372,65038.13432836496
0.011398722666160517,65185.90231922637
0.011846187309026826,65221.30285730528
0.012311217482038896,65136.47722036778
0.012794502732078732,64923.59501107033
0.013296759674662111,64575.29040023384
0.013818733056536317,64083.88591309838
0.014361196859990781,63442.578508294915
0.014924955450518284,62644.94804547688
0.015510844769528393,61685.01339421813
0.016119733573881575,60558.39246813125
0.01675252472408214,59261.12934825103
0.017410156523040152,57791.10725013056
0.018093604107387147,56148.04928316974
0.01880388089340914,54332.92543092405
0.019542040079740527,52349.85574110612
0.02030917620904734,50204.88640356184
0.021106426791015535,47906.9521971932
0.021934973989050584,45468.50189925568
0.02279604637318978,42904.09344852912
0.023690920741826323,40232.269190411855
0.02462092401494623,37475.04148411164
0.02558743520168586,34657.49950580189
0.02659188744512693,31807.598842009156
0.027635770147361564,28954.043591257985
0.028720631177978267,26127.022808877893
0.029848079169243254,23360.837674801067
0.03101978590138095,20692.994641131398
0.03223748878149028,18155.845263112944
0.0335029934197723,15772.751447770092
0.03481817630688963,13560.869170101305
0.03618498759642746,11540.888699039333
0.037605453996581675,9738.108218410955
0.03908168177536263,8163.297586598781
0.04061585988376978,6817.819100297301
0.04221026320156896,5692.188604279154
0.04386725591048496,4775.098952775271
0.0455892949998106,4049.14998485313
0.047378933909631396,3496.2186052826664
0.049238826317067365,3097.0087139198085
0.05117173007114603,2834.047790248135
0.05318051128214196,2692.2517585061223
0.05526814857144601,2659.7648206797703
0.057437737488265785,2722.2092887427148
0.0596924950997073,2864.316640275898
0.0620357647610427,3066.408635270391
0.06447102107323864,3302.1087794142795
0.06700187503509585,3537.8129551802717
0.06963207939763882,3733.9947318492596
0.0723655342286965,3848.3822996478025
0.07520629269592405,3842.1780148626453
0.07815856707684081,3688.257857265207
0.08122673500479707,3380.689263270739
0.08441534596012978,2941.6582081192637
0.0877291280161335,2420.833864747058
0.09117299484984914,1884.1312726948854
0.09475205302806537,1395.7779039245966
0.09847160957933764,1001.7538231258037
0.1023371798632519,721.9446823971831
0.10635449574860109,553.465434417553
0.11052951411260206,482.0982173266207
0.1148684256737553,494.41377527711705
0.1193776641714435,581.2608621537022
0.1240639159058831,727.7148943046277
0.12893412965257148,896.8741503316334
0.13399552696593373,1027.0274547272904
0.1392556128874462,1055.2773020820075
0.14472218707411338,953.5106870309287
0.15040335536380234,749.8162148990338
0.15630754179458153,517.7396662184063
0.16244350109588662,331.92262104131623
0.16882033167003618,226.3464625571768
0.17544748908334581,197.28838149054548
0.1823348000868439,232.4744582640103
0.189492477187382,314.7272325571133
0.19693113379074215,399.2900070402259
0.20466179993919872,420.718526569546
0.21269593866686892,351.5500837622867
0.22104546299710207,237.3282944897661
0.22972275360711503,147.7007453682204
0.23874067718606454,113.70733416541499
0.2481126055137766,130.34772411937107
0.25785243528842716,176.4081393688037
0.26797460873256895,204.08208058222618
0.27849413500806414,174.87020541155314
0.28942661247167484,115.92229067946971
0.3007882518043098,78.9795358968345
0.31259590004822796,79.63496003819692
0.324867065587837,102.51743878847822
0.3376199441111335,110.10577599031139
0.35087344559027084,84.5431518995141
0.36464722232127456,57.81457604912334
0.37896169806447155,54.52545274406596
0.3938380983288488,65.45792859284812
0.4092984818452433,63.3739616139431
0.4253657732750382,46.46016014219645
0.44206379720285277,38.78544506885075
0.45941731346364734,43.03687124514585
0.47745205385661277,41.40251916622627
0.4961947603002895,31.890459104954115
0.5156732244854959,29.235103771661755
0.5359163290848509,30.043378130379303
0.556954090580013,26.859219743493952
0.5788177037701272,23.011022454176196
0.6015395880274836,20.02974876501566
0.6251534353689703,17.96233669781092
0.6496942604146115,16.45969978750206
0.6751984523072497,15.282337667775641
0.7017038286703824,14.256192014894362
0.7292496916841444,13.249677713258196
0.7578768863625915,12.20145882920101
0.7876278611187046,11.147640577536016
0.8185467307069019,10.127289773383799
0.850679341636415,9.168893348285577
0.8840733401525058,8.291408957073804
0.9187782428863317,7.505021207403102
0.9548455102782278,6.803917157364409
0.9923286228832539,6.175356099976447
1.0312831606721837,5.6087198850176785
1.0717668854455022,5.095268925512973
1.1138398264826193,4.627804117236643
1.1575643695533022,4.20089005490009
1.2030053494233226,3.8113650831793286
1.2502301459914542,3.4565151004743866
1.299308784200415,3.1337245624582204
1.3503140378698726,2.8404910422105987
1.4033215376054824,2.574427453029699
1.4584098829439835,2.3331291998345423
1.5156607589006013,2.114257852751592
1.575159057091621,1.915699084418098
1.6369930016117014,1.735545288610646
1.7012542798525885,1.5720743218616502
1.7680381784572046,1.4237381057562004
1.8374437246107238,1.289164794107527
1.9095738328780953,1.1671108733070066
1.9845354578058014,1.0564408872797775
2.0624397525140905,0.9561185686780037
2.143402233514853,0.8651985299366173
2.227542951999554,0.7828155087676175
2.314986671851158,0.7081782668091894
2.405863054644063,0.6405677238539511
2.5003068519063225,0.5793307123265866
2.598458104929248,0.5238740117264398
2.7004623524206774,0.47365905891435245
2.806470846309834,0.42819757232738004
2.916640776023701,0.38704625445819746
3.031135501567576,0.3498024192691746
3.150124795755327,0.3161003494934666
3.2737850959485697,0.2856079721294511
3.4022997656780634,0.2580237804256493
3.5358593665351745,0.23307406430780425
3.6746619407366854,0.21051047370484985
3.8189133047818515,0.1901077177152295
3.968827354637162,0.1716614610970567
4.1246263829013445,0.15498640295808075
4.286541408420921,0.13991449735540532
4.4548125188449825,0.12629340615385418
4.629689226627261,0.11398507690787205
4.811430839003257,0.102864423259779
5.000306842491082,0.09281812499994505
5.196597302486189,0.08374353455490356
5.400593278542364,0.07554768410374542
5.612597255954967,0.068146391584033
5.8329235942862,0.06146344255880158
6.06189899349756,0.055429846283597754
6.29986297838068,0.04998316304236356
6.547168402004727,0.045066918065859156
6.804181968927091,0.040630020253723385
7.071284778942991,0.036626234394194906
7.348872892180382,0.03301372665376982
7.637357916378006,0.02975465213373644
7.937167617217536,0.02681474113897863
8.248746552614573,0.02416290971553117
8.572556731909314,0.021771075618640855
8.909078300934132,0.019613889125210386
9.258810253973934,0.01766846669272567
9.622271173675122,0.01591416198669585
9.999999999999984,0.014332520234821178
