k [1/Mpc],P(k) [Mpc^3]
0.0001,938.3874927787526
0.00010392556829367125,969.6008485609982
0.00010800523745162529,1001.8519053321419
0.00011224505680853065,1035.175057210122
0.00011665131316981963,1069.6058114775008
0.00012123054013376525,1105.1808744643665
0.00012598952777950273,1141.938206717382
0.00013093533273536104,1179.9170244261898
0.00013607528864243335,1219.1578144542098
0.00014141701702890234,1259.7023868950469
0.00014696843861124463,1301.5939182386164
0.00015273778503907136,1344.8769780119703
0.00015873361110102093,1389.5975943075
0.00016496480740980205,1435.8032806118224
0.0001714406135851971,1483.5430856258745
0.00017817063195457305,1532.8676782594273
0.00018516484179121546,1583.8294579334602
0.000192433614111598,1636.4825626616926
0.00019998772705352857,1690.8827929101005
0.0002078383818579757,1747.087605581098
0.00021599721947827182,1805.1563203307485
0.0002244763378413224,1865.1503079741863
0.0002332883097864157,1927.1330002307632
0.00024244620170823283,1991.1698162852983
0.0002519635929317015,2057.328101541892
0.0002618545958474233,2125.6773385687984
0.0002721338768375308,2196.2892573026115
0.0002828166780230032,2269.2379037710266
0.0002939188398646886,2344.5996687879647
0.0003054568246515432,2422.4532556005183
0.00031744774091091926,2502.879833351688
0.00032990936877709396,2585.9631159651
0.00034286018635565856,2671.7894244986014
0.00035631939712285854,2760.4477680693644
0.000370306958400514,2852.0296961243844
0.00038484361094874304,2946.6294814482
0.0003999509097203664,3044.344340803619
0.00041565125582259895,3145.274563602538
0.00043196792973341727,3249.523528317267
0.0004489251258218605,3357.1974495329987
0.0004665479882234472,3468.405481983441
0.000484862648123908,3583.2600224880534
0.000503896262506515,3701.8766870318887
0.0005236770544204653,3824.374487933816
0.0005442343548300266,3950.875837938319
0.0005655986461065005,4081.5065759546333
0.0005878016072274912,4216.396126255649
0.0006108761607505036,4355.677075797345
0.0006348565216305217,4499.485494255852
0.0006597782479539537,4647.961282050318
0.0006856782936641739,4801.2482773477095
0.0007125950633568407,4959.494271141409
0.0007405684692262436,5122.850260320985
0.0007696399902471156,5291.470571815235
0.0007998527336796708,5465.513520360899
0.000831251498989063,5645.1413734446905
0.0008638828442740447,5830.520507703233
0.000897795155303332,6021.820945010811
0.0009330387172620361,6219.216113096416
0.0009696657893145519,6422.883390371954
0.001007730682094461,6633.002996628779
0.0010472898382363582,6849.758568209203
0.0010884019160690055,7073.337610439237
0.0011311278765939214,7303.9312931487575
0.001175531073878369,7541.734584169282
0.0012216773489967915,7786.94402146576
0.0012696351276599736,8039.757821255392
0.0013194755216767058,8300.377368133837
0.0013712724343984,8569.006651113248
0.0014251026703029975,8845.852571882942
0.0014810460488806749,9131.122733469902
0.0015391855229902056,9425.024126395929
0.001599607301861487,9727.76554104282
0.0016624009789266115,10039.55706049162
0.0017276596646690358,10360.610115190852
0.0017954801246878305,10691.135499162105
0.0018659629231817451,11031.34003411306
0.001939212572065829,11381.429744664569
0.0020153376859417325,11741.607942772062
0.002094451143151469,12112.075008684407
0.002176670253153458,12493.028690198125
0.002262116930469025,12884.660437258914
0.002350917875457286,13287.15738677925
0.002443204762186487,13700.699338249426
0.0025391144336803463,14125.45639390958
0.002638789104828933,14561.591742105014
0.002742376573264949,15009.257033398962
0.0028500304385181063,15468.593600872118
0.0029619103297725525,15939.730691162753
0.0030781821425650787,16422.780104637804
0.003199018284775064,16917.84025349466
0.0033245979322709396,17424.989669038416
0.003455107294592217,17944.28646849168
0.0035907398910610534,18475.769567959018
0.0037316968377327513,19019.44903934264
0.0038781871456107214,19575.311566726927
0.0040304280305680515,20143.31442860734
0.00418864523543527,20723.38052013091
0.004353073364731888,21315.403379565254
0.00452395623253805,21919.2313686966
0.004701547224022131,22534.673284820215
0.004886109671160325,23161.49615923436
0.005077917243205399,23799.412072039388
0.005277254352483535,24448.089047013615
0.005484416576121017,25107.12618800193
0.005699711094326071,25776.05436566506
0.005923457145875801,26454.352428631806
0.006155986501483508,27141.441130854266
0.006397643955748424,27836.684177861254
0.0066487878384172625,28539.317317117442
0.0069097905457156435,29248.413091956267
0.007181039092537346,29962.962159244653
0.007462935686310132,30681.875854021582
0.007755898323389004,31403.986917570437
0.00806036140886134,32128.038191986176
0.008376776400682916,32852.664817705
0.008705612479099857,33576.409545472074
0.009047357242349292,34297.60975504937
0.00940251742967013,35014.412850734414
0.009771619672696168,35724.840598928684
0.010155211276345676,36426.7028139465
0.010553861030365234,37117.678144744525
0.010968160052731372,37795.26087591136
0.011398722666160517,38456.72996121115
0.011846187309026826,39099.24016686452
0.012311217482038896,39719.6837966984
0.012794502732078732,40314.78806453863
0.013296759674662111,40881.10082329538
0.013818733056536317,41414.85985025455
0.014361196859990781,41912.20516443292
0.014924955450518284,42369.02088650994
0.015510844769528393,42781.00324912828
0.016119733573881575,43143.780723802716
0.01675252472408214,43452.67881484193
0.017410156523040152,43703.02050644671
0.018093604107387147,43890.02202232146
0.01880388089340914,44008.761492823534
0.019542040079740527,44054.502730246546
0.02030917620904734,44022.44183055473
0.021106426791015535,43908.00058343836
0.021934973989050584,43706.8679739802
0.02279604637318978,43414.80558918394
0.023690920741826323,43028.19410004003
0.02462092401494623,42544.184957760874
0.02558743520168586,41960.7968102421
0.02659188744512693,41276.66186211716
0.027635770147361564,40490.06602588751
0.028720631177978267,39600.26905080071
0.029848079169243254,38610.69048096869
0.03101978590138095,37529.46478151629
0.03223748878149028,36364.532208950535
0.0335029934197723,35116.54761627145
0.03481817630688963,33784.43287591603
0.03618498759642746,32375.095773890513
0.037605453996581675,30909.10404580084
0.03908168177536263,29407.078868056808
0.04061585988376978,27882.04279550914
0.04221026320156896,26342.05404177061
0.04386725591048496,24798.580271960665
0.0455892949998106,23271.01681221125
0.047378933909631396,21777.677536139934
0.049238826317067365,20336.129545483487
0.05117173007114603,18961.35032022248
0.05318051128214196,17667.371255734623
0.05526814857144601,16465.48614071992
0.057437737488265785,15364.253832063345
0.0596924950997073,14369.156513546073
0.0620357647610427,13482.899587233367
0.06447102107323864,12705.126984546429
0.06700187503509585,12032.669168604698
0.06963207939763882,11459.165766272023
0.0723655342286965,10975.313795453181
0.07520629269592405,10568.363629226209
0.07815856707684081,10221.741171047073
0.08122673500479707,9915.679524025973
0.08441534596012978,9627.690330842885
0.0877291280161335,9334.164990311232
0.09117299484984914,9012.391070749947
0.09475205302806537,8643.017986313362
0.09847160957933764,8212.464633538653
0.1023371798632519,7715.315910269424
0.10635449574860109,7156.768089450219
0.11052951411260206,6553.245861376373
0.1148684256737553,5930.212476363584
0.1193776641714435,5319.169363342244
0.1240639159058831,4753.592118339012
0.12893412965257148,4262.469422769397
0.13399552696593373,3865.9552726142833
0.1392556128874462,3572.9741711903034
0.14472218707411338,3380.328620928215
0.15040335536380234,3272.39788798425
0.15630754179458153,3221.351252356528
0.16244350109588662,3188.851205853489
0.16882033167003618,3131.214932479962
0.17544748908334581,3009.99278350695
0.1823348000868439,2806.32043003945
0.189492477187382,2531.2464362940086
0.19693113379074215,2222.6761094629583
0.20466179993919872,1930.845878197245
0.21269593866686892,1700.2121007065525
0.22104546299710207,1554.8923976721335
0.22972275360711503,1491.7636896791307
0.23874067718606454,1481.7819251114436
0.2481126055137766,1476.336418790963
0.25785243528842716,1424.504349466839
0.26797460873256895,1303.0827532981987
0.27849413500806414,1135.1128354029668
0.28942661247167484,974.3043390044104
0.3007882518043098,866.8733039330472
0.31259590004822796,824.4111077827566
0.324867065587837,820.3193675596167
0.3376199441111335,804.0566093057241
0.35087344559027084,739.3533476690591
0.36464722232127456,640.0071785201322
0.37896169806447155,554.5899902113736
0.3938380983288488,514.3432314793489
0.4092984818452433,506.0639545440095
0.4253657732750382,487.5267761119475
0.44206379720285277,435.84669781490425
0.45941731346364734,376.9332148853739
0.47745205385661277,345.017012769516
0.4961947603002895,335.21579840422373
0.5156732244854959,315.1218794268194
0.5359163290848509,277.0260899469937
0.556954090580013,247.60180982443396
0.5788177037701272,236.04462764898983
0.6015395880274836,220.834171289098
0.6251534353689703,195.3911660590931
0.6496942604146115,178.03704494570886
0.6751984523072497,168.34619791007356
0.7017038286703824,152.5923599370143
0.7292496916841444,136.07694251540374
0.7578768863625915,123.06636193350639
0.7876278611187046,112.62817669434666
0.8185467307069019,103.84711237407046
0.850679341636415,96.04356778150276
0.8840733401525058,88.70650376882216
0.9187782428863317,81.54431731897408
0.9548455102782278,74.63341193208439
0.9923286228832539,68.09024124475168
1.0312831606721837,61.99534147897119
1.0717668854455022,56.398359605799584
1.1138398264826193,51.322527760778755
1.1575643695533022,46.74118439032367
1.2030053494233226,42.59251838577914
1.2502301459914542,38.822464196141034
1.299308784200415,35.38533312786029
1.3503140378698726,32.24245710981229
1.4033215376054824,29.362247144953717
1.4584098829439835,26.724139414088608
1.5156607589006013,24.3112765493905
1.575159057091621,22.107405581149465
1.6369930016117014,20.096950312825758
1.7012542798525885,18.26506118926909
1.7680381784572046,16.597102236810542
1.8374437246107238,15.07852007405631
1.9095738328780953,13.695971890600584
1.9845354578058014,12.437327156439055
2.0624397525140905,11.291553645752607
2.143402233514853,10.248630174898624
2.227542951999554,9.299582920047175
2.314986671851158,8.436279383836776
2.405863054644063,7.651254224209157
2.5003068519063225,6.937657715843386
2.598458104929248,6.289208988382475
2.7004623524206774,5.700140912502307
2.806470846309834,5.165144607995293
2.916640776023701,4.679367506431366
3.031135501567576,4.238381563164601
3.150124795755327,3.838147184445111
3.2737850959485697,3.474980361985563
3.4022997656780634,3.1455266555312473
3.5358593665351745,2.846730930927437
3.6746619407366854,2.575806770140444
3.8189133047818515,2.330213558513614
3.968827354637162,2.107635613681403
4.1246263829013445,1.9059624887650444
4.286541408420921,1.7232697719138854
4.4548125188449825,1.5578053747712521
4.629689226627261,1.4079753092838856
4.811430839003257,1.272329800946792
5.000306842491082,1.1495505855200465
5.196597302486189,1.038439425162354
5.400593278542364,0.9379074788678371
5.612597255954967,0.8469653492699728
5.8329235942862,0.764714216045782
6.06189899349756,0.6903377533749155
6.29986297838068,0.6230948050857931
6.547168402004727,0.5623130102920845
6.804181968927091,0.5073822337975492
7.071284778942991,0.4577487122408667
7.348872892180382,0.4129099851052164
7.637357916378006,0.37241026486839063
7.937167617217536,0.3358353933502349
8.248746552614573,0.3028083318113099
8.572556731909314,0.27298783881723565
8.909078300934132,0.2460653660037727
9.258810253973934,0.22176192291066896
9.622271173675122,0.19982548287096444
9.999999999999984,0.1800315297157466
