k [1/Mpc],P(k) [Mpc^3]
0.0001,4456.830989806833
0.00010392556829367125,4604.993734424404
0.00010800523745162529,4758.072036511284
0.00011224505680853065,4916.227808653967
0.00011665131316981963,5079.628487032315
0.00012123054013376525,5248.44690564403
0.00012598952777950273,5422.861030490113
0.00013093533273536104,5603.054390565791
0.00013607528864243335,5789.216499566804
0.00014141701702890234,5981.543116874252
0.00014696843861124463,6180.236280455336
0.00015273778503907136,6385.504010586876
0.00015873361110102093,6597.560641120039
0.00016496480740980205,6816.627330648652
0.0001714406135851971,7042.9323374920605
0.00017817063195457305,7276.71115173684
0.00018516484179121546,7518.20624785941
0.000192433614111598,7767.667240754899
0.00019998772705352857,8025.351432207059
0.0002078383818579757,8291.523722999471
0.00021599721947827182,8566.45705526041
0.0002244763378413224,8850.43250701022
0.0002332883097864157,9143.739327494528
0.00024244620170823283,9446.675404160056
0.0002519635929317015,9759.546584975014
0.0002618545958474233,10082.667245009583
0.0002721338768375308,10416.360925175111
0.0002828166780230032,10760.960365358851
0.0002939188398646886,11116.807891677698
0.0003054568246515432,11484.254320305708
0.00031744774091091926,11863.659125942671
0.00032990936877709396,12255.391636859573
0.00034286018635565856,12659.830681144813
0.00035631939712285854,13077.36522405609
0.000370306958400514,13508.393634537608
0.00038484361094874304,13953.323164192725
0.0003999509097203664,14412.571333796523
0.00041565125582259895,14886.564655959744
0.00043196792973341727,15375.739453465474
0.0004489251258218605,15880.541948602395
0.0004665479882234472,16401.427030317223
0.000484862648123908,16938.859795652803
0.000503896262506515,17493.313874179745
0.0005236770544204653,18065.271597192863
0.0005442343548300266,18655.22474320374
0.0005655986461065005,19263.671663815014
0.0005878016072274912,19891.11951286835
0.0006108761607505036,20538.083812834644
0.0006348565216305217,21205.087763448242
0.0006597782479539537,21892.662632337077
0.0006856782936641739,22601.34137317558
0.0007125950633568407,23331.66142579011
0.0007405684692262436,24084.165746841703
0.0007696399902471156,24859.400312628808
0.0007998527336796708,25657.915903184894
0.000831251498989063,26480.260773200545
0.0008638828442740447,27326.981074511947
0.000897795155303332,28198.622932949176
0.0009330387172620361,29095.72473524808
0.0009696657893145519,30018.822081277685
0.001007730682094461,30968.44177138041
0.0010472898382363582,31945.098248364935
0.0010884019160690055,32949.29817502254
0.0011311278765939214,33981.52955728507
0.001175531073878369,35042.26583619885
0.0012216773489967915,36131.96158761826
0.0012696351276599736,37251.0427646228
0.0013194755216767058,38399.91511632434
0.0013712724343984,39578.95261247191
0.0014251026703029975,40788.497825865816
0.0014810460488806749,42028.861492480755
0.0015391855229902056,43300.306177324965
0.001599607301861487,44603.05624676273
0.0016624009789266115,45937.28624057452
0.0017276596646690358,47303.11512112948
0.0017954801246878305,48700.61201005788
0.0018659629231817451,50129.774689311715
0.001939212572065829,51590.538035226775
0.0020153376859417325,53082.76574834961
0.002094451143151469,54606.235175105736
0.002176670253153458,56160.65008748541
0.002262116930469025,57745.61934374644
0.002350917875457286,59360.6591958193
0.002443204762186487,61005.189270680625
0.0025391144336803463,62678.50206267478
0.002638789104828933,64379.78487407113
0.002742376573264949,66108.0953115338
0.0028500304385181063,67862.35433378193
0.0029619103297725525,69641.35750838152
0.0030781821425650787,71443.72839220165
0.003199018284775064,73267.94495409299
0.0033245979322709396,75112.31483365347
0.003455107294592217,76974.94398664818
0.0035907398910610534,78853.77900749726
0.0037316968377327513,80746.5544438734
0.0038781871456107214,82650.81235290674
0.0040304280305680515,84563.8593211262
0.00418864523543527,86482.63130182646
0.004353073364731888,88403.85027712536
0.00452395623253805,90324.18414051112
0.004701547224022131,92240.2494136022
0.004886109671160325,94148.30788010909
0.005077917243205399,96043.50169596141
0.005277254352483535,97920.45479771396
0.005484416576121017,99773.7276712939
0.005699711094326071,101597.93524068086
0.005923457145875801,103387.51018139167
0.006155986501483508,105136.59402473576
0.006397643955748424,106839.1048603693
0.0066487878384172625,108488.4940414769
0.0069097905457156435,110077.28374587143
0.007181039092537346,111597.69250830075
0.007462935686310132,113041.32261712929
0.007755898323389004,114399.26406951704
0.00806036140886134,115662.36963289758
0.008376776400682916,116820.83317206084
0.008705612479099857,117864.68643689288
0.009047357242349292,118783.47413240974
0.00940251742967013,119566.12989681361
0.009771619672696168,120201.60055361225
0.010155211276345676,120677.8913376733
0.010553861030365234,120982.88008381632
0.010968160052731372,121104.37823751183
0.011398722666160517,121029.50875406264
0.011846187309026826,120746.03497640054
0.012311217482038896,120241.2534008791
0.012794502732078732,119502.66959939765
0.013296759674662111,118518.7969739872
0.013818733056536317,117277.72279542648
0.014361196859990781,115769.27970192091
0.014924955450518284,113984.12722722431
0.015510844769528393,111913.84258276963
0.016119733573881575,109553.00682420409
0.01675252472408214,106897.04663695875
0.017410156523040152,103944.7640668201
0.018093604107387147,100698.28966491771
0.01880388089340914,97161.97418729981
0.019542040079740527,93345.7500821367
0.02030917620904734,89262.87462117396
0.021106426791015535,84931.58747450613
0.021934973989050584,80376.14339423517
0.02279604637318978,75624.24782047856
0.023690920741826323,70710.30101235337
0.02462092401494623,65674.3978053513
0.02558743520168586,60561.55560840242
0.02659188744512693,55421.273523698386
0.027635770147361564,50303.7844494251
0.028720631177978267,45261.316188449855
0.029848079169243254,40352.59658281767
0.03101978590138095,35641.193502209084
0.03223748878149028,31181.082296473625
0.0335029934197723,27010.211928772016
0.03481817630688963,23155.484774444365
0.03618498759642746,19649.496372653968
0.037605453996581675,16532.273708689176
0.03908168177536263,13818.771588695126
0.04061585988376978,11507.874126212344
0.04221026320156896,9580.203405725135
0.04386725591048496,8013.525877528643
0.0455892949998106,6775.6497967428795
0.047378933909631396,5833.530680973199
0.049238826317067365,5152.537407650794
0.05117173007114603,4701.448844259346
0.05318051128214196,4453.341852768068
0.05526814857144601,4386.917042393661
0.057437737488265785,4476.963104475422
0.0596924950997073,4697.089648308754
0.0620357647610427,5013.992405254208
0.06447102107323864,5383.823797488824
0.06700187503509585,5751.487089820688
0.06963207939763882,6052.918155081063
0.0723655342286965,6220.354394335673
0.07520629269592405,6192.417397919119
0.07815856707684081,5927.203458804657
0.08122673500479707,5417.2594101994455
0.08441534596012978,4700.157468581278
0.0877291280161335,3856.8344982559397
0.09117299484984914,2993.1121820745757
0.09475205302806537,2210.924818239194
0.09847160957933764,1582.211307271118
0.1023371798632519,1136.98102434023
0.10635449574860109,869.1317537434807
0.11052951411260206,754.8774620534538
0.1148684256737553,771.9289262117464
0.1193776641714435,904.9063879932502
0.1240639159058831,1129.6389423386308
0.12893412965257148,1388.2117566121476
0.13399552696593373,1585.0832763260078
0.1392556128874462,1623.9866205016697
0.14472218707411338,1463.1445511675042
0.15040335536380234,1147.2612275501815
0.15630754179458153,789.8866021034762
0.16244350109588662,504.9355854115641
0.16882033167003618,343.33545869255556
0.17544748908334581,298.3955047035535
0.1823348000868439,350.5999340179664
0.189492477187382,473.2784478563412
0.19693113379074215,598.7102119568273
0.20466179993919872,629.0217763331099
0.21269593866686892,524.0914431395661
0.22104546299710207,352.7891345407761
0.22972275360711503,218.92441054408926
0.23874067718606454,168.05281794608325
0.2481126055137766,192.0908125467167
0.25785243528842716,259.2194468931526
0.26797460873256895,299.01959769134123
0.27849413500806414,255.47971278218682
0.28942661247167484,168.87033808936408
0.3007882518043098,114.72202789459882
0.31259590004822796,115.34049839868753
0.324867065587837,148.05450418415379
0.3376199441111335,158.55494746746598
0.35087344559027084,121.3930855556493
0.36464722232127456,82.77490293921416
0.37896169806447155,77.84064655878072
0.3938380983288488,93.17839632882664
0.4092984818452433,89.95175674933445
0.4253657732750382,65.75447503872391
0.44206379720285277,54.73425500660371
0.45941731346364734,60.55875555293739
0.47745205385661277,58.09099797587547
0.4961947603002895,44.615797625146946
0.5156732244854959,40.78292297869085
0.5359163290848509,41.789607556942826
0.556954090580013,37.252784536911214
0.5788177037701272,31.823437090642813
0.6015395880274836,27.620560597997887
0.6251534353689703,24.698219115473645
0.6496942604146115,22.56682887032554
0.6751984523072497,20.89220297599921
0.7017038286703824,19.433176753767288
0.7292496916841444,18.009074661959566
0.7578768863625915,16.536502552406024
0.7876278611187046,15.064706695651438
0.8185467307069019,13.6463585799544
0.850679341636415,12.319307130670683
0.8840733401525058,11.108195571822085
0.9187782428863317,10.025658889155917
0.9548455102782278,9.062871805097346
0.9923286228832539,8.201903311811483
1.0312831606721837,7.4278343398324225
1.0717668854455022,6.728393595504868
1.1138398264826193,6.093475446741342
1.1575643695533022,5.515402760832531
1.2030053494233226,4.98956043345583
1.2502301459914542,4.511968033661915
1.299308784200415,4.0788167738025685
1.3503140378698726,3.6864862500114093
1.4033215376054824,3.331544907858889
1.4584098829439835,3.010576187509663
1.5156607589006013,2.7202862409259887
1.575159057091621,2.4577050601083514
1.6369930016117014,2.2201598389483195
1.7012542798525885,2.0052438118450175
1.7680381784572046,1.810798137224818
1.8374437246107238,1.6349112654838422
1.9095738328780953,1.4758549767128752
1.9845354578058014,1.3320563268773982
2.0624397525140905,1.2020843979610738
2.143402233514853,1.084637960661541
2.227542951999554,0.9785302765837692
2.314986671851158,0.8826799476172689
2.405863054644063,0.7961071740088709
2.5003068519063225,0.7179246370723925
2.598458104929248,0.6473288734219725
2.7004623524206774,0.5835926200773028
2.806470846309834,0.5260584047694884
2.916640776023701,0.4741311088958294
3.031135501567576,0.4272717805634396
3.150124795755327,0.3849924361724155
3.2737850959485697,0.3468513316399278
3.4022997656780634,0.3124486078201008
3.5358593665351745,0.281422378153278
3.6746619407366854,0.253445279785518
3.8189133047818515,0.22822124288629692
3.968827354637162,0.20548254792834983
4.1246263829013445,0.18498714760135235
4.286541408420921,0.1665162005556531
4.4548125188449825,0.14987192036137162
4.629689226627261,0.1348756068411967
4.811430839003257,0.12136582989688396
5.000306842491082,0.10919678324894104
5.196597302486189,0.09823678943692095
5.400593278542364,0.08836694651664538
5.612597255954967,0.07947991181449207
5.8329235942862,0.07147879341607628
6.06189899349756,0.0642761454904555
6.29986297838068,0.05779306214881717
6.547168402004727,0.05195838567098466
6.804181968927091,0.046707932929328635
7.071284778942991,0.041983795590879974
7.348872892180382,0.03773373533628285
7.637357916378006,0.033910636732763094
7.937167617217536,0.030471967430130985
8.248746552614573,0.027379274581268986
8.572556731909314,0.024597921530513468
8.909078300934132,0.02209673263387152
9.258810253973934,0.019847646964207058
9.622271173675122,0.017825419449011535
9.999999999999984,0.01600753155698627
