k [1/Mpc],P(k) [Mpc^3]
0.0001,326.37437529007553
0.00010392556829367125,337.2287673116428
0.00010800523745162529,348.4438133362797
0.00011224505680853065,360.03145295401043
0.00011665131316981963,372.0040170594944
0.00012123054013376525,384.3742369169289
0.00012598952777950273,397.15526002285696
0.00013093533273536104,410.36066381095605
0.00013607528864243335,424.00446867810706
0.00014141701702890234,438.10115361983566
0.00014696843861124463,452.6656680969215
0.00015273778503907136,467.71344842859463
0.00015873361110102093,483.26043173839963
0.00016496480740980205,499.32306585226434
0.0001714406135851971,515.9183312522525
0.00017817063195457305,533.063736060375
0.00018516484179121546,550.7773327016414
0.000192433614111598,569.0777578036121
0.00019998772705352857,587.9842641824964
0.0002078383818579757,607.5167297534969
0.00021599721947827182,627.6956392354617
0.0002244763378413224,648.5420833532602
0.0002332883097864157,670.0778210826911
0.00024244620170823283,692.3253177754162
0.0002519635929317015,715.3077603133379
0.0002618545958474233,739.0490399994903
0.0002721338768375308,763.5737238029124
0.0002828166780230032,788.9071337693846
0.0002939188398646886,815.0753786879776
0.0003054568246515432,842.1053771849457
0.00031744774091091926,870.0248569191589
0.00032990936877709396,898.8622930088441
0.00034286018635565856,928.6469976600704
0.00035631939712285854,959.4091753792713
0.000370306958400514,991.1799504000271
0.00038484361094874304,1023.9913610931626
0.0003999509097203664,1057.8762274411354
0.00041565125582259895,1092.8682498965327
0.00043196792973341727,1129.0021066216527
0.0004489251258218605,1166.3134810503936
0.0004665479882234472,1204.839071466385
0.000484862648123908,1244.6164615941525
0.000503896262506515,1285.6841635869264
0.0005236770544204653,1328.0817223647805
0.0005442343548300266,1371.8496676807613
0.0005655986461065005,1417.0295928346197
0.0005878016072274912,1463.6640764872493
0.0006108761607505036,1511.796658869725
0.0006348565216305217,1561.4719576618245
0.0006597782479539537,1612.7355308543754
0.0006856782936641739,1665.6339793318152
0.0007125950633568407,1720.2149345527382
0.0007405684692262436,1776.5269601740288
0.0007696399902471156,1834.619689086215
0.0007998527336796708,1894.543568811073
0.000831251498989063,1956.3499244292632
0.0008638828442740447,2020.0910292781114
0.000897795155303332,2085.8198071213947
0.0009330387172620361,2153.5900863332417
0.0009696657893145519,2223.4564018215256
0.001007730682094461,2295.473913490791
0.0010472898382363582,2369.6985336947573
0.0010884019160690055,2446.186312094574
0.0011311278765939214,2524.9937618845984
0.001175531073878369,2606.1777428395653
0.0012216773489967915,2689.7951055041854
0.0012696351276599736,2775.9030279647845
0.0013194755216767058,2864.558198617985
0.0013712724343984,2955.8169697766125
0.0014251026703029975,3049.7355490946356
0.0014810460488806749,3146.3694176273502
0.0015391855229902056,3245.773677242576
0.001599607301861487,3348.002055198708
0.0016624009789266115,3453.1066263917087
0.0017276596646690358,3561.138426451782
0.0017954801246878305,3672.146539246122
0.0018659629231817451,3786.17846136514
0.001939212572065829,3903.2793233371194
0.0020153376859417325,4023.4909643612978
0.002094451143151469,4146.852859875348
0.002176670253153458,4273.4009859361795
0.002262116930469025,4403.167958342042
0.002350917875457286,4536.182725189295
0.002443204762186487,4672.469013947204
0.0025391144336803463,4812.046352456204
0.002638789104828933,4954.928597962483
0.002742376573264949,5101.123554131747
0.0028500304385181063,5250.633499392092
0.0029619103297725525,5403.4531568443135
0.0030781821425650787,5559.570582239198
0.003199018284775064,5718.965352468445
0.0033245979322709396,5881.606837335269
0.003455107294592217,6047.4561503049545
0.0035907398910610534,6216.463513871214
0.0037316968377327513,6388.568900168368
0.0038781871456107214,6563.701050218228
0.0040304280305680515,6741.773882742781
0.00418864523543527,6922.689558479641
0.004353073364731888,7106.335693026989
0.00452395623253805,7292.5850854735
0.004701547224022131,7481.295341654584
0.004886109671160325,7672.299770952794
0.005077917243205399,7865.414025568143
0.005277254352483535,8060.442608833144
0.005484416576121017,8257.180695134792
0.005699711094326071,8455.403364155127
0.005923457145875801,8654.824579463486
0.006155986501483508,8855.116712042227
0.006397643955748424,9055.937034181849
0.0066487878384172625,9256.937598372899
0.0069097905457156435,9457.752927600433
0.007181039092537346,9657.995784197501
0.007462935686310132,9857.257907063915
0.007755898323389004,10055.101820373744
0.00806036140886134,10251.028855733613
0.008376776400682916,10444.508190851562
0.008705612479099857,10634.973224130556
0.009047357242349292,10821.817666711486
0.00940251742967013,11004.410499409745
0.009771619672696168,11182.077980414195
0.010155211276345676,11354.118241452148
0.010553861030365234,11519.800754003792
0.010968160052731372,11678.354051452137
0.011398722666160517,11828.989404632344
0.011846187309026826,11970.872385962437
0.012311217482038896,12103.136660074208
0.012794502732078732,12224.905769064513
0.013296759674662111,12335.274787257735
0.013818733056536317,12433.340982522868
0.014361196859990781,12518.192890481658
0.014924955450518284,12588.913049143986
0.015510844769528393,12644.611224970877
0.016119733573881575,12684.41801523219
0.01675252472408214,12707.506126587608
0.017410156523040152,12713.107253193019
0.018093604107387147,12700.521417762682
0.01880388089340914,12669.131225470084
0.019542040079740527,12618.452617980633
0.02030917620904734,12548.126817776585
0.021106426791015535,12457.929452711223
0.021934973989050584,12347.84334696069
0.02279604637318978,12217.98836379929
0.023690920741826323,12068.788223213434
0.02462092401494623,11900.969303389282
0.02558743520168586,11715.373853424047
0.02659188744512693,11513.033173192298
0.027635770147361564,11295.086367112232
0.028720631177978267,11063.343964775486
0.029848079169243254,10820.655180122156
0.03101978590138095,10569.743803675636
0.03223748878149028,10312.202529489923
0.0335029934197723,10048.990504580743
0.03481817630688963,9781.700201233221
0.03618498759642746,9513.70312292991
0.037605453996581675,9248.381970443856
0.03908168177536263,8988.591494899834
0.04061585988376978,8736.702558696967
0.04221026320156896,8494.598827718519
0.04386725591048496,8263.217452231176
0.0455892949998106,8043.07144799163
0.047378933909631396,7833.496498360353
0.049238826317067365,7633.276706493944
0.05117173007114603,7440.440381467864
0.05318051128214196,7252.601086860653
0.05526814857144601,7066.815770502173
0.057437737488265785,6879.880704899551
0.0596924950997073,6688.152715057252
0.0620357647610427,6487.931585207439
0.06447102107323864,6275.588733074754
0.06700187503509585,6048.32169141852
0.06963207939763882,5804.800485108184
0.0723655342286965,5545.870618713815
0.07520629269592405,5274.839337131168
0.07815856707684081,4997.4427848109035
0.08122673500479707,4721.158217904064
0.08441534596012978,4453.708075717949
0.0877291280161335,4201.536047377885
0.09117299484984914,3970.145391627952
0.09475205302806537,3764.0295870208924
0.09847160957933764,3584.913290834762
0.1023371798632519,3430.7632393962904
0.10635449574860109,3295.56266266625
0.11052951411260206,3170.1527178479405
0.1148684256737553,3044.2144103076375
0.1193776641714435,2908.706141830193
0.1240639159058831,2758.2443754266383
0.12893412965257148,2592.997121011692
0.13399552696593373,2419.084739032844
0.1392556128874462,2246.823792694784
0.14472218707411338,2087.634399251382
0.15040335536380234,1950.5823727865932
0.15630754179458153,1838.6907180215098
0.16244350109588662,1746.8706518830707
0.16882033167003618,1664.4467486095473
0.17544748908334581,1580.1940734223542
0.1823348000868439,1486.2651816233229
0.189492477187382,1382.1710786372253
0.19693113379074215,1276.2209677811911
0.20466179993919872,1179.655132000707
0.21269593866686892,1099.5819383997043
0.22104546299710207,1035.009853920565
0.22972275360711503,977.2109004059289
0.23874067718606454,916.6908110386479
0.2481126055137766,850.4379575123241
0.25785243528842716,783.8875731972665
0.26797460873256895,724.775275348282
0.27849413500806414,675.9797137889695
0.28942661247167484,633.082688767478
0.3007882518043098,589.4908609780907
0.31259590004822796,544.2654944712505
0.324867065587837,501.9217717719691
0.3376199441111335,465.5411249404153
0.35087344559027084,433.10326706736714
0.36464722232127456,401.0480595435765
0.37896169806447155,369.5743152655187
0.3938380983288488,341.2665492656178
0.4092984818452433,316.0031615784067
0.4253657732750382,291.91215899872026
0.44206379720285277,268.8346441779386
0.45941731346364734,247.93927670454127
0.47745205385661277,228.76892223997874
0.4961947603002895,210.6256957424586
0.5156732244854959,193.83639448901653
0.5359163290848509,178.4754065472788
0.556954090580013,164.12532316427837
0.5788177037701272,150.85300109515632
0.6015395880274836,138.64912285299286
0.6251534353689703,127.32352440074669
0.6496942604146115,116.87838274103028
0.6751984523072497,107.24967226547176
0.7017038286703824,98.37148101646859
0.7292496916841444,90.18635252101285
0.7578768863625915,82.64484168674156
0.7876278611187046,75.70077187991976
0.8185467307069019,69.31078216574475
0.850679341636415,63.43421038032845
0.8840733401525058,58.032941923686764
0.9187782428863317,53.071048577115675
0.9548455102782278,48.51490707582548
0.9923286228832539,44.33325322669557
1.0312831606721837,40.49703892519835
1.0717668854455022,36.97929404492214
1.1138398264826193,33.75500175777719
1.1575643695533022,30.800984041102673
1.2030053494233226,28.09576134265703
1.2502301459914542,25.619437732612045
1.299308784200415,23.353596774092665
1.3503140378698726,21.281202709718304
1.4033215376054824,19.38650016161213
1.4584098829439835,17.654928277531358
1.5156607589006013,16.073047822651127
1.575159057091621,14.628462605886936
1.6369930016117014,13.30974513943802
1.7012542798525885,12.106366166679063
1.7680381784572046,11.00862513362186
1.8374437246107238,10.007593998502328
1.9095738328780953,9.095062615079788
1.9845354578058014,8.263484813825771
2.0624397525140905,7.50592813310321
2.143402233514853,6.816026103674072
2.227542951999554,6.187933799504535
2.314986671851158,5.616289880995149
2.405863054644063,5.09617915616218
2.5003068519063225,4.623097429709934
2.598458104929248,4.1929188819056105
2.7004623524206774,3.801865166727825
2.806470846309834,3.44647783330852
2.916640776023701,3.1235933318763016
3.031135501567576,2.830319036073812
3.150124795755327,2.564011064337986
3.2737850959485697,2.32225366826904
3.4022997656780634,2.1028397575193307
3.5358593665351745,1.9037543028013573
3.6746619407366854,1.7231585934336033
3.8189133047818515,1.5593753815417246
3.968827354637162,1.4108752179829034
4.1246263829013445,1.2762638712607883
4.286541408420921,1.1542707746309666
4.4548125188449825,1.0437384732173056
4.629689226627261,0.9436128941093301
4.811430839003257,0.8529344126608522
5.000306842491082,0.7708296305338604
5.196597302486189,0.696503470990802
5.400593278542364,0.6292325699683939
5.612597255954967,0.5683593709944313
5.8329235942862,0.5132863016031941
6.06189899349756,0.4634704383671669
6.29986297838068,0.4184187676515169
6.547168402004727,0.37768415177710424
6.804181968927091,0.34086060198991536
7.071284778942991,0.30757939830173925
7.348872892180382,0.2775057729407308
7.637357916378006,0.2503358675206547
7.937167617217536,0.2257931971280293
8.248746552614573,0.2036259588229864
8.572556731909314,0.18360625543813502
8.909078300934132,0.165527964062849
9.258810253973934,0.1492046537096803
9.622271173675122,0.134467920006251
9.999999999999984,0.12116788204440494
