k [1/Mpc],P(k) [Mpc^3]
0.0001,1462.7084705759448
0.00010392556829367125,1511.3544806641676
0.00010800523745162529,1561.6168298561213
0.00011224505680853065,1613.5490276819214
0.00011665131316981963,1667.206337377391
0.00012123054013376525,1722.6458165101342
0.00012598952777950273,1779.92638807171
0.00013093533273536104,1839.1089018982348
0.00013607528864243335,1900.2561930491704
0.00014141701702890234,1963.4331518805147
0.00014696843861124463,2028.706777227251
0.00015273778503907136,2096.1462498725587
0.00015873361110102093,2165.82299504884
0.00016496480740980205,2237.8107267977866
0.0001714406135851971,2312.185546360273
0.00017817063195457305,2389.025919695358
0.00018516484179121546,2468.4127521588985
0.000192433614111598,2550.429567320941
0.00019998772705352857,2635.162650317463
0.0002078383818579757,2722.70108778377
0.00021599721947827182,2813.1366858604333
0.0002244763378413224,2906.5639666185843
0.0002332883097864157,3003.0804470222415
0.00024244620170823283,3102.7868097924097
0.0002519635929317015,3205.7869713242862
0.0002618545958474233,3312.188005009555
0.0002721338768375308,3422.1000123648487
0.0002828166780230032,3535.63647892598
0.0002939188398646886,3652.914416167568
0.0003054568246515432,3774.0544650026845
0.00031744774091091926,3899.1808921770325
0.00032990936877709396,4028.421314316747
0.00034286018635565856,4161.907099615395
0.00035631939712285854,4299.773615279336
0.000370306958400514,4442.160350446026
0.00038484361094874304,4589.2108911318255
0.0003999509097203664,4741.072326293401
0.00041565125582259895,4897.895690880779
0.00043196792973341727,5059.836401634911
0.0004489251258218605,5227.05438061149
0.0004665479882234472,5399.714098107159
0.000484862648123908,5577.983992689348
0.000503896262506515,5762.036663854265
0.0005236770544204653,5952.049339637988
0.0005442343548300266,6148.203661791774
0.0005655986461065005,6350.686038552513
0.0005878016072274912,6559.687294239362
0.0006108761607505036,6775.40256263005
0.0006348565216305217,6998.03180629238
0.0006597782479539537,7227.77920197591
0.0006856782936641739,7464.853600355094
0.0007125950633568407,7709.468470817315
0.0007405684692262436,7961.841460572851
0.0007696399902471156,8222.195008804707
0.0007998527336796708,8490.755205619856
0.000831251498989063,8767.752074071326
0.0008638828442740447,9053.419887003682
0.000897795155303332,9347.995832270604
0.0009330387172620361,9651.721151908097
0.0009696657893145519,9964.84025441673
0.001007730682094461,10287.60034933782
0.0010472898382363582,10620.25201845593
0.0010884019160690055,10963.04645892483
0.0011311278765939214,11316.236945309998
0.001175531073878369,11680.078305442406
0.0012216773489967915,12054.825325786927
0.0012696351276599736,12440.734260748113
0.0013194755216767058,12838.059170093518
0.0013712724343984,13247.052607367621
0.0014251026703029975,13667.966477798882
0.0014810460488806749,14101.049430226438
0.0015391855229902056,14546.548414089042
0.001599607301861487,15004.704218253428
0.0016624009789266115,15475.750226211667
0.0017276596646690358,15959.915163789841
0.0017954801246878305,16457.419009619094
0.0018659629231817451,16968.474628649536
0.001939212572065829,17493.28428187652
0.0020153376859417325,18032.035479581988
0.002094451143151469,18584.905138403494
0.002176670253153458,19152.054491842086
0.002262116930469025,19733.629713764298
0.002350917875457286,20329.760540537198
0.002443204762186487,20940.55331130046
0.0025391144336803463,21566.095543763116
0.002638789104828933,22206.449341793967
0.002742376573264949,22861.649678996317
0.0028500304385181063,23531.70676657644
0.0029619103297725525,24216.59695511287
0.0030781821425650787,24916.26671419444
0.003199018284775064,25630.624513799907
0.0033245979322709396,26359.533078911103
0.003455107294592217,27102.81813217042
0.0035907398910610534,27860.256586271975
0.0037316968377327513,28631.579414986238
0.0038781871456107214,29416.46725772951
0.0040304280305680515,30214.534324978933
0.00418864523543527,31025.342131581645
0.004353073364731888,31848.387005592333
0.00452395623253805,32683.09887207696
0.004701547224022131,33528.83956466442
0.004886109671160325,34384.862027836374
0.005077917243205399,35250.34007207246
0.005277254352483535,36124.39754209474
0.005484416576121017,37006.11647319206
0.005699711094326071,37894.48884243373
0.005923457145875801,38788.232723474735
0.006155986501483508,39685.87978492758
0.006397643955748424,40585.89402776249
0.0066487878384172625,41486.71605942931
0.0069097905457156435,42386.707925584684
0.007181039092537346,43284.134147409044
0.007462935686310132,44177.16502559181
0.007755898323389004,45063.83992950538
0.00806036140886134,45941.923982461456
0.008376776400682916,46809.038203995835
0.008705612479099857,47662.64326192387
0.009047357242349292,48500.02195809224
0.00940251742967013,49318.34626071809
0.009771619672696168,50114.59666849023
0.010155211276345676,50885.62762604213
0.010553861030365234,51628.16513169099
0.010968160052731372,52338.7517119313
0.011398722666160517,53013.852527885545
0.011846187309026826,53649.7279345796
0.012311217482038896,54242.495286262514
0.012794502732078732,54788.226571129184
0.013296759674662111,55282.86619366969
0.013818733056536317,55722.36838915907
0.014361196859990781,56102.648257655295
0.014924955450518284,56419.59401978485
0.015510844769528393,56669.21592562598
0.016119733573881575,56847.61758246535
0.01675252472408214,56951.09131878168
0.017410156523040152,56976.19382667073
0.018093604107387147,56919.78802558152
0.01880388089340914,56779.10694386796
0.019542040079740527,56551.98118258253
0.02030917620904734,56236.80281244527
0.021106426791015535,55832.56626725856
0.021934973989050584,55339.1945703203
0.02279604637318978,54757.22491155693
0.023690920741826323,54088.556272200396
0.02462092401494623,53336.444053428546
0.02558743520168586,52504.662953814885
0.02659188744512693,51597.83493873548
0.027635770147361564,50621.06512001136
0.028720631177978267,49582.46772832488
0.029848079169243254,48494.812054650414
0.03101978590138095,47370.30528120657
0.03223748878149028,46216.08536752753
0.0335029934197723,45036.45091231051
0.03481817630688963,43838.53888119057
0.03618498759642746,42637.45930447609
0.037605453996581675,41448.37239524984
0.03908168177536263,40284.07226042627
0.04061585988376978,39155.1843681068
0.04221026320156896,38070.150723092614
0.04386725591048496,37033.171341491216
0.0455892949998106,36046.54540041223
0.047378933909631396,35107.29563923309
0.049238826317067365,34209.97278636004
0.05117173007114603,33345.7403361265
0.05318051128214196,32503.90302250535
0.05526814857144601,31671.27100075226
0.057437737488265785,30833.486160378056
0.0596924950997073,29974.220923823937
0.0620357647610427,29076.89207452529
0.06447102107323864,28125.237434957828
0.06700187503509585,27106.697218319016
0.06963207939763882,26015.310889602442
0.0723655342286965,24854.867737398705
0.07520629269592405,23640.189805010035
0.07815856707684081,22396.984708326847
0.08122673500479707,21158.76318451738
0.08441534596012978,19960.134805421505
0.0877291280161335,18829.978182164858
0.09117299484984914,17792.957209312026
0.09475205302806537,16869.210260580632
0.09847160957933764,16066.466713643815
0.1023371798632519,15375.614112919968
0.10635449574860109,14769.687165885543
0.11052951411260206,14207.638786881624
0.1148684256737553,13643.222450441375
0.1193776641714435,13035.916524665576
0.1240639159058831,12361.593670671005
0.12893412965257148,11621.006856656166
0.13399552696593373,10841.585635145108
0.1392556128874462,10069.56563469573
0.14472218707411338,9356.12826998669
0.15040335536380234,8741.903700911762
0.15630754179458153,8240.44009468905
0.16244350109588662,7828.931107838688
0.16882033167003618,7459.532801403135
0.17544748908334581,7081.93850786995
0.1823348000868439,6660.978420105264
0.189492477187382,6194.461016465825
0.19693113379074215,5719.625562641231
0.20466179993919872,5286.847511855776
0.21269593866686892,4927.984355267098
0.22104546299710207,4638.5923500079925
0.22972275360711503,4379.55541176447
0.23874067718606454,4108.323188711244
0.2481126055137766,3811.39849918361
0.25785243528842716,3513.1403691720193
0.26797460873256895,3248.217429979657
0.27849413500806414,3029.530895058277
0.28942661247167484,2837.27976686944
0.3007882518043098,2641.914748709685
0.31259590004822796,2439.228717933945
0.324867065587837,2249.4573187151504
0.3376199441111335,2086.4105714383463
0.35087344559027084,1941.034178343527
0.36464722232127456,1797.3727051367364
0.37896169806447155,1656.3171694031491
0.3938380983288488,1529.450563915706
0.4092984818452433,1416.2279154382186
0.4253657732750382,1308.2595324833517
0.44206379720285277,1204.8332865404902
0.45941731346364734,1111.1867465142677
0.47745205385661277,1025.2711784359312
0.4961947603002895,943.9588785413271
0.5156732244854959,868.714450615163
0.5359163290848509,799.8712788470821
0.556954090580013,735.5586669910491
0.5788177037701272,676.0762462358581
0.6015395880274836,621.3822585022176
0.6251534353689703,570.6244477037483
0.6496942604146115,523.8125704892644
0.6751984523072497,480.6596839895043
0.7017038286703824,440.8703913044756
0.7292496916841444,404.18719038707894
0.7578768863625915,370.38848370728925
0.7876278611187046,339.2673219503915
0.8185467307069019,310.6293748888007
0.850679341636415,284.2924073470434
0.8840733401525058,260.0856015389506
0.9187782428863317,237.8479383594398
0.9548455102782278,217.42872879019387
0.9923286228832539,198.6878564386112
1.0312831606721837,181.4951367321166
1.0717668854455022,165.72969794994503
1.1138398264826193,151.2794224470722
1.1575643695533022,138.040433532667
1.2030053494233226,125.91646653221271
1.2502301459914542,114.81835407445399
1.299308784200415,104.66355941553337
1.3503140378698726,95.37573358779332
1.4033215376054824,86.8842658864042
1.4584098829439835,79.12389909901471
1.5156607589006013,72.03440275379658
1.575159057091621,65.56022097665256
1.6369930016117014,59.650139320404556
1.7012542798525885,54.2569689307161
1.7680381784572046,49.337234940802006
1.8374437246107238,44.850924643468694
1.9095738328780953,40.76124271604342
1.9845354578058014,37.03436957302754
2.0624397525140905,33.639236076871654
2.143402233514853,30.547309691975034
2.227542951999554,27.732395277214966
2.314986671851158,25.170464975506228
2.405863054644063,22.839490424656706
2.5003068519063225,20.71928522183901
2.598458104929248,18.791358725850476
2.7004623524206774,17.038777564623096
2.806470846309834,15.446042036701208
2.916640776023701,13.998974095650878
3.031135501567576,12.684609889541768
3.150124795755327,11.491100363269418
3.2737850959485697,10.407618883633834
3.4022997656780634,9.424273957946731
3.5358593665351745,8.532034851473904
3.6746619407366854,7.722661034650493
3.8189133047818515,6.988635604009797
3.968827354637162,6.323104044044811
4.1246263829013445,5.719817842696822
4.286541408420921,5.173082714874254
4.4548125188449825,4.677711307709337
4.629689226627261,4.228979594159854
4.811430839003257,3.8225868349373577
5.000306842491082,3.4546187302563305
5.196597302486189,3.1215119933920024
5.400593278542364,2.8200247315280826
5.612597255954967,2.54720998100996
5.8329235942862,2.3003896078492825
6.06189899349756,2.0771303980549236
6.29986297838068,1.8752228178081254
6.547168402004727,1.6926629350593507
6.804181968927091,1.5276312344470566
7.071284778942991,1.378475227630063
7.348872892180382,1.2436945895441895
7.637357916378006,1.121927521380916
7.937167617217536,1.011934903725377
8.248746552614573,0.9125882340940868
8.572556731909314,0.8228661482427886
8.909078300934132,0.7418448673757821
9.258810253973934,0.6686888657742499
9.622271173675122,0.6026434074031082
9.999999999999984,0.5430367726344215
