k [1/Mpc],P(k) [Mpc^3]
0.0001,232.3331620324358
0.00010392556829367125,242.85033214553255
0.00010800523745162529,253.84345240425176
0.00011224505680853065,265.3340333089008
0.00011665131316981963,277.3445499307674
0.00012123054013376525,289.8984979928725
0.00012598952777950273,303.02044431436366
0.00013093533273536104,316.7360648605173
0.00013607528864243335,331.07218757968315
0.00014141701702890234,346.05684692603285
0.00014696843861124463,361.71933790634966
0.00015273778503907136,378.0902675008732
0.00015873361110102093,395.2016189023344
0.00016496480740980205,413.0868072017237
0.0001714406135851971,431.78074365388545
0.00017817063195457305,451.31991270874306
0.00018516484179121546,471.7424597865363
0.000192433614111598,493.0882520906968
0.00019998772705352857,515.3989155701996
0.0002078383818579757,538.7178935835774
0.00021599721947827182,563.0905733581181
0.0002244763378413224,588.5644130106155
0.0002332883097864157,615.1890175789069
0.00024244620170823283,643.0161904727311
0.0002519635929317015,672.0999893762322
0.0002618545958474233,702.4968728348679
0.0002721338768375308,734.2658201580836
0.0002828166780230032,767.4684421892207
0.0002939188398646886,802.1690824596197
0.0003054568246515432,838.434900462939
0.00031744774091091926,876.3360218557456
0.00032990936877709396,915.9456686764204
0.00034286018635565856,957.3402884499203
0.00035631939712285854,1000.5996945686643
0.000370306958400514,1045.8071279772291
0.00038484361094874304,1093.049441005544
0.0003999509097203664,1142.417303262921
0.00041565125582259895,1194.0053818108124
0.00043196792973341727,1247.9124852997008
0.0004489251258218605,1304.2416077590142
0.0004665479882234472,1363.1001097956914
0.000484862648123908,1424.5999851820068
0.000503896262506515,1488.8580091908868
0.0005236770544204653,1555.995972070112
0.0005442343548300266,1626.1408507639646
0.0005655986461065005,1699.4249944771177
0.0005878016072274912,1775.9863720277729
0.0006108761607505036,1855.9685808991205
0.0006348565216305217,1939.5211691056386
0.0006597782479539537,2026.7999838582882
0.0006856782936641739,2117.9674298641935
0.0007125950633568407,2213.192695704337
0.0007405684692262436,2312.6516427241454
0.0007696399902471156,2416.5270744244867
0.0007998527336796708,2525.009262000492
0.000831251498989063,2638.2961731799055
0.0008638828442740447,2756.593797104519
0.000897795155303332,2880.1161844742887
0.0009330387172620361,3009.0855879603373
0.0009696657893145519,3143.732985201491
0.001007730682094461,3284.297808099004
0.0010472898382363582,3431.0284850106414
0.0010884019160690055,3584.1829473355597
0.0011311278765939214,3744.028822575919
0.001175531073878369,3910.8438032154354
0.0012216773489967915,4084.914789518483
0.0012696351276599736,4266.538198672243
0.0013194755216767058,4456.021025827368
0.0013712724343984,4653.680851582675
0.0014251026703029975,4859.846315283039
0.0014810460488806749,5074.856207321643
0.0015391855229902056,5299.058988410551
0.001599607301861487,5532.814382426395
0.0016624009789266115,5776.493389438238
0.0017276596646690358,6030.478612618121
0.0017954801246878305,6295.163393851165
0.0018659629231817451,6570.950069502856
0.001939212572065829,6858.252015908099
0.0020153376859417325,7157.492725784846
0.002094451143151469,7469.105854111301
0.002176670253153458,7793.535580299334
0.002262116930469025,8131.234483501759
0.002350917875457286,8482.664866343357
0.002443204762186487,8848.296929749435
0.0025391144336803463,9228.607246102483
0.002638789104828933,9624.080520481752
0.002742376573264949,10035.20652069296
0.0028500304385181063,10462.480741143334
0.0029619103297725525,10906.403069046148
0.0030781821425650787,11367.473872212246
0.003199018284775064,11846.196411584455
0.0033245979322709396,12343.071959017085
0.003455107294592217,12858.598851027396
0.0035907398910610534,13393.272758053188
0.0037316968377327513,13947.579028788581
0.0038781871456107214,14521.995719068356
0.0040304280305680515,15116.988252818874
0.00418864523543527,15733.004525770575
0.004353073364731888,16370.47738706582
0.00452395623253805,17029.811143089555
0.004701547224022131,17711.38400446816
0.004886109671160325,18415.544557537505
0.005077917243205399,19142.599215713202
0.005277254352483535,19892.81845610909
0.005484416576121017,20666.414148095173
0.005699711094326071,21463.5366540481
0.005923457145875801,22284.28492699223
0.006155986501483508,23128.69844864825
0.006397643955748424,23996.754845689215
0.0066487878384172625,24888.304707217147
0.0069097905457156435,25803.033441831332
0.007181039092537346,26740.524754393708
0.007462935686310132,27700.25777218841
0.007755898323389004,28681.602484076386
0.00806036140886134,29683.803937120338
0.008376776400682916,30705.95945857638
0.008705612479099857,31747.025828515365
0.009047357242349292,32805.70451046588
0.00940251742967013,33880.44335240677
0.009771619672696168,34969.486793566015
0.010155211276345676,36070.780860251514
0.010553861030365234,37182.039289180415
0.010968160052731372,38300.6790288671
0.011398722666160517,39423.77443969599
0.011846187309026826,40548.13546318161
0.012311217482038896,41670.15116779038
0.012794502732078732,42785.87292239062
0.013296759674662111,43890.984256918535
0.013818733056536317,44980.64272401698
0.014361196859990781,46049.688255155124
0.014924955450518284,47092.455216794835
0.015510844769528393,48102.82614312349
0.016119733573881575,49074.34936244617
0.01675252472408214,49999.95669428028
0.017410156523040152,50872.2854846786
0.018093604107387147,51683.54759917825
0.01880388089340914,52425.476520693584
0.019542040079740527,53089.69934155442
0.02030917620904734,53667.43179924797
0.021106426791015535,54149.82638167967
0.021934973989050584,54528.03101202667
0.02279604637318978,54792.953728197164
0.023690920741826323,54935.956877271106
0.02462092401494623,54949.09004096713
0.02558743520168586,54825.265794712584
0.02659188744512693,54557.98339604214
0.027635770147361564,54140.08696169424
0.028720631177978267,53565.519726333005
0.029848079169243254,52833.75489825219
0.03101978590138095,51950.891200610415
0.03223748878149028,50923.1615529502
0.0335029934197723,49746.88468799222
0.03481817630688963,48415.835583962566
0.03618498759642746,46935.19026681358
0.037605453996581675,45330.51569684858
0.03908168177536263,43628.758214139234
0.04061585988376978,41846.80233462137
0.04221026320156896,39994.84766263577
0.04386725591048496,38088.857943336894
0.0455892949998106,36157.90132855113
0.047378933909631396,34230.728400623055
0.049238826317067365,32336.245987798302
0.05117173007114603,30500.52288200115
0.05318051128214196,28749.260643012316
0.05526814857144601,27104.78864351135
0.057437737488265785,25585.839033832577
0.0596924950997073,24206.733420787597
0.0620357647610427,22977.614281222734
0.06447102107323864,21903.694175101366
0.06700187503509585,20985.39052757413
0.06963207939763882,20217.37672762261
0.0723655342286965,19588.693468054316
0.07520629269592405,19081.52121130051
0.07815856707684081,18670.108803120827
0.08122673500479707,18321.506177372994
0.08441534596012978,17996.06391252425
0.0877291280161335,17650.117848442438
0.09117299484984914,17239.667577250715
0.09475205302806537,16725.187604138784
0.09847160957933764,16076.659582451748
0.1023371798632519,15278.922895577974
0.10635449574860109,14337.475630572933
0.11052951411260206,13280.943607852894
0.1148684256737553,12157.924646180236
0.1193776641714435,11031.885207142024
0.1240639159058831,9973.430195000292
0.12893412965257148,9046.917645543033
0.13399552696593373,8300.665402242788
0.1392556128874462,7760.731922045501
0.14472218707411338,7427.5990184653465
0.15040335536380234,7273.984205427491
0.15630754179458153,7243.709994184841
0.16244350109588662,7253.939849487313
0.16882033167003618,7205.5858462294045
0.17544748908334581,7007.10449425977
0.1823348000868439,6608.868643237646
0.189492477187382,6030.329093681997
0.19693113379074215,5356.726688987707
0.20466179993919872,4707.470841852559
0.21269593866686892,4193.3378530063355
0.22104546299710207,3879.4826528734616
0.22972275360711503,3765.2188866806073
0.23874067718606454,3783.4779898157294
0.2481126055137766,3813.3702537830272
0.25785243528842716,3722.2380416001483
0.26797460873256895,3444.5229518732713
0.27849413500806414,3035.378426132061
0.28942661247167484,2635.634401987052
0.3007882518043098,2372.263255697746
0.31259590004822796,2282.274145439389
0.324867065587837,2297.3314786277756
0.3376199441111335,2277.94926288124
0.35087344559027084,2118.976725969424
0.36464722232127456,1855.5630277806706
0.37896169806447155,1626.595679975683
0.3938380983288488,1526.0801354512448
0.4092984818452433,1518.960350153476
0.4253657732750382,1480.3221181820668
0.44206379720285277,1338.7769836926238
0.45941731346364734,1171.2661938515084
0.47745205385661277,1084.547138633183
0.4961947603002895,1065.9801631909459
0.5156732244854959,1013.7244586359567
0.5359163290848509,901.5270492341523
0.556954090580013,815.1332836481662
0.5788177037701272,786.114224313323
0.6015395880274836,744.0027358192592
0.6251534353689703,665.9320295480958
0.6496942604146115,613.83560934559
0.6751984523072497,587.1671309984687
0.7017038286703824,538.4035763627418
0.7292496916841444,485.7092913641596
0.7578768863625915,444.3732966837733
0.7876278611187046,411.40765383204433
0.8185467307069019,383.73946062599646
0.850679341636415,359.02694449221497
0.8840733401525058,335.452430832079
0.9187782428863317,311.95065682475655
0.9548455102782278,288.8299478424872
0.9923286228832539,266.56953898298895
1.0312831606721837,245.52822653817702
1.0717668854455022,225.95687779839454
1.1138398264826193,208.0098273459241
1.1575643695533022,191.64268661988547
1.2030053494233226,176.66177089676094
1.2502301459914542,162.8954975590934
1.299308784200415,150.19863761457415
1.3503140378698726,138.4482778841251
1.4033215376054824,127.54558777467241
1.4584098829439835,117.43474275660029
1.5156607589006013,108.07303754459907
1.575159057091621,99.41778793026889
1.6369930016117014,91.42673234935558
1.7012542798525885,84.05835625000383
1.7680381784572046,77.26961588714168
1.8374437246107238,71.01529983637464
1.9095738328780953,65.253345850498
1.9845354578058014,59.94510285159609
2.0624397525140905,55.055039167355105
2.143402233514853,50.55055381288077
2.227542951999554,46.40238357435612
2.314986671851158,42.58380797551554
2.405863054644063,39.0699536191646
2.5003068519063225,35.837677335862615
2.598458104929248,32.865461467523446
2.7004623524206774,30.133253319242854
2.806470846309834,27.62228729231363
2.916640776023701,25.315180623316397
3.031135501567576,23.19586911978282
3.150124795755327,21.249511235022048
3.2737850959485697,19.462400140905512
3.4022997656780634,17.821905432092915
3.5358593665351745,16.316383621104116
3.6746619407366854,14.935077832363872
3.8189133047818515,13.668053094755889
3.968827354637162,12.50613703520175
4.1246263829013445,11.440861446155019
4.286541408420921,10.464400902102964
4.4548125188449825,9.569539068712666
4.629689226627261,8.749627886262756
4.811430839003257,7.998544516071228
5.000306842491082,7.310651409356467
5.196597302486189,6.680760141979737
5.400593278542364,6.104097091753354
5.612597255954967,5.57627007007973
5.8329235942862,5.093238843682997
6.06189899349756,4.651287945313211
6.29986297838068,4.247001887674834
6.547168402004727,3.877244404885394
6.804181968927091,3.5391341481775864
7.071284778942991,3.23002305347259
7.348872892180382,2.9474781781510866
7.637357916378006,2.689264870099784
7.937167617217536,2.4533252128062273
8.248746552614573,2.23775842610258
8.572556731909314,2.0408232963660633
8.909078300934132,1.860926908848372
9.258810253973934,1.6966119687519081
9.622271173675122,1.5465470651773334
9.999999999999984,1.409540517154535
