k [1/Mpc],P(k) [Mpc^3]
0.0001,635.363962330624
0.00010392556829367125,660.288586925309
0.00010800523745162529,686.1895689146205
0.00011224505680853065,713.1049874411468
0.00011665131316981963,741.0743785680373
0.00012123054013376525,770.1388049872289
0.00012598952777950273,800.3409126779558
0.00013093533273536104,831.7249922593619
0.00013607528864243335,864.3370055312482
0.00014141701702890234,898.2246187877868
0.00014696843861124463,933.4373178745357
0.00015273778503907136,970.0264890946811
0.00015873361110102093,1008.0454878512714
0.00016496480740980205,1047.549694572886
0.0001714406135851971,1088.5965638568914
0.00017817063195457305,1131.2457253239627
0.00018516484179121546,1175.5589969073499
0.000192433614111598,1221.6004616628843
0.00019998772705352857,1269.4365985227785
0.0002078383818579757,1319.1363211587736
0.00021599721947827182,1370.7711009556217
0.0002244763378413224,1424.415038291548
0.0002332883097864157,1480.1449328166743
0.00024244620170823283,1538.0404086600065
0.0002519635929317015,1598.1838955771314
0.0002618545958474233,1660.6607772010213
0.0002721338768375308,1725.559464116133
0.0002828166780230032,1792.9713524896526
0.0002939188398646886,1862.9910869502398
0.0003054568246515432,1935.7166809510543
0.00031744774091091926,2011.2496280046303
0.00032990936877709396,2089.694925753537
0.00034286018635565856,2171.1608438533867
0.00035631939712285854,2255.7592918819637
0.000370306958400514,2343.6059459947587
0.00038484361094874304,2434.8203203119874
0.0003999509097203664,2529.5259141149127
0.00041565125582259895,2627.849922439646
0.00043196792973341727,2729.9235369478083
0.0004489251258218605,2835.882132435674
0.0004665479882234472,2945.865234371089
0.000484862648123908,3060.0167627229016
0.000503896262506515,3178.4846638608583
0.0005236770544204653,3301.421073836418
0.0005442343548300266,3428.9826364412893
0.0005655986461065005,3561.330269336066
0.0005878016072274912,3698.6295111700806
0.0006108761607505036,3841.05018019178
0.0006348565216305217,3988.766267867063
0.0006597782479539537,4141.956367268683
0.0006856782936641739,4300.802897802292
0.0007125950633568407,4465.492603930661
0.0007405684692262436,4636.216500020097
0.0007696399902471156,4813.169408788471
0.0007998527336796708,4996.550480218226
0.000831251498989063,5186.561816904159
0.0008638828442740447,5383.408743554663
0.000897795155303332,5587.300059598594
0.0009330387172620361,5798.446573070564
0.0009696657893145519,6017.062178631484
0.001007730682094461,6243.362678976775
0.0010472898382363582,6477.565307194646
0.0010884019160690055,6719.88925448942
0.0011311278765939214,6970.5529309963285
0.001175531073878369,7229.775202915723
0.0012216773489967915,7497.774892831409
0.0012696351276599736,7774.769427213266
0.0013194755216767058,8060.975578537327
0.0013712724343984,8356.60588381981
0.0014251026703029975,8661.869106059316
0.0014810460488806749,8976.970257637871
0.0015391855229902056,9302.107458764933
0.001599607301861487,9637.473581646003
0.0016624009789266115,9983.252948463092
0.0017276596646690358,10339.620210498117
0.0017954801246878305,10706.74115754298
0.0018659629231817451,11084.768002769588
0.001939212572065829,11473.840941953233
0.0020153376859417325,11874.084963878164
0.002094451143151469,12285.606334914497
0.002176670253153458,12708.495096303786
0.002262116930469025,13142.819795171552
0.002350917875457286,13588.627832996786
0.002443204762186487,14045.942818460417
0.0025391144336803463,14514.757172942382
0.002638789104828933,14995.0366911729
0.002742376573264949,15486.713430160218
0.0028500304385181063,15989.684208673103
0.0029619103297725525,16503.811029541637
0.0030781821425650787,17028.908464792774
0.003199018284775064,17564.750085413274
0.0033245979322709396,18111.060698540103
0.003455107294592217,18667.50975450084
0.0035907398910610534,19233.717980766265
0.0037316968377327513,19809.240062949597
0.0038781871456107214,20393.57064675951
0.0040304280305680515,20986.129619308234
0.00418864523543527,21586.231691211477
0.004353073364731888,22193.123033689095
0.00452395623253805,22806.018237109267
0.004701547224022131,23424.094980366055
0.004886109671160325,24046.406273436667
0.005077917243205399,24671.68936677924
0.005277254352483535,25298.530025444874
0.005484416576121017,25925.46951127341
0.005699711094326071,26551.02352039297
0.005923457145875801,27173.621425023615
0.006155986501483508,27791.57109009644
0.006397643955748424,28403.08089021619
0.0066487878384172625,29006.175607842586
0.0069097905457156435,29598.588805059382
0.007181039092537346,30177.92409933628
0.007462935686310132,30741.546347936517
0.007755898323389004,31286.62998953175
0.00806036140886134,31810.209249091276
0.008376776400682916,32309.056994294257
0.008705612479099857,32779.83590539988
0.009047357242349292,33218.964997668
0.00940251742967013,33622.61661856237
0.009771619672696168,33986.874809850604
0.010155211276345676,34307.44038840883
0.010553861030365234,34579.91582995513
0.010968160052731372,34799.74376011013
0.011398722666160517,34962.06223667265
0.011846187309026826,35062.1096551096
0.012311217482038896,35094.81465630395
0.012794502732078732,35055.11256178872
0.013296759674662111,34938.10036207613
0.013818733056536317,34738.605569664694
0.014361196859990781,34451.96269064968
0.014924955450518284,34073.55801541963
0.015510844769528393,33599.03701806642
0.016119733573881575,33024.94311980971
0.01675252472408214,32347.889337838005
0.017410156523040152,31565.703762963396
0.018093604107387147,30677.14496238573
0.01880388089340914,29681.69438394608
0.019542040079740527,28580.93337417929
0.02030917620904734,27377.336487326884
0.021106426791015535,26075.461698829287
0.021934973989050584,24682.075888859745
0.02279604637318978,23205.003629973755
0.023690920741826323,21655.330029734676
0.02462092401494623,20046.129468103867
0.02558743520168586,18392.854871393916
0.02659188744512693,16713.43626699275
0.027635770147361564,15025.101052774813
0.028720631177978267,13347.860698684386
0.029848079169243254,11705.287940106977
0.03101978590138095,10122.750767904721
0.03223748878149028,8623.393982085005
0.0335029934197723,7221.115829444828
0.03481817630688963,5928.68291690111
0.03618498759642746,4762.761981565239
0.037605453996581675,3739.5836133639923
0.03908168177536263,2866.8444704091985
0.04061585988376978,2143.619200311627
0.04221026320156896,1562.5633903476464
0.04386725591048496,1112.5332711651072
0.0455892949998106,777.20888863388
0.047378933909631396,538.8097322325854
0.049238826317067365,377.9263768618714
0.05117173007114603,277.03945948886764
0.05318051128214196,221.26395105121347
0.05526814857144601,200.64754486549046
0.057437737488265785,209.40232170617296
0.0596924950997073,247.03571669867307
0.0620357647610427,315.58521977217146
0.06447102107323864,416.8815811775881
0.06700187503509585,549.2797432013135
0.06963207939763882,704.8399393228254
0.0723655342286965,867.3036240893459
0.07520629269592405,1013.0922612416042
0.07815856707684081,1114.2683709714413
0.08122673500479707,1145.142953059365
0.08441534596012978,1090.80730874157
0.0877291280161335,954.3429635948428
0.09117299484984914,758.6096772066461
0.09475205302806537,540.416574235475
0.09847160957933764,339.0268934018369
0.1023371798632519,183.63874677098613
0.10635449574860109,85.19134302203445
0.11052951411260206,35.90409772298766
0.1148684256737553,18.394452696861887
0.1193776641714435,18.734523260804217
0.1240639159058831,36.35613588566101
0.12893412965257148,80.44049043338165
0.13399552696593373,153.86025518336578
0.1392556128874462,238.40076728598305
0.14472218707411338,296.9106594626221
0.15040335536380234,295.1402579996834
0.15630754179458153,229.64907302513427
0.16244350109588662,135.47133747551695
0.16882033167003618,58.40490158112153
0.17544748908334581,19.2068213928953
0.1823348000868439,8.433022165679501
0.189492477187382,13.13731289055451
0.19693113379074215,36.558255289721025
0.20466179993919872,78.94615569006399
0.21269593866686892,112.5733349371117
0.22104546299710207,104.3339166715824
0.22972275360711503,61.357606588704606
0.23874067718606454,22.877822184522184
0.2481126055137766,8.069082912931814
0.25785243528842716,9.435313833654385
0.26797460873256895,24.989238284804784
0.27849413500806414,46.940158286591284
0.28942661247167484,48.1822586915516
0.3007882518043098,26.42493598243489
0.31259590004822796,9.525055663993308
0.324867065587837,6.903662177137057
0.3376199441111335,15.01101569784084
0.35087344559027084,25.419782355622495
0.36464722232127456,20.66390399750395
0.37896169806447155,9.074319498409865
0.3938380983288488,5.812521936660769
0.4092984818452433,10.429367043060592
0.4253657732750382,14.427832346840518
0.44206379720285277,9.2363916763377
0.45941731346364734,4.964874633932733
0.47745205385661277,6.582414932302996
0.4961947603002895,8.772915347387489
0.5156732244854959,5.792895953699859
0.5359163290848509,4.250690445775425
0.556954090580013,4.8622859832522725
0.5788177037701272,4.61818884313824
0.6015395880274836,4.169925475992439
0.6251534353689703,3.7948040955331663
0.6496942604146115,3.470394329129761
0.6751984523072497,3.178190241859156
0.7017038286703824,2.904529278090081
0.7292496916841444,2.6396881328031987
0.7578768863625915,2.3814477047950304
0.7876278611187046,2.137424736067501
0.8185467307069019,1.9137874308254315
0.850679341636415,1.7141206289930535
0.8840733401525058,1.5400173509356563
0.9187782428863317,1.391411659224953
0.9548455102782278,1.264330789421935
0.9923286228832539,1.1534829742269102
1.0312831606721837,1.0547794247465998
1.0717668854455022,0.9650874880123856
1.1138398264826193,0.8820251551822729
1.1575643695533022,0.8042009221565086
1.2030053494233226,0.731681546595703
1.2502301459914542,0.6646367104597329
1.299308784200415,0.603089802360881
1.3503140378698726,0.5469477364479151
1.4033215376054824,0.4960210109504139
1.4584098829439835,0.44992160487404564
1.5156607589006013,0.4081554296343277
1.575159057091621,0.37028066273136634
1.6369930016117014,0.3359061686980039
1.7012542798525885,0.3046850803282468
1.7680381784572046,0.27631348722152177
1.8374437246107238,0.25053637138564316
1.9095738328780953,0.22712510087787838
1.9845354578058014,0.20586996074159916
2.0624397525140905,0.1865787486291565
2.143402233514853,0.16907541033729118
2.227542951999554,0.1531974916110952
2.314986671851158,0.13879533703622232
2.405863054644063,0.12573289341533073
2.5003068519063225,0.11388658014729859
2.598458104929248,0.10314414911515624
2.7004623524206774,0.09340370132280942
2.806470846309834,0.08457295646810645
2.916640776023701,0.07656810639165132
3.031135501567576,0.06931293661758278
3.150124795755327,0.06273815190326879
3.2737850959485697,0.056780759590053506
3.4022997656780634,0.05138345805520982
3.5358593665351745,0.04649411875460275
3.6746619407366854,0.04206540925844823
3.8189133047818515,0.03805436390543669
3.968827354637162,0.03442198491931324
4.1246263829013445,0.031132887886279194
4.286541408420921,0.028155022913579374
4.4548125188449825,0.025459316941950375
4.629689226627261,0.023019368434637515
4.811430839003257,0.02081120672566996
5.000306842491082,0.018813072615766417
5.196597302486189,0.017005201484321483
5.400593278542364,0.015369631032361481
5.612597255954967,0.013890075787542143
5.8329235942862,0.012551776763121447
6.06189899349756,0.011341359567672276
6.29986297838068,0.010246706408669305
6.547168402004727,0.009256846930728918
6.804181968927091,0.008361845155986088
7.071284778942991,0.007552696735575609
7.348872892180382,0.0068212426274635776
7.637357916378006,0.006160090753190278
7.937167617217536,0.005562538298175565
8.248746552614573,0.0050224987404677264
8.572556731909314,0.004534463711822436
8.909078300934132,0.004093451506154771
9.258810253973934,0.0036949566450384503
9.622271173675122,0.0033349064236038567
9.999999999999984,0.0030096520831441585
