k [1/Mpc],P(k) [Mpc^3]
0.0001,226.36985182830375
0.00010392556829367125,235.93474490024678
0.00010800523745162529,245.903624819295
0.00011224505680853065,256.293556030886
0.00011665131316981963,267.1223163341199
0.00012123054013376525,278.408406739683
0.00012598952777950273,290.1711006081005
0.00013093533273536104,302.43049227732575
0.00013607528864243335,315.2075331336765
0.00014141701702890234,328.5240526383618
0.00014696843861124463,342.40277474759046
0.00015273778503907136,356.86736927634644
0.00015873361110102093,371.9425124303041
0.00016496480740980205,387.65393752791215
0.0001714406135851971,404.02845775091714
0.00017817063195457305,421.0939814497996
0.00018516484179121546,438.87957102775175
0.000192433614111598,457.41550860361303
0.00019998772705352857,476.733352495956
0.0002078383818579757,496.8659800364785
0.00021599721947827182,517.8476089357673
0.0002244763378413224,539.7138594362699
0.0002332883097864157,562.5018472678872
0.00024244620170823283,586.2502796322851
0.0002519635929317015,610.9994855881511
0.0002618545958474233,636.7914056125229
0.0002721338768375308,663.6696499928131
0.0002828166780230032,691.6796365444785
0.0002939188398646886,720.8687057436338
0.0003054568246515432,751.2861704942339
0.00031744774091091926,782.983352240347
0.00032990936877709396,816.0136451501686
0.00034286018635565856,850.4326226845219
0.00035631939712285854,886.2980369827648
0.000370306958400514,923.6699502748254
0.00038484361094874304,962.610917452756
0.0003999509097203664,1003.1861450360143
0.00041565125582259895,1045.4635002276473
0.00043196792973341727,1089.5134162176764
0.0004489251258218605,1135.4090374763937
0.0004665479882234472,1183.2264419568457
0.000484862648123908,1233.0447578521419
0.000503896262506515,1284.9462767593877
0.0005236770544204653,1339.0165421368395
0.0005442343548300266,1395.3444705007178
0.0005655986461065005,1454.0224536634896
0.0005878016072274912,1515.1462948145645
0.0006108761607505036,1578.8154751928541
0.0006348565216305217,1645.1333072383297
0.0006597782479539537,1714.20705192087
0.0006856782936641739,1786.148092313144
0.0007125950633568407,1861.0719867515636
0.0007405684692262436,1939.0986635571676
0.0007696399902471156,2020.3524231362205
0.0007998527336796708,2104.9618723860303
0.000831251498989063,2193.060363004649
0.0008638828442740447,2284.7862112585412
0.000897795155303332,2380.2828534628147
0.0009330387172620361,2479.698724663869
0.0009696657893145519,2583.1868521531815
0.001007730682094461,2690.9055476417384
0.0010472898382363582,2803.018690761899
0.0010884019160690055,2919.695888676608
0.0011311278765939214,3041.1124025080358
0.001175531073878369,3167.4484675119434
0.0012216773489967915,3298.890024838974
0.0012696351276599736,3435.6287784356678
0.0013194755216767058,3577.8621729583706
0.0013712724343984,3725.7937103767886
0.0014251026703029975,3879.632137863768
0.0014810460488806749,4039.592026619634
0.0015391855229902056,4205.893848089637
0.001599607301861487,4378.763622251228
0.0016624009789266115,4558.433435288711
0.0017276596646690358,4745.140276484973
0.0017954801246878305,4939.126400698008
0.0018659629231817451,5140.6395480624515
0.001939212572065829,5349.93193793711
0.0020153376859417325,5567.261115992057
0.002094451143151469,5792.8887825235415
0.002176670253153458,6027.080642717386
0.002262116930469025,6270.106710182963
0.002350917875457286,6522.23927274512
0.002443204762186487,6783.7540132980175
0.0025391144336803463,7054.928635267247
0.002638789104828933,7336.041843722049
0.002742376573264949,7627.374195489317
0.0028500304385181063,7929.205089262673
0.0029619103297725525,8241.813679298626
0.0030781821425650787,8565.477552319384
0.003199018284775064,8900.47029013941
0.0033245979322709396,9247.06291815305
0.003455107294592217,9605.519440580903
0.0035907398910610534,9976.097169501103
0.0037316968377327513,10359.045777389072
0.0038781871456107214,10754.602226912957
0.0040304280305680515,11162.993421758782
0.00418864523543527,11584.429921071527
0.004353073364731888,12019.104672418045
0.00452395623253805,12467.193856561487
0.004701547224022131,12928.848643766109
0.004886109671160325,13404.198431126057
0.005077917243205399,13893.338490388305
0.005277254352483535,14396.323450621318
0.005484416576121017,14913.179805912398
0.005699711094326071,15443.915046624541
0.005923457145875801,15988.509072531231
0.006155986501483508,16546.85998799341
0.006397643955748424,17118.738177648305
0.0066487878384172625,17703.854689900436
0.0069097905457156435,18301.91431680638
0.007181039092537346,18912.596230958035
0.007462935686310132,19535.48242085166
0.007755898323389004,20169.98104128412
0.00806036140886134,20815.405287235197
0.008376776400682916,21471.013972707085
0.008705612479099857,22136.007024693827
0.009047357242349292,22809.470314669
0.00940251742967013,23490.276183580118
0.009771619672696168,24177.16063501631
0.010155211276345676,24868.699794840315
0.010553861030365234,25563.29491173876
0.010968160052731372,26259.20572871635
0.011398722666160517,26954.474759683202
0.011846187309026826,27646.978171824503
0.012311217482038896,28334.392860461983
0.012794502732078732,29014.148539527
0.013296759674662111,29683.508999261954
0.013818733056536317,30339.44430090406
0.014361196859990781,30978.703171956742
0.014924955450518284,31597.829679139322
0.015510844769528393,32193.06309518431
0.016119733573881575,32760.494341517373
0.01675252472408214,33295.94083602631
0.017410156523040152,33795.00766533226
0.018093604107387147,34253.18534699239
0.01880388089340914,34665.69770297062
0.019542040079740527,35027.73635586641
0.02030917620904734,35334.411782248164
0.021106426791015535,35580.79019756097
0.021934973989050584,35762.07842374942
0.02279604637318978,35873.46823631772
0.023690920741826323,35910.402165810985
0.02462092401494623,35868.83764260208
0.02558743520168586,35745.37940653529
0.02659188744512693,35537.14853525613
0.027635770147361564,35241.178566789844
0.028720631177978267,34854.905759825386
0.029848079169243254,34378.270146121184
0.03101978590138095,33815.77319845421
0.03223748878149028,33172.65324925286
0.0335029934197723,32449.5314931719
0.03481817630688963,31644.282107782605
0.03618498759642746,30759.296794992606
0.037605453996581675,29808.898047728755
0.03908168177536263,28809.113763243888
0.04061585988376978,27771.412846852116
0.04221026320156896,26702.99993275416
0.04386725591048496,25612.868185319883
0.0455892949998106,24517.343935834055
0.047378933909631396,23432.817764972515
0.049238826317067365,22374.908059601526
0.05117173007114603,21357.57726975267
0.05318051128214196,20393.551053409734
0.05526814857144601,19493.81969240143
0.057437737488265785,18666.73117509991
0.0596924950997073,17918.199901663
0.0620357647610427,17250.768492099454
0.06447102107323864,16664.17114760936
0.06700187503509585,16154.791552093795
0.06963207939763882,15715.100286170711
0.0723655342286965,15333.742461661257
0.07520629269592405,14994.770817961748
0.07815856707684081,14677.923679975638
0.08122673500479707,14359.735601857208
0.08441534596012978,14015.175785308305
0.0877291280161335,13620.252079928434
0.09117299484984914,13155.42859876511
0.09475205302806537,12608.257134547623
0.09847160957933764,11975.969111692924
0.1023371798632519,11267.111767987582
0.10635449574860109,10503.329027544007
0.11052951411260206,9717.249637811354
0.1148684256737553,8947.646703725513
0.1193776641714435,8234.418795967642
0.1240639159058831,7613.523019333331
0.12893412965257148,7110.135500320174
0.13399552696593373,6734.876739572799
0.1392556128874462,6481.673323277523
0.14472218707411338,6326.634804536742
0.15040335536380234,6228.516025953233
0.15630754179458153,6132.976331391696
0.16244350109588662,5982.466146407739
0.16882033167003618,5731.7357013694245
0.17544748908334581,5365.815735030989
0.1823348000868439,4910.922322693283
0.189492477187382,4427.765207843977
0.19693113379074215,3988.0181092285125
0.20466179993919872,3649.2562904180145
0.21269593866686892,3437.710266137766
0.22104546299710207,3337.9683285747024
0.22972275360711503,3294.726455763185
0.23874067718606454,3230.76068222765
0.2481126055137766,3080.11576926093
0.25785243528842716,2828.2310853630506
0.26797460873256895,2527.187765486839
0.27849413500806414,2261.7649716071187
0.28942661247167484,2093.1707414165908
0.3007882518043098,2021.360399866283
0.31259590004822796,1986.5837176986363
0.324867065587837,1908.365550909815
0.3376199441111335,1751.3836533104554
0.35087344559027084,1560.5338332314423
0.36464722232127456,1413.8771410995223
0.37896169806447155,1344.0083663478201
0.3938380983288488,1308.297281206392
0.4092984818452433,1236.9163485230042
0.4253657732750382,1117.1343220146248
0.44206379720285277,1006.0881179279468
0.45941731346364734,946.6857083786768
0.47745205385661277,910.6073724077058
0.4961947603002895,846.0702623765495
0.5156732244854959,762.2842518734215
0.5359163290848509,704.923670750354
0.556954090580013,671.0208031573952
0.5788177037701272,622.4005508879668
0.6015395880274836,564.6071810374399
0.6251534353689703,526.472505564932
0.6496942604146115,494.4156380638501
0.6751984523072497,451.85006052254994
0.7017038286703824,417.40153497202346
0.7292496916841444,389.51454855017244
0.7578768863625915,360.96441112378193
0.7876278611187046,333.62449098492084
0.8185467307069019,307.76413310287603
0.850679341636415,283.56872802809585
0.8840733401525058,261.15155612338066
0.9187782428863317,240.54845144280006
0.9548455102782278,221.6322857066022
0.9923286228832539,204.23140464518838
1.0312831606721837,188.195434587184
1.0717668854455022,173.3926663824884
1.1138398264826193,159.70761110969744
1.1575643695533022,147.04583217429183
1.2030053494233226,135.33602281269637
1.2502301459914542,124.51286065800677
1.299308784200415,114.51480861839754
1.3503140378698726,105.28397141466866
1.4033215376054824,96.76590715029289
1.4584098829439835,88.9090869272378
1.5156607589006013,81.66506972044937
1.575159057091621,74.9886706362048
1.6369930016117014,68.83777494752074
1.7012542798525885,63.17315494965172
1.7680381784572046,57.958268241144054
1.8374437246107238,53.15905334529186
1.9095738328780953,48.74385584595669
1.9845354578058014,44.68328849602978
2.0624397525140905,40.950082399453144
2.143402233514853,37.51894681891166
2.227542951999554,34.36643895022042
2.314986671851158,31.47083850157347
2.405863054644063,28.812028564288163
2.5003068519063225,26.371385866679184
2.598458104929248,24.13167779166292
2.7004623524206774,22.076963689064517
2.806470846309834,20.192498676354777
2.916640776023701,18.464657688860637
3.031135501567576,16.88085813444216
3.150124795755327,15.429484789345207
3.2737850959485697,14.099819595799683
3.4022997656780634,12.881973905421145
3.5358593665351745,11.766827793181758
3.6746619407366854,10.745976641280983
3.8189133047818515,9.811678007231869
3.968827354637162,8.956801959676751
4.1246263829013445,8.174784723350246
4.286541408420921,7.459584925730556
4.4548125188449825,6.805644770040304
4.629689226627261,6.207853477914214
4.811430839003257,5.66151284311308
5.000306842491082,5.162305280810319
5.196597302486189,4.706263090243829
5.400593278542364,4.289740633821872
5.612597255954967,3.9093913301989285
5.8329235942862,3.562144200824255
6.06189899349756,3.245181934403515
6.29986297838068,2.955920978201088
6.547168402004727,2.6919957063259123
6.804181968927091,2.4512384334658326
7.071284778942991,2.2316613186820016
7.348872892180382,2.031442017023559
7.637357916378006,1.8489104338776572
7.937167617217536,1.6825323712350657
8.248746552614573,1.530893624542871
8.572556731909314,1.3927015539734788
8.909078300934132,1.2667764919002586
9.258810253973934,1.1520418331469795
9.622271173675122,1.047516188304545
9.999999999999984,0.9523222330612738
