k [1/Mpc],P(k) [Mpc^3]
0.0001,208.52309465519883
0.00010392556829367125,216.70608694031574
0.00010800523745162529,225.20997643281922
0.00011224505680853065,234.04731854277713
0.00011665131316981963,243.231156762031
0.00012123054013376525,252.7750401157308
0.00012598952777950273,262.6930448623411
0.00013093533273536104,272.9997970696444
0.00013607528864243335,283.71049344460306
0.00014141701702890234,294.8409157940079
0.00014696843861124463,306.4074384625836
0.00015273778503907136,318.4270659201023
0.00015873361110102093,330.9174740280701
0.00016496480740980205,343.8970377861072
0.0001714406135851971,357.3848386034542
0.00017817063195457305,371.40065828720117
0.00018516484179121546,385.9650278067607
0.000192433614111598,401.09927311214653
0.00019998772705352857,416.82554941656537
0.0002078383818579757,433.16686179744045
0.00021599721947827182,450.1470732268341
0.0002244763378413224,467.7909464924362
0.0002332883097864157,486.12419260772975
0.00024244620170823283,505.1735108357045
0.0002519635929317015,524.9666161821555
0.0002618545958474233,545.5322156570875
0.0002721338768375308,566.9000507817672
0.0002828166780230032,589.1009915156392
0.0002939188398646886,612.1671151950311
0.0003054568246515432,636.1317168943294
0.00031744774091091926,661.0292525044811
0.00032990936877709396,686.8953504131282
0.00034286018635565856,713.7669568766308
0.00035631939712285854,741.6824447263692
0.000370306958400514,770.6816298402377
0.00038484361094874304,800.805723596301
0.0003999509097203664,832.0973080865678
0.00041565125582259895,864.6004881581688
0.00043196792973341727,898.3609151175009
0.0004489251258218605,933.4258502639882
0.0004665479882234472,969.8442210062944
0.000484862648123908,1007.6666345823108
0.000503896262506515,1046.945467193013
0.0005236770544204653,1087.7348097244571
0.0005442343548300266,1130.0905152466787
0.0005655986461065005,1174.070333768431
0.0005878016072274912,1219.7339070866917
0.0006108761607505036,1267.1428695047605
0.0006348565216305217,1316.360811389011
0.0006597782479539537,1367.4532719398119
0.0006856782936641739,1420.487901177538
0.0007125950633568407,1475.5343642815621
0.0007405684692262436,1532.6644687281657
0.0007696399902471156,1591.9521790770302
0.0007998527336796708,1653.473522139468
0.000831251498989063,1717.3067976450843
0.0008638828442740447,1783.532431756878
0.000897795155303332,1852.2330576850272
0.0009330387172620361,1923.4935514280032
0.0009696657893145519,1997.4006851966114
0.001007730682094461,2074.04348137881
0.0010472898382363582,2153.5129999762808
0.0010884019160690055,2235.9022820662813
0.0011311278765939214,2321.3065520431037
0.001175531073878369,2409.822673712054
0.0012216773489967915,2501.5494897605295
0.0012696351276599736,2596.5876379627157
0.0013194755216767058,2695.0392302520168
0.0013712724343984,2797.008201118368
0.0014251026703029975,2902.599432885514
0.0014810460488806749,3011.919006251522
0.0015391855229902056,3125.074257556066
0.001599607301861487,3242.1731411790333
0.0016624009789266115,3363.324651797011
0.0017276596646690358,3488.6377834017458
0.0017954801246878305,3618.221421034735
0.0018659629231817451,3752.184640840452
0.001939212572065829,3890.635566541356
0.0020153376859417325,4033.6818918011936
0.002094451143151469,4181.429732509146
0.002176670253153458,4333.982878166817
0.002262116930469025,4491.443573855399
0.002350917875457286,4653.911179690253
0.002443204762186487,4821.482412819661
0.0025391144336803463,4994.250027874628
0.002638789104828933,5172.300886777959
0.002742376573264949,5355.717460038701
0.0028500304385181063,5544.575891386866
0.0029619103297725525,5738.945937057888
0.0030781821425650787,5938.890262554457
0.003199018284775064,6144.461249938627
0.0033245979322709396,6355.702791811324
0.003455107294592217,6572.647595277041
0.0035907398910610534,6795.3162259332
0.0037316968377327513,7023.717546276361
0.0038781871456107214,7257.843553402074
0.0040304280305680515,7497.671654624705
0.00418864523543527,7743.161736380116
0.004353073364731888,7994.253115981226
0.00452395623253805,8250.866427869449
0.004701547224022131,8512.891774072707
0.004886109671160325,8780.192830805585
0.005077917243205399,9052.615605083762
0.005277254352483535,9329.993611996473
0.005484416576121017,9612.13579302091
0.005699711094326071,9898.773040434791
0.005923457145875801,10189.564911282583
0.006155986501483508,10484.14062737317
0.006397643955748424,10782.116994587566
0.0066487878384172625,11083.081437961766
0.0069097905457156435,11386.575987442142
0.007181039092537346,11692.094260413298
0.007462935686310132,11999.082308075955
0.007755898323389004,12306.892512033235
0.00806036140886134,12614.813121493005
0.008376776400682916,12922.067256039674
0.008705612479099857,13227.797632876449
0.009047357242349292,13531.090683001248
0.00940251742967013,13830.939645468106
0.009771619672696168,14126.262898812834
0.010155211276345676,14415.906201170268
0.010553861030365234,14698.603652699325
0.010968160052731372,14973.028651186967
0.011398722666160517,15237.745713238119
0.011846187309026826,15491.222172732756
0.012311217482038896,15731.864841787876
0.012794502732078732,15957.94927026999
0.013296759674662111,16167.70133211952
0.013818733056536317,16359.264068223183
0.014361196859990781,16530.687006726217
0.014924955450518284,16680.0132333151
0.015510844769528393,16805.19099355135
0.016119733573881575,16904.16970789046
0.01675252472408214,16974.916217697817
0.017410156523040152,17015.377534936142
0.018093604107387147,17023.61521943381
0.01880388089340914,16997.744136457684
0.019542040079740527,16936.010037921355
0.02030917620904734,16836.88094039707
0.021106426791015535,16699.037403666567
0.021934973989050584,16521.468296798354
0.02279604637318978,16303.50249434734
0.023690920741826323,16044.841602893703
0.02462092401494623,15745.668302678532
0.02558743520168586,15406.911746570782
0.02659188744512693,15030.013901888244
0.027635770147361564,14616.826616271874
0.028720631177978267,14169.601405158997
0.029848079169243254,13691.231973339274
0.03101978590138095,13187.096700066695
0.03223748878149028,12663.52717771976
0.0335029934197723,12125.848687111795
0.03481817630688963,11577.585347073571
0.03618498759642746,11022.237086487467
0.037605453996581675,10466.494931826746
0.03908168177536263,9918.606444107409
0.04061585988376978,9385.939451804361
0.04221026320156896,8875.538596181284
0.04386725591048496,8393.261845550505
0.0455892949998106,7944.447140952968
0.047378933909631396,7533.316241635036
0.049238826317067365,7162.562024619829
0.05117173007114603,6833.739353748934
0.05318051128214196,6546.894919881644
0.05526814857144601,6301.025010261264
0.057437737488265785,6093.424090123353
0.0596924950997073,5920.031611133314
0.0620357647610427,5775.134898385022
0.06447102107323864,5650.941585373912
0.06700187503509585,5537.893818538067
0.06963207939763882,5424.753590788413
0.0723655342286965,5299.575767660572
0.07520629269592405,5150.747512972095
0.07815856707684081,4969.074461347896
0.08122673500479707,4749.336998948843
0.08441534596012978,4490.3411561718
0.0877291280161335,4195.656953348927
0.09117299484984914,3874.229719901347
0.09475205302806537,3540.509058265445
0.09847160957933764,3212.6779535538344
0.1023371798632519,2909.7981660572127
0.10635449574860109,2648.451923995812
0.11052951411260206,2439.8627705807776
0.1148684256737553,2288.352178908718
0.1193776641714435,2191.0058792122095
0.1240639159058831,2137.8170607371458
0.12893412965257148,2112.0539235632123
0.13399552696593373,2091.641036487779
0.1392556128874462,2052.5675291458283
0.14472218707411338,1974.5076596765352
0.15040335536380234,1847.9538561706663
0.15630754179458153,1680.1476229256086
0.16244350109588662,1494.3299573212887
0.16882033167003618,1320.5081036738882
0.17544748908334581,1183.989414208615
0.1823348000868439,1097.9959420430891
0.189492477187382,1059.7695442380682
0.19693113379074215,1050.2536322499368
0.20466179993919872,1039.9344761469727
0.21269593866686892,1000.6766806622603
0.22104546299710207,920.8893042128863
0.22972275360711503,815.0763243450964
0.23874067718606454,714.7261816743946
0.2481126055137766,646.7643405820912
0.25785243528842716,617.2108867445646
0.26797460873256895,608.8626166286854
0.27849413500806414,592.3472623379977
0.28942661247167484,547.869388849522
0.3007882518043098,484.2025102795848
0.31259590004822796,428.998475405968
0.324867065587837,400.06855249598607
0.3376199441111335,389.3174922422189
0.35087344559027084,372.88917216911494
0.36464722232127456,338.3840497850338
0.37896169806447155,299.9201920903695
0.3938380983288488,276.36140492626504
0.4092984818452433,265.3062587405836
0.4253657732750382,249.43786409477883
0.44206379720285277,224.20331392203894
0.45941731346364734,203.2886568064423
0.47745205385661277,191.98797689957618
0.4961947603002895,179.70240621628977
0.5156732244854959,162.4230935600546
0.5359163290848509,148.93779807010918
0.556954090580013,139.77616389562763
0.5788177037701272,128.21119140624916
0.6015395880274836,116.84823564908365
0.6251534353689703,108.64909224619963
0.6496942604146115,100.03204448133867
0.6751984523072497,91.12484055125387
0.7017038286703824,83.38035679244572
0.7292496916841444,76.6096705433334
0.7578768863625915,70.57649339785884
0.7876278611187046,65.09639729619457
0.8185467307069019,60.025803799088386
0.850679341636415,55.25983100114907
0.8840733401525058,50.775222427259116
0.9187782428863317,46.58441798059639
0.9548455102782278,42.69297413894708
0.9923286228832539,39.10023647669406
1.0312831606721837,35.80056947825356
1.0717668854455022,32.78201502546491
1.1138398264826193,30.020253377582634
1.1575643695533022,27.490404990357433
1.2030053494233226,25.17045537572147
1.2502301459914542,23.04088902174949
1.299308784200415,21.08437904581425
1.3503140378698726,19.28631271809869
1.4033215376054824,17.63497674041358
1.4584098829439835,16.119549207971247
1.5156607589006013,14.72984661658645
1.575159057091621,13.456307542876937
1.6369930016117014,12.289963210037069
1.7012542798525885,11.222221240129615
1.7680381784572046,10.24493702912575
1.8374437246107238,9.350617932422793
1.9095738328780953,8.532380423176436
1.9845354578058014,7.783901242179393
2.0624397525140905,7.09937774441876
2.143402233514853,6.47351688941202
2.227542951999554,5.901462732889865
2.314986671851158,5.378742974910513
2.405863054644063,4.901240467840861
2.5003068519063225,4.4651667472001195
2.598458104929248,4.067035314391033
2.7004623524206774,3.7036352309433553
2.806470846309834,3.3720168151058987
2.916640776023701,3.0694727230193504
3.031135501567576,2.793518854471038
3.150124795755327,2.541876678860624
3.2737850959485697,2.312456655917024
3.4022997656780634,2.10334311796846
3.5358593665351745,1.9127807208266152
3.6746619407366854,1.7391615381819832
3.8189133047818515,1.5810131156158693
3.968827354637162,1.4369874641074223
4.1246263829013445,1.3058510611659135
4.286541408420921,1.1864753564514285
4.4548125188449825,1.0778279890055429
4.629689226627261,0.9789648559539337
4.811430839003257,0.8890228112001581
5.000306842491082,0.8072128204794874
5.196597302486189,0.7328133223545235
5.400593278542364,0.6651651827210527
5.612597255954967,0.6036666679585821
5.8329235942862,0.5477685685746113
6.06189899349756,0.49696972590344685
6.29986297838068,0.4508132201655118
6.547168402004727,0.40888285598359997
6.804181968927091,0.37079893244504425
7.071284778942991,0.33621503586564555
7.348872892180382,0.30481521288765145
7.637357916378006,0.2763113356716773
7.937167617217536,0.25043971660740466
8.248746552614573,0.22695925958923316
8.572556731909314,0.2056508241235632
8.909078300934132,0.1863152885783974
9.258810253973934,0.16877171706378552
9.622271173675122,0.15285601453480893
9.999999999999984,0.13842175848854488
