k [1/Mpc],P(k) [Mpc^3]
0.0001,80.8062616937138
0.00010392556829367125,84.46374528046378
0.00010800523745162529,88.28668779414271
0.00011224505680853065,92.28255630440182
0.00011665131316981963,96.45915864590089
0.00012123054013376525,100.82466365184905
0.00012598952777950273,105.38760876246472
0.00013093533273536104,110.15690317449821
0.00013607528864243335,115.1418482957513
0.00014141701702890234,120.35216459354362
0.00014696843861124463,125.79801483432742
0.00015273778503907136,131.49001933248135
0.00015873361110102093,137.43927692963132
0.00016496480740980205,143.65738642405333
0.0001714406135851971,150.15646315018563
0.00017817063195457305,156.94914564379215
0.00018516484179121546,164.0486309857605
0.000192433614111598,171.46871033713302
0.00019998772705352857,179.22379809750785
0.0002078383818579757,187.32895167950193
0.00021599721947827182,195.79989253243104
0.0002244763378413224,204.65303873080225
0.0002332883097864157,213.90553174562513
0.00024244620170823283,223.57525994426408
0.0002519635929317015,233.6809013880567
0.0002618545958474233,244.24195490775372
0.0002721338768375308,255.2787767114284
0.0002828166780230032,266.81261554880274
0.0002939188398646886,278.8656397611078
0.0003054568246515432,291.4609866551484
0.00031744774091091926,304.6227906251798
0.00032990936877709396,318.37622314527823
0.00034286018635565856,332.74754876354183
0.00035631939712285854,347.76416320540415
0.000370306958400514,363.45464622359486
0.00038484361094874304,379.84879116062524
0.0003999509097203664,396.97763999832677
0.00041565125582259895,414.8735595075476
0.00043196792973341727,433.57027216773486
0.0004489251258218605,453.10292193400153
0.0004665479882234472,473.5081197898691
0.000484862648123908,494.82396642253485
0.000503896262506515,517.0901525299142
0.0005236770544204653,540.3480207166415
0.0005442343548300266,564.6406309346336
0.0005655986461065005,590.0127972974452
0.0005878016072274912,616.5110563078239
0.0006108761607505036,644.1838133973152
0.0006348565216305217,673.0814047418916
0.0006597782479539537,703.2561583049949
0.0006856782936641739,734.7624839942827
0.0007125950633568407,767.6568786245617
0.0007405684692262436,801.9980400117342
0.0007696399902471156,837.8468848794187
0.0007998527336796708,875.2665495926806
0.000831251498989063,914.3225616818645
0.0008638828442740447,955.082790902078
0.000897795155303332,997.6175671427549
0.0009330387172620361,1041.9997481139796
0.0009696657893145519,1088.304648229814
0.001007730682094461,1136.6102432733123
0.0010472898382363582,1186.9970286914613
0.0010884019160690055,1239.5480832837047
0.0011311278765939214,1294.3492330756042
0.001175531073878369,1351.4888467536655
0.0012216773489967915,1411.058081035634
0.0012696351276599736,1473.1507298157328
0.0013194755216767058,1537.8631407051787
0.0013712724343984,1605.2944612012798
0.0014251026703029975,1675.546216502399
0.0014810460488806749,1748.7225570030646
0.0015391855229902056,1824.9302177305033
0.001599607301861487,1904.278247146059
0.0016624009789266115,1986.8782807073121
0.0017276596646690358,2072.8439033935506
0.0017954801246878305,2162.290751927734
0.0018659629231817451,2255.3365651335735
0.001939212572065829,2352.100514291877
0.0020153376859417325,2452.7036216277816
0.002094451143151469,2557.2681361963346
0.002176670253153458,2665.9173141855204
0.002262116930469025,2778.7755044658666
0.002350917875457286,2895.966867141303
0.002443204762186487,3017.6158773075585
0.0025391144336803463,3143.846604454468
0.002638789104828933,3274.781923464958
0.002742376573264949,3410.543961074829
0.0028500304385181063,3551.2525369910068
0.0029619103297725525,3697.025320204885
0.0030781821425650787,3847.9769468619556
0.003199018284775064,4004.2171189152778
0.0033245979322709396,4165.851609523504
0.003455107294592217,4332.979919521183
0.0035907398910610534,4505.694956384639
0.0037316968377327513,4684.0825687226825
0.0038781871456107214,4868.2178748343795
0.0040304280305680515,5058.166939834726
0.00418864523543527,5253.984180023074
0.004353073364731888,5455.710893319688
0.00452395623253805,5663.374837989461
0.004701547224022131,5876.980876656973
0.004886109671160325,6096.515144710385
0.005077917243205399,6321.9506592268635
0.005277254352483535,6553.249167224952
0.005484416576121017,6790.350494201871
0.005699711094326071,7033.131431599908
0.005923457145875801,7281.4187429200565
0.006155986501483508,7535.013960776902
0.006397643955748424,7793.702336344273
0.0066487878384172625,8057.239737059142
0.0069097905457156435,8325.3404403464
0.007181039092537346,8597.676551317978
0.007462935686310132,8873.87053519502
0.007755898323389004,9153.454648426121
0.00806036140886134,9435.902068374431
0.008376776400682916,9720.63124576033
0.008705612479099857,10007.003342032285
0.009047357242349292,10294.316799408532
0.00940251742967013,10581.745145417866
0.009771619672696168,10868.374050262342
0.010155211276345676,11153.211837840181
0.010553861030365234,11435.176073313976
0.010968160052731372,11713.112983900432
0.011398722666160517,11985.732618656815
0.011846187309026826,12251.63781753493
0.012311217482038896,12509.339479118393
0.012794502732078732,12757.200937748757
0.013296759674662111,12993.513780915318
0.013818733056536317,13216.438451902255
0.014361196859990781,13424.021118956955
0.014924955450518284,13614.252513148744
0.015510844769528393,13784.976057760974
0.016119733573881575,13934.005813084294
0.01675252472408214,14059.09111890724
0.017410156523040152,14157.907237522448
0.018093604107387147,14228.190395950161
0.01880388089340914,14267.634797610428
0.019542040079740527,14274.03019333622
0.02030917620904734,14245.306389848523
0.021106426791015535,14179.503097946108
0.021934973989050584,14074.948150453418
0.02279604637318978,13930.200991552261
0.023690920741826323,13744.156198536815
0.02462092401494623,13516.214755221048
0.02558743520168586,13246.386710680616
0.02659188744512693,12935.239438362623
0.027635770147361564,12583.736205932613
0.028720631177978267,12193.271716212925
0.029848079169243254,11766.236668181322
0.03101978590138095,11307.427738875538
0.03223748878149028,10822.386795549723
0.0335029934197723,10315.817794986215
0.03481817630688963,9791.294976639363
0.03618498759642746,9252.940261107435
0.037605453996581675,8707.890833100852
0.03908168177536263,8163.9740598837925
0.04061585988376978,7628.9404628123
0.04221026320156896,7110.7813054582775
0.04386725591048496,6616.39019514006
0.0455892949998106,6152.612479789268
0.047378933909631396,5724.805032754889
0.049238826317067365,5337.348623044945
0.05117173007114603,4993.215138233239
0.05318051128214196,4694.238755633569
0.05526814857144601,4441.020966853774
0.057437737488265785,4232.959104114408
0.0596924950997073,4068.1883265185324
0.0620357647610427,3943.720685041835
0.06447102107323864,3854.728474475896
0.06700187503509585,3794.5893810108305
0.06963207939763882,3754.616650689383
0.0723655342286965,3723.981047240498
0.07520629269592405,3690.2175688163807
0.07815856707684081,3640.483996949363
0.08122673500479707,3562.8352573549414
0.08441534596012978,3447.3709152477622
0.0877291280161335,3287.5911380157104
0.09117299484984914,3082.3234835719877
0.09475205302806537,2837.3996510800607
0.09847160957933764,2565.6900308034865
0.1023371798632519,2285.606161924039
0.10635449574860109,2017.8338578337307
0.11052951411260206,1781.3817711756888
0.1148684256737553,1590.4269804067003
0.1193776641714435,1452.866786846309
0.1240639159058831,1370.2616941114413
0.12893412965257148,1338.0734912968026
0.13399552696593373,1345.4169769028897
0.1392556128874462,1374.5084433734455
0.14472218707411338,1401.0792328689615
0.15040335536380234,1398.0709589502785
0.15630754179458153,1344.2885545378601
0.16244350109588662,1234.9654787812447
0.16882033167003618,1086.1586416359492
0.17544748908334581,928.1571727341244
0.1823348000868439,793.1116920955839
0.189492477187382,703.6428729812831
0.19693113379074215,666.5954125961023
0.20466179993919872,672.8538001883588
0.21269593866686892,698.8408281985922
0.22104546299710207,710.4964523160382
0.22972275360711503,678.9058060131055
0.23874067718606454,601.8116019710884
0.2481126055137766,507.29694623122236
0.25785243528842716,432.52868111069796
0.26797460873256895,398.5041345872618
0.27849413500806414,401.4235328326235
0.28942661247167484,414.8268507537632
0.3007882518043098,404.40253744492077
0.31259590004822796,358.8184484475267
0.324867065587837,302.4513689474102
0.3376199441111335,267.5725672531986
0.35087344559027084,262.61561728316656
0.36464722232127456,267.08846136800884
0.37896169806447155,252.54548743848133
0.3938380983288488,218.34374381014942
0.4092984818452433,190.7821130475371
0.4253657732750382,183.9745932807332
0.44206379720285277,182.7422283231235
0.45941731346364734,167.28607556686913
0.47745205385661277,145.48945551738325
0.4961947603002895,135.4858280563006
0.5156732244854959,132.44900028535878
0.5359163290848509,121.32578366958072
0.556954090580013,107.60011801495199
0.5788177037701272,101.8383280653976
0.6015395880274836,96.38895284013665
0.6251534353689703,86.51285139233076
0.6496942604146115,80.03681774628693
0.6751984523072497,75.93162792934244
0.7017038286703824,70.97425857087991
0.7292496916841444,65.56666431030659
0.7578768863625915,60.09793601137026
0.7876278611187046,54.86816510637618
0.8185467307069019,50.090561442999146
0.850679341636415,45.87427627117601
0.8840733401525058,42.148435670782895
0.9187782428863317,38.81484861228552
0.9548455102782278,35.795113553349616
0.9923286228832539,33.026626453045
1.0312831606721837,30.459662473490145
1.0717668854455022,28.063669567159675
1.1138398264826193,25.83220700940656
1.1575643695533022,23.76058321597119
1.2030053494233226,21.842988545109105
1.2502301459914542,20.07276705048784
1.299308784200415,18.442596568039058
1.3503140378698726,16.943109639139
1.4033215376054824,15.563524473388517
1.4584098829439835,14.293922125718012
1.5156607589006013,13.125273073385321
1.575159057091621,12.049349769371727
1.6369930016117014,11.058679243744415
1.7012542798525885,10.14672101815329
1.7680381784572046,9.307577181306451
1.8374437246107238,8.535752089606023
1.9095738328780953,7.826127378463786
1.9845354578058014,7.173940258009219
2.0624397525140905,6.574750342956998
2.143402233514853,6.024384901700794
2.227542951999554,5.518973573739956
2.314986671851158,5.054943427307708
2.405863054644063,4.628996901063591
2.5003068519063225,4.238091335575975
2.598458104929248,3.8794234540684984
2.7004623524206774,3.5504139382597697
2.806470846309834,3.2486827736252706
2.916640776023701,2.972033631437843
3.031135501567576,2.718440408843339
3.150124795755327,2.486034618715937
3.2737850959485697,2.2730921280130274
3.4022997656780634,2.078022861851957
3.5358593665351745,1.8993627240014637
3.6746619407366854,1.7357640701705297
3.8189133047818515,1.5859867745710672
3.968827354637162,1.448890010619308
4.1246263829013445,1.3234250199247557
4.286541408420921,1.2086275801122852
4.4548125188449825,1.10361112116799
4.629689226627261,1.0075606927721195
4.811430839003257,0.9197273819000675
5.000306842491082,0.8394229730088739
5.196597302486189,0.7660147248624182
5.400593278542364,0.6989216841999901
5.612597255954967,0.6376107596216064
5.8329235942862,0.5815928802853028
6.06189899349756,0.5304194559619335
6.29986297838068,0.4836794403257738
6.547168402004727,0.4409964898327691
6.804181968927091,0.4020254463938705
7.071284778942991,0.36644975766828336
7.348872892180382,0.3339791858373398
7.637357916378006,0.3043476407453695
7.937167617217536,0.27731015728356434
8.248746552614573,0.2526415595976456
8.572556731909314,0.23013611785839475
8.909078300934132,0.20960591699902686
9.258810253973934,0.19087930889963936
9.622271173675122,0.1737998740435048
9.999999999999984,0.15822767004495772
