k [1/Mpc],P(k) [Mpc^3]
0.0001,78.73219089690626
0.00010392556829367125,82.05848139884014
0.00010800523745162529,85.5252168242988
0.00011224505680853065,89.13830995668204
0.00011665131316981963,92.90392625024445
0.00012123054013376525,96.8284990920275
0.00012598952777950273,100.9187326755004
0.00013093533273536104,105.18160053040059
0.00013607528864243335,109.624360516742
0.00014141701702890234,114.25457559241441
0.00014696843861124463,119.08013076634069
0.00015273778503907136,124.10924217430524
0.00015873361110102093,129.3504713470252
0.00016496480740980205,134.8127396084408
0.0001714406135851971,140.5053376394824
0.00017817063195457305,146.4379255767988
0.00018516484179121546,152.6205597400036
0.000192433614111598,159.06371902310616
0.00019998772705352857,165.77832487676488
0.0002078383818579757,172.77575223209814
0.00021599721947827182,180.06784132383927
0.0002244763378413224,187.6669198517834
0.0002332883097864157,195.58581937603415
0.00024244620170823283,203.8378883791407
0.0002519635929317015,212.4370225765669
0.0002618545958474233,221.39768400597686
0.0002721338768375308,230.7349247117806
0.0002828166780230032,240.46440864120072
0.0002939188398646886,250.60242578852942
0.0003054568246515432,261.16592601450895
0.00031744774091091926,272.1725332062847
0.00032990936877709396,283.64056967721274
0.00034286018635565856,295.58909426674023
0.00035631939712285854,308.0379238378982
0.000370306958400514,321.00766732613374
0.00038484361094874304,334.5197385863627
0.0003999509097203664,348.5963737272483
0.00041565125582259895,363.2606840217814
0.00043196792973341727,378.53666830000367
0.0004489251258218605,394.4492553434198
0.0004665479882234472,411.0243278766442
0.000484862648123908,428.28872621449045
0.000503896262506515,446.27031871381587
0.0005236770544204653,464.99803781912397
0.0005442343548300266,484.5019183841802
0.0005655986461065005,504.8131106912546
0.0005878016072274912,525.963834579524
0.0006108761607505036,547.9874858974315
0.0006348565216305217,570.9186690997475
0.0006597782479539537,594.793228464198
0.0006856782936641739,619.6483031528115
0.0007125950633568407,645.5223095089739
0.0007405684692262436,672.4550149846898
0.0007696399902471156,700.4875301925565
0.0007998527336796708,729.6622865911464
0.000831251498989063,760.0231563366575
0.0008638828442740447,791.6153871445457
0.000897795155303332,824.4856759709857
0.0009330387172620361,858.6821998381106
0.0009696657893145519,894.2545318684333
0.001007730682094461,931.2537845187046
0.0010472898382363582,969.7324671654259
0.0010884019160690055,1009.7445132522836
0.0011311278765939214,1051.345388143815
0.001175531073878369,1094.5918965042802
0.0012216773489967915,1139.542356149671
0.0012696351276599736,1186.2564496356913
0.0013194755216767058,1234.7951323095351
0.0013712724343984,1285.2208056577824
0.0014251026703029975,1337.5969539153368
0.0014810460488806749,1391.988319817685
0.0015391855229902056,1448.4608485110646
0.001599607301861487,1507.0814497147271
0.0016624009789266115,1567.9181937057358
0.0017276596646690358,1631.0397868996129
0.0017954801246878305,1696.5156366853078
0.0018659629231817451,1764.4158744486676
0.001939212572065829,1834.8108164214536
0.0020153376859417325,1907.7712801068903
0.002094451143151469,1983.3680865493448
0.002176670253153458,2061.671883870874
0.002262116930469025,2142.7532092038628
0.002350917875457286,2226.681498464563
0.002443204762186487,2313.525481907746
0.0025391144336803463,2403.352636963803
0.002638789104828933,2496.228598453704
0.002742376573264949,2592.217518152909
0.0028500304385181063,2691.3808985440905
0.0029619103297725525,2793.7777430418473
0.0030781821425650787,2899.4639214437184
0.003199018284775064,3008.4907808708545
0.0033245979322709396,3120.905958729896
0.003455107294592217,3236.7516804815896
0.0035907398910610534,3356.0645937510435
0.0037316968377327513,3478.8754986549156
0.0038781871456107214,3605.2067092811503
0.0040304280305680515,3735.073411041452
0.00418864523543527,3868.481849569196
0.004353073364731888,4005.42837855533
0.00452395623253805,4145.899292566182
0.004701547224022131,4289.864142148179
0.004886109671160325,4437.279009420438
0.005077917243205399,4588.0907745275745
0.005277254352483535,4742.238588564982
0.005484416576121017,4899.646302888189
0.005699711094326071,5060.193114284509
0.005923457145875801,5223.723544948529
0.006155986501483508,5390.065689868552
0.006397643955748424,5559.037849200904
0.0066487878384172625,5730.43936445429
0.0069097905457156435,5904.042249955656
0.007181039092537346,6079.591191106168
0.007462935686310132,6256.798691490459
0.007755898323389004,6435.317035664724
0.00806036140886134,6614.761003351264
0.008376776400682916,6794.711481008734
0.008705612479099857,6974.714196067917
0.009047357242349292,7154.276484761235
0.00940251742967013,7332.824783710359
0.009771619672696168,7509.731442829661
0.010155211276345676,7684.322794779319
0.010553861030365234,7855.870656607364
0.010968160052731372,8023.60647557799
0.011398722666160517,8186.677684137095
0.011846187309026826,8344.168705680077
0.012311217482038896,8495.11230313989
0.012794502732078732,8638.452736392084
0.013296759674662111,8773.098311233522
0.013818733056536317,8897.881998205732
0.014361196859990781,9011.573935672914
0.014924955450518284,9112.921818924984
0.015510844769528393,9200.590010604099
0.016119733573881575,9273.23934258684
0.01675252472408214,9329.503817909706
0.017410156523040152,9367.98492088108
0.018093604107387147,9387.341299997322
0.01880388089340914,9386.220311196666
0.019542040079740527,9363.348539048404
0.02030917620904734,9317.55988352235
0.021106426791015535,9247.774458657828
0.021934973989050584,9153.113349014991
0.02279604637318978,9032.859163677034
0.023690920741826323,8886.520719943917
0.02462092401494623,8713.94026783166
0.02558743520168586,8515.354723013483
0.02659188744512693,8291.356830378021
0.027635770147361564,8042.786843466132
0.028720631177978267,7770.75156296104
0.029848079169243254,7476.9791860182295
0.03101978590138095,7164.703664735447
0.03223748878149028,6837.593570255749
0.0335029934197723,6498.74824247387
0.03481817630688963,6150.52239487728
0.03618498759642746,5795.587236845875
0.037605453996581675,5438.466833182539
0.03908168177536263,5084.063239187044
0.04061585988376978,4737.174391441338
0.04221026320156896,4402.691839038639
0.04386725591048496,4084.772704856949
0.0455892949998106,3787.4958661848063
0.047378933909631396,3513.978706774339
0.049238826317067365,3266.7042313395978
0.05117173007114603,3047.2658324841923
0.05318051128214196,2856.544918935344
0.05526814857144601,2694.6634146201623
0.057437737488265785,2561.011888285915
0.0596924950997073,2454.2250834914125
0.0620357647610427,2372.276512392674
0.06447102107323864,2312.058252458501
0.06700187503509585,2269.4237025504235
0.06963207939763882,2239.0418992559344
0.0723655342286965,2214.3685274561667
0.07520629269592405,2187.964291159232
0.07815856707684081,2152.252412571544
0.08122673500479707,2100.272460567301
0.08441534596012978,2026.3465861458217
0.0877291280161335,1926.8563400046387
0.09117299484984914,1801.3394888792882
0.09475205302806537,1653.4218974460289
0.09847160957933764,1490.7787038261051
0.1023371798632519,1324.2080114292405
0.10635449574860109,1165.6979618053006
0.11052951411260206,1026.1325296241498
0.1148684256737553,913.4946445351286
0.1193776641714435,832.0777061522796
0.1240639159058831,782.5055507404662
0.12893412965257148,761.9205656198587
0.13399552696593373,763.8928622550739
0.1392556128874462,778.15977980169
0.14472218707411338,790.9151295059941
0.15040335536380234,786.9410878414337
0.15630754179458153,754.4862460476008
0.16244350109588662,691.1295521165068
0.16882033167003618,606.0992224134568
0.17544748908334581,516.4375469639139
0.1823348000868439,440.02409266854175
0.189492477187382,389.2603926090047
0.19693113379074215,367.70206017681886
0.20466179993919872,370.08396770016105
0.21269593866686892,383.26896251090625
0.22104546299710207,388.5376548293143
0.22972275360711503,370.1915854858298
0.23874067718606454,327.2076099041677
0.2481126055137766,275.02419803912824
0.25785243528842716,233.81339573148128
0.26797460873256895,214.79943240516565
0.27849413500806414,215.74907673317702
0.28942661247167484,222.30989626632996
0.3007882518043098,216.09843807291745
0.31259590004822796,191.1869915264377
0.324867065587837,160.68855645389903
0.3376199441111335,141.74795423426474
0.35087344559027084,138.7207993849638
0.36464722232127456,140.67663751900542
0.37896169806447155,132.63321139283389
0.3938380983288488,114.34027814744326
0.4092984818452433,99.61895134064429
0.4253657732750382,95.78731108139279
0.44206379720285277,94.87130318451489
0.45941731346364734,86.59674385518576
0.47745205385661277,75.09639812649357
0.4961947603002895,69.73122233171567
0.5156732244854959,67.97166559968659
0.5359163290848509,62.083780119932165
0.556954090580013,54.90142462109721
0.5788177037701272,51.81171242663059
0.6015395880274836,48.8978503738928
0.6251534353689703,43.76117261588133
0.6496942604146115,40.368624963754286
0.6751984523072497,38.1876272098051
0.7017038286703824,35.5915291263332
0.7292496916841444,32.78496253355839
0.7578768863625915,29.963806129623702
0.7876278611187046,27.27744430591106
0.8185467307069019,24.83047112717398
0.850679341636415,22.674833431099298
0.8840733401525058,20.7731405540082
0.9187782428863317,19.074994224619946
0.9548455102782278,17.540262250409768
0.9923286228832539,16.136984122036235
1.0312831606721837,14.839834695227108
1.0717668854455022,13.633088508577945
1.1138398264826193,12.512875624113539
1.1575643695533022,11.476211179138467
1.2030053494233226,10.519602080431456
1.2502301459914542,9.639185059043179
1.299308784200415,8.830818508982912
1.3503140378698726,8.089428367427052
1.4033215376054824,7.409322268024592
1.4584098829439835,6.785279829650493
1.5156607589006013,6.212558888318385
1.575159057091621,5.68684775013032
1.6369930016117014,5.204237059798557
1.7012542798525885,4.761297831480316
1.7680381784572046,4.354939183291947
1.8374437246107238,3.98229162747912
1.9095738328780953,3.6406925012692417
1.9845354578058014,3.327673147111778
2.0624397525140905,3.0409409871097384
2.143402233514853,2.7783519319305543
2.227542951999554,2.537924388699281
2.314986671851158,2.317834823932052
2.405863054644063,2.1164055584626937
2.5003068519063225,1.9320934795191147
2.598458104929248,1.763481180565539
2.7004623524206774,1.6092682815453463
2.806470846309834,1.4682587125367417
2.916640776023701,1.3393522759339331
3.031135501567576,1.2215373119351136
3.150124795755327,1.1138838602827907
3.2737850959485697,1.015536638723873
3.4022997656780634,0.9257094543976032
3.5358593665351745,0.8436806875506458
3.6746619407366854,0.7687882041942428
3.8189133047818515,0.7004246111058314
3.968827354637162,0.6380329003247046
4.1246263829013445,0.5811025964358549
4.286541408420921,0.5291658326552809
4.4548125188449825,0.48179377238395993
4.629689226627261,0.43859345803716016
4.811430839003257,0.39920490518363433
5.000306842491082,0.363298347677515
5.196597302486189,0.33057157686133964
5.400593278542364,0.3007479845137453
5.612597255954967,0.2735745334933637
5.8329235942862,0.24881979672769738
6.06189899349756,0.22627215587736185
6.29986297838068,0.2057382851830348
6.547168402004727,0.18704169972453843
6.804181968927091,0.17002104064085552
7.071284778942991,0.1545287833957782
7.348872892180382,0.14043008788822095
7.637357916378006,0.12760171895046377
7.937167617217536,0.11593062625828007
8.248746552614573,0.10531325057717533
8.572556731909314,0.09565525335452561
8.909078300934132,0.08687071603686007
9.258810253973934,0.07888138662374246
9.622271173675122,0.07161614818525842
9.999999999999984,0.06501143527241057
