k [1/Mpc],P(k) [Mpc^3]
0.0001,385.3677232300261
0.00010392556829367125,400.48527222853016
0.00010800523745162529,416.1950119217123
0.00011224505680853065,432.52003847704793
0.00011665131316981963,449.48433172900155
0.00012123054013376525,467.11279745920314
0.00012598952777950273,485.43130176157166
0.00013093533273536104,504.46670825455567
0.00013607528864243335,524.24689417891
0.00014141701702890234,544.800770603485
0.00014696843861124463,566.1583522108332
0.00015273778503907136,588.3508063693265
0.00015873361110102093,611.4104947667751
0.00016496480740980205,635.3710073310602
0.0001714406135851971,660.2671920370262
0.00017817063195457305,686.1352160778396
0.00018516484179121546,713.0125739253365
0.000192433614111598,740.9381339176467
0.00019998772705352857,769.9522175653822
0.0002078383818579757,800.0966231233272
0.00021599721947827182,831.4147001776262
0.0002244763378413224,863.9513928795685
0.0002332883097864157,897.7532825716089
0.00024244620170823283,932.868663729242
0.0002519635929317015,969.3475325265039
0.0002618545958474233,1007.24167675463
0.0002721338768375308,1046.6047201437364
0.0002828166780230032,1087.4920972714017
0.0002939188398646886,1129.961213006685
0.0003054568246515432,1174.0715155139922
0.00031744774091091926,1219.884563720437
0.00032990936877709396,1267.4640419154352
0.00034286018635565856,1316.8756189646324
0.00035631939712285854,1368.1871714580702
0.000370306958400514,1421.4688605306512
0.00038484361094874304,1476.7931751605552
0.0003999509097203664,1534.2350214483201
0.00041565125582259895,1593.871547083111
0.00043196792973341727,1655.7823238299998
0.0004489251258218605,1720.0494606534792
0.0004665479882234472,1786.7575840276081
0.000484862648123908,1855.9939858260384
0.000503896262506515,1927.8484000580142
0.0005236770544204653,2002.4131019031934
0.0005442343548300266,2079.7831006239003
0.0005655986461065005,2160.0559977149746
0.0005878016072274912,2243.3321974426035
0.0006108761607505036,2329.7146997810496
0.0006348565216305217,2419.3090358889085
0.0006597782479539537,2512.2235279404167
0.0006856782936641739,2608.56881889803
0.0007125950633568407,2708.458175003949
0.0007405684692262436,2812.007452327786
0.0007696399902471156,2919.334816821137
0.0007998527336796708,3030.5610590542356
0.000831251498989063,3145.808760447234
0.0008638828442740447,3265.2024567309686
0.000897795155303332,3388.8687911607713
0.0009330387172620361,3516.935625272948
0.0009696657893145519,3649.5326927372894
0.001007730682094461,3786.790884505018
0.0010472898382363582,3928.8419591044353
0.0010884019160690055,4075.818862721304
0.0011311278765939214,4227.854067799033
0.001175531073878369,4385.080323398512
0.0012216773489967915,4547.630352125853
0.0012696351276599736,4715.636029801275
0.0013194755216767058,4889.228835577672
0.0013712724343984,5068.537679671704
0.0014251026703029975,5253.689183242635
0.0014810460488806749,5444.807692585787
0.0015391855229902056,5642.013373682503
0.001599607301861487,5845.423209438826
0.0016624009789266115,6055.148996909412
0.0017276596646690358,6271.2966674515
0.0017954801246878305,6493.966777656948
0.0018659629231817451,6723.251649481328
0.001939212572065829,6959.236315960718
0.0020153376859417325,7201.996586624883
0.002094451143151469,7451.596915285399
0.002176670253153458,7708.091914715902
0.002262116930469025,7971.523160849659
0.002350917875457286,8241.919404136994
0.002443204762186487,8519.294963966722
0.0025391144336803463,8803.645243673422
0.002638789104828933,9094.949496712243
0.002742376573264949,9393.166513575577
0.0028500304385181063,9698.233711683175
0.0029619103297725525,10010.067391520524
0.0030781821425650787,10328.55508533681
0.003199018284775064,10653.559456993247
0.0033245979322709396,10984.913593581077
0.003455107294592217,11322.417006589412
0.0035907398910610534,11665.839655600903
0.0037316968377327513,12014.911443786747
0.0038781871456107214,12369.32585827524
0.0040304280305680515,12728.73104281386
0.00418864523543527,13092.711348380251
0.004353073364731888,13460.809554707086
0.00452395623253805,13832.549286772233
0.004701547224022131,14207.431781612808
0.004886109671160325,14584.882660745548
0.005077917243205399,14964.136027857776
0.005277254352483535,15344.334106092945
0.005484416576121017,15724.592126032425
0.005699711094326071,16104.009811869595
0.005923457145875801,16481.634529700925
0.006155986501483508,16856.439947726743
0.006397643955748424,17227.339390214118
0.0066487878384172625,17593.13482716526
0.0069097905457156435,17952.451594495633
0.007181039092537346,18303.836212728213
0.007462935686310132,18645.69038700043
0.007755898323389004,18976.300327735753
0.00806036140886134,19293.867201448247
0.008376776400682916,19596.433653442367
0.008705612479099857,19881.975496974057
0.009047357242349292,20148.32075500645
0.00940251742967013,20393.147838921588
0.009771619672696168,20614.081599989368
0.010155211276345676,20808.514451833453
0.010553861030365234,20973.779161150018
0.010968160052731372,21107.111540650192
0.011398722666160517,21205.562673323213
0.011846187309026826,21266.244500030316
0.012311217482038896,21286.08108598063
0.012794502732078732,21262.000548402335
0.013296759674662111,21191.02906171623
0.013818733056536317,21070.02935366569
0.014361196859990781,20896.17165915478
0.014924955450518284,20666.657621849157
0.015510844769528393,20378.84608827702
0.016119733573881575,20030.640537430376
0.01675252472408214,19619.986660390146
0.017410156523040152,19145.567127643742
0.018093604107387147,18606.628972135906
0.01880388089340914,18002.857676083582
0.019542040079740527,17335.212374643786
0.02030917620904734,16605.193960833127
0.021106426791015535,15815.566986502432
0.021934973989050584,14970.435771947383
0.02279604637318978,14074.546160322034
0.023690920741826323,13134.621609229775
0.02462092401494623,12158.5921309739
0.02558743520168586,11155.830399145276
0.02659188744512693,10137.211525084165
0.027635770147361564,9113.18445378849
0.028720631177978267,8095.886755325372
0.029848079169243254,7099.616016439417
0.03101978590138095,6139.758701363817
0.03223748878149028,5230.352840915971
0.0335029934197723,4379.828147894512
0.03481817630688963,3595.92796081505
0.03618498759642746,2888.7611667330134
0.037605453996581675,2268.1721160642155
0.03908168177536263,1738.8290679308063
0.04061585988376978,1300.170767737679
0.04221026320156896,947.7426039903672
0.04386725591048496,674.7855389120266
0.0455892949998106,471.40101995762984
0.047378933909631396,326.80462235061736
0.049238826317067365,229.22393468083618
0.05117173007114603,168.03292613021426
0.05318051128214196,134.20337020171635
0.05526814857144601,121.69888775698614
0.057437737488265785,127.00892832980217
0.0596924950997073,149.8347362218294
0.0620357647610427,191.41211154397155
0.06447102107323864,252.85146045368825
0.06700187503509585,333.15500501067856
0.06963207939763882,427.5070333892858
0.0723655342286965,526.0462392900688
0.07520629269592405,614.4715175606337
0.07815856707684081,675.8379301422297
0.08122673500479707,694.5643107843699
0.08441534596012978,661.6080765903868
0.0877291280161335,578.8382673012896
0.09117299484984914,460.120027980535
0.09475205302806537,327.779221290684
0.09847160957933764,205.63020531534076
0.1023371798632519,111.38253022780745
0.10635449574860109,51.6711614849598
0.11052951411260206,21.776936078310563
0.1148684256737553,11.15679952928047
0.1193776641714435,11.363062752777257
0.1240639159058831,22.05111108333212
0.12893412965257148,48.78962373016675
0.13399552696593373,93.32096207992097
0.1392556128874462,144.59737465796528
0.14472218707411338,180.08541815957722
0.15040335536380234,179.0116153923048
0.15630754179458153,139.28920376432941
0.16244350109588662,82.1675196911781
0.16882033167003618,35.42436348644907
0.17544748908334581,11.649526050415506
0.1823348000868439,5.114886497520848
0.189492477187382,7.968183054359311
0.19693113379074215,22.173702698817365
0.20466179993919872,47.88326389247078
0.21269593866686892,68.2791791054576
0.22104546299710207,63.2817193092178
0.22972275360711503,37.215269602635225
0.23874067718606454,13.87610058236656
0.2481126055137766,4.8941461824564705
0.25785243528842716,5.722807124122131
0.26797460873256895,15.156739182598841
0.27849413500806414,28.470645172581648
0.28942661247167484,29.22401715063156
0.3007882518043098,16.027533854290336
0.31259590004822796,5.777238295681417
0.324867065587837,4.187282774732094
0.3376199441111335,9.1046412541681
0.35087344559027084,15.41787736190727
0.36464722232127456,12.533291323844594
0.37896169806447155,5.503852991813749
0.3938380983288488,3.52547276483701
0.4092984818452433,6.325730873012738
0.4253657732750382,8.750922671552452
0.44206379720285277,5.602154736813381
0.45941731346364734,3.0113486871097397
0.47745205385661277,3.992436471392025
0.4961947603002895,5.32104213325402
0.5156732244854959,3.51356900444422
0.5359163290848509,2.5781740803103563
0.556954090580013,2.949125525133491
0.5788177037701272,2.8010731257061603
0.6015395880274836,2.529187649906211
0.6251534353689703,2.3016650315439344
0.6496942604146115,2.1049005619100556
0.6751984523072497,1.927669824087088
0.7017038286703824,1.7616860591946357
0.7292496916841444,1.6010517846247336
0.7578768863625915,1.4444210474604664
0.7876278611187046,1.2964136352531226
0.8185467307069019,1.1607707529682947
0.850679341636415,1.0396667159301909
0.8840733401525058,0.9340677398319056
0.9187782428863317,0.8439338316015605
0.9548455102782278,0.7668553878030809
0.9923286228832539,0.6996227893251384
1.0312831606721837,0.6397560603428671
1.0717668854455022,0.5853551507845605
1.1138398264826193,0.5349752992558419
1.1575643695533022,0.4877725158570953
1.2030053494233226,0.44378729115625165
1.2502301459914542,0.40312254246437634
1.299308784200415,0.3657924556919069
1.3503140378698726,0.3317405714160855
1.4033215376054824,0.3008519510030819
1.4584098829439835,0.27289124782322166
1.5156607589006013,0.2475587820014021
1.575159057091621,0.22458657464528672
1.6369930016117014,0.20373739010194342
1.7012542798525885,0.18480084277608824
1.7680381784572046,0.16759260169196788
1.8374437246107238,0.15195799061854348
1.9095738328780953,0.137758337272758
1.9845354578058014,0.12486644310361608
2.0624397525140905,0.11316573149439989
2.143402233514853,0.10254942017306141
2.227542951999554,0.09291897565319819
2.314986671851158,0.08418362733761722
2.405863054644063,0.07626085479077878
2.5003068519063225,0.06907570258915671
2.598458104929248,0.06256008880831394
2.7004623524206774,0.05665220858292537
2.806470846309834,0.05129609108044843
2.916640776023701,0.04644090408267538
3.031135501567576,0.042040421173282425
3.150124795755327,0.038052612663041024
3.2737850959485697,0.034439271573139585
3.4022997656780634,0.03116564271254284
3.5358593665351745,0.028200108520986727
3.6746619407366854,0.025513960428608522
3.8189133047818515,0.023081138444509142
3.968827354637162,0.020877989221729377
4.1246263829013445,0.018883051028424372
4.286541408420921,0.01707688462199761
4.4548125188449825,0.015441856300634186
4.629689226627261,0.01396195272282886
4.811430839003257,0.012622634944736593
5.000306842491082,0.011410705344862482
5.196597302486189,0.010314176074831762
5.400593278542364,0.009322152449597972
5.612597255954967,0.008424756830876411
5.8329235942862,0.007613037440701753
6.06189899349756,0.006878882300618453
6.29986297838068,0.006214941597931862
6.547168402004727,0.005614561475753876
6.804181968927091,0.005071715458875131
7.071284778942991,0.004580942133638128
7.348872892180382,0.004137292790895421
7.637357916378006,0.0037362839084221925
7.937167617217536,0.0033738500236692144
8.248746552614573,0.0030462994744617604
8.572556731909314,0.0027502912665746584
8.909078300934132,0.0024828038425297265
9.258810253973934,0.00224110449152475
9.622271173675122,0.002022722993188346
9.999999999999984,0.001825446263494928
