k [1/Mpc],P(k) [Mpc^3]
0.0001,2905.5838485770364
0.00010392556829367125,3019.387918422503
0.00010800523745162529,3137.628449174092
0.00011224505680853065,3260.4758300220983
0.00011665131316981963,3388.106594216161
0.00012123054013376525,3520.7037739049306
0.00012598952777950273,3658.457102935551
0.00013093533273536104,3801.563209454978
0.00013607528864243335,3950.2258988100284
0.00014141701702890234,4104.6560458746435
0.00014696843861124463,4265.072017694718
0.00015273778503907136,4431.6997883110125
0.00015873361110102093,4604.772832395682
0.00016496480740980205,4784.532828908227
0.0001714406135851971,4971.229769786492
0.00017817063195457305,5165.122274583856
0.00018516484179121546,5366.477615590664
0.000192433614111598,5575.571095752298
0.00019998772705352857,5792.6871089481665
0.0002078383818579757,6018.119209872347
0.00021599721947827182,6252.170319543949
0.0002244763378413224,6495.153047447919
0.0002332883097864157,6747.388769519163
0.00024244620170823283,7009.208652196283
0.0002519635929317015,7280.95342253603
0.0002618545958474233,7562.973047824035
0.0002721338768375308,7855.627808059722
0.0002828166780230032,8159.287442937722
0.0002939188398646886,8474.331822525859
0.0003054568246515432,8801.150462441006
0.00031744774091091926,9140.14102198342
0.00032990936877709396,9491.711301159665
0.00034286018635565856,9856.278806992292
0.00035631939712285854,10234.270947563946
0.000370306958400514,10626.124408289257
0.00038484361094874304,11032.281990217183
0.0003999509097203664,11453.195254527076
0.00041565125582259895,11889.324200728926
0.00043196792973341727,12341.136911649082
0.0004489251258218605,12809.109519880225
0.0004665479882234472,13293.722361518374
0.000484862648123908,13795.46194217507
0.000503896262506515,14314.819794107334
0.0005236770544204653,14852.290499845712
0.0005442343548300266,15408.373178434644
0.0005655986461065005,15983.566067652855
0.0005878016072274912,16578.367795401904
0.0006108761607505036,17193.276606273477
0.0006348565216305217,17828.785521166217
0.0006597782479539537,18485.385276153553
0.0006856782936641739,19163.556052426848
0.0007125950633568407,19863.76696391719
0.0007405684692262436,20586.477540676697
0.0007696399902471156,21332.128429463475
0.0007998527336796708,22101.145965201053
0.000831251498989063,22893.93374377613
0.0008638828442740447,23710.86802286484
0.000897795155303332,24552.302950060515
0.0009330387172620361,25418.562944859794
0.0009696657893145519,26309.94361864373
0.001007730682094461,27226.702519614577
0.0010472898382363582,28169.048693136963
0.0010884019160690055,29137.150492700843
0.0011311278765939214,30131.12191242521
0.001175531073878369,31151.02348472218
0.0012216773489967915,32196.861418565997
0.0012696351276599736,33268.57732627946
0.0013194755216767058,34366.05153772088
0.0013712724343984,35489.09130144169
0.0014251026703029975,36637.42752611224
0.0014810460488806749,37810.71514004688
0.0015391855229902056,39008.51917143328
0.001599607301861487,40230.319057468085
0.0016624009789266115,41475.49742039571
0.0017276596646690358,42743.33252853913
0.0017954801246878305,44033.00342265311
0.0018659629231817451,45343.573672965525
0.001939212572065829,46673.995694302044
0.0020153376859417325,48023.10166294127
0.002094451143151469,49389.589404155
0.002176670253153458,50772.03611984235
0.002262116930469025,52168.891235313815
0.002350917875457286,53578.476819106385
0.002443204762186487,54998.97249615392
0.0025391144336803463,56428.380094339875
0.002638789104828933,57864.559756178984
0.002742376573264949,59305.23485404533
0.0028500304385181063,60747.992987403864
0.0029619103297725525,62190.23410957083
0.0030781821425650787,63628.9752633569
0.003199018284775064,65061.02135791879
0.0033245979322709396,66483.40105597542
0.003455107294592217,67893.52933071848
0.0035907398910610534,69288.55893908915
0.0037316968377327513,70663.9635857829
0.0038781871456107214,72014.34386705277
0.0040304280305680515,73334.60795774465
0.00418864523543527,74620.56296071362
0.004353073364731888,75868.05584049717
0.00452395623253805,77072.79656287612
0.004701547224022131,78230.40014389483
0.004886109671160325,79336.18946100926
0.005077917243205399,80384.66006963426
0.005277254352483535,81370.11119583299
0.005484416576121017,82286.60949843145
0.005699711094326071,83128.02668364764
0.005923457145875801,83888.18778026127
0.006155986501483508,84560.57735577154
0.006397643955748424,85138.68014242857
0.0066487878384172625,85615.93012933245
0.0069097905457156435,85985.66916634407
0.007181039092537346,86241.4055171077
0.007462935686310132,86376.15126581266
0.007755898323389004,86382.97317533725
0.00806036140886134,86255.08251569734
0.008376776400682916,85985.49422463815
0.008705612479099857,85567.81475481414
0.009047357242349292,84995.65983329888
0.00940251742967013,84263.08230681559
0.009771619672696168,83364.93386186585
0.010155211276345676,82296.18888909512
0.010553861030365234,81053.08000548801
0.010968160052731372,79632.58625369854
0.011398722666160517,78032.64073278688
0.011846187309026826,76253.01786334306
0.012311217482038896,74294.55327230287
0.012794502732078732,72160.20267354637
0.013296759674662111,69854.98603603123
0.013818733056536317,67385.8411198399
0.014361196859990781,64762.47790297112
0.014924955450518284,61997.15382560864
0.015510844769528393,59104.76206073763
0.016119733573881575,56103.18234802896
0.01675252472408214,53013.37513972746
0.017410156523040152,49858.28971400941
0.018093604107387147,46664.30390694952
0.01880388089340914,43459.46719852204
0.019542040079740527,40272.71659215766
0.02030917620904734,37136.581390457904
0.021106426791015535,34080.950732939455
0.021934973989050584,31136.654879097965
0.02279604637318978,28333.44354749179
0.023690920741826323,25695.395265704774
0.02462092401494623,23250.22683729755
0.02558743520168586,21017.581559085836
0.02659188744512693,19010.904541308893
0.027635770147361564,17240.633149135087
0.028720631177978267,15708.61576834104
0.029848079169243254,14416.179731722219
0.03101978590138095,13362.32293391206
0.03223748878149028,12536.604725803636
0.0335029934197723,11918.684067771548
0.03481817630688963,11491.781511705372
0.03618498759642746,11239.00203309885
0.037605453996581675,11145.188839657207
0.03908168177536263,11181.364484674636
0.04061585988376978,11312.56658428814
0.04221026320156896,11487.977138996455
0.04386725591048496,11648.684645249781
0.0455892949998106,11729.453664543676
0.047378933909631396,11668.963452636015
0.049238826317067365,11416.942164624175
0.05117173007114603,10941.864019813034
0.05318051128214196,10238.57258764689
0.05526814857144601,9330.349248667395
0.057437737488265785,8265.466217233065
0.0596924950997073,7125.2084719234
0.0620357647610427,6008.606773597412
0.06447102107323864,5005.002190893279
0.06700187503509585,4184.902545756754
0.06963207939763882,3583.4859383276253
0.0723655342286965,3205.3777046027744
0.07520629269592405,3033.8343820149466
0.07815856707684081,3036.5331936094494
0.08122673500479707,3167.0684356598945
0.08441534596012978,3358.099484034949
0.0877291280161335,3519.685347266396
0.09117299484984914,3554.1041849713206
0.09475205302806537,3389.9661554583663
0.09847160957933764,3025.890785196409
0.1023371798632519,2543.1014650092134
0.10635449574860109,2057.628051681777
0.11052951411260206,1665.5104128503044
0.1148684256737553,1424.0632530039559
0.1193776641714435,1341.2491726272713
0.1240639159058831,1377.977352006087
0.12893412965257148,1466.2773735421288
0.13399552696593373,1515.5482027045493
0.1392556128874462,1448.8565677422876
0.14472218707411338,1263.1456752760416
0.15040335536380234,1032.1178869020828
0.15630754179458153,849.0298158353665
0.16244350109588662,760.4641011595709
0.16882033167003618,754.95127632988
0.17544748908334581,779.8477942385501
0.1823348000868439,764.7913519761248
0.189492477187382,682.8434433356666
0.19693113379074215,572.8957985220673
0.20466179993919872,494.4558177315937
0.21269593866686892,467.0362139501196
0.22104546299710207,463.71159144284485
0.22972275360711503,441.33994263745785
0.23874067718606454,389.5311331290776
0.2481126055137766,338.68614045215367
0.25785243528842716,312.39614432539906
0.26797460873256895,300.1497264466285
0.27849413500806414,278.58362087123567
0.28942661247167484,247.3185153707001
0.3007882518043098,223.49696004443035
0.31259590004822796,209.63642340113623
0.324867065587837,193.83011665570422
0.3376199441111335,174.4523241358249
0.35087344559027084,159.35694702221724
0.36464722232127456,147.67132526341612
0.37896169806447155,134.61465466042134
0.3938380983288488,122.44434737082844
0.4092984818452433,112.61034424690415
0.4253657732750382,102.88419333061739
0.44206379720285277,93.73906937636183
0.45941731346364734,85.55467971553979
0.47745205385661277,78.17601446314141
0.4961947603002895,71.47684549103715
0.5156732244854959,65.35439480699834
0.5359163290848509,59.72560093378113
0.556954090580013,54.53908235260719
0.5788177037701272,49.769804787296316
0.6015395880274836,45.39364212046456
0.6251534353689703,41.38617324088099
0.6496942604146115,37.72305283442988
0.6751984523072497,34.380040033330694
0.7017038286703824,31.330585640469558
0.7292496916841444,28.54828620498555
0.7578768863625915,26.009216945439
0.7876278611187046,23.691716659829567
0.8185467307069019,21.576157937450223
0.850679341636415,19.6448518934751
0.8840733401525058,17.88223268604706
0.9187782428863317,16.27415232698593
0.9548455102782278,14.807576394525265
0.9923286228832539,13.470504931911792
1.0312831606721837,12.251897933866447
1.0717668854455022,11.141569953981568
1.1138398264826193,10.130094663036129
1.1575643695533022,9.208836751623885
1.2030053494233226,8.369900004962915
1.2502301459914542,7.606065425498478
1.299308784200415,6.910734669095412
1.3503140378698726,6.277885237366986
1.4033215376054824,5.702020526220577
1.4584098829439835,5.178115447277918
1.5156607589006013,4.701576725850219
1.575159057091621,4.26820697315151
1.6369930016117014,3.8741715011342155
1.7012542798525885,3.5159668398191832
1.7680381784572046,3.1903937857798264
1.8374437246107238,2.894532539133497
1.9095738328780953,2.6257189577163587
1.9845354578058014,2.381522752597465
2.0624397525140905,2.159727221866676
2.143402233514853,1.9583101316773548
2.227542951999554,1.775428123902955
2.314986671851158,1.6094016031863774
2.405863054644063,1.4587004899946208
2.5003068519063225,1.3219311838827232
2.598458104929248,1.1978248017299746
2.7004623524206774,1.0852263770418324
2.806470846309834,0.9830844726610788
2.916640776023701,0.8904420442028643
3.031135501567576,0.8064281413297985
3.150124795755327,0.730250312565727
3.2737850959485697,0.6611874741577644
3.4022997656780634,0.5985836475257096
3.5358593665351745,0.5418424318460866
3.6746619407366854,0.4904216966312255
3.8189133047818515,0.443828725391454
3.968827354637162,0.4016157930346237
4.1246263829013445,0.3633761820593249
4.286541408420921,0.3287404410560675
4.4548125188449825,0.29737298507090854
4.629689226627261,0.26896904201618627
4.811430839003257,0.2432518695413051
5.000306842491082,0.21997018878719127
5.196597302486189,0.19889579632499063
5.400593278542364,0.17982158969565928
5.612597255954967,0.16255967705820343
5.8329235942862,0.1469396175716904
6.06189899349756,0.1328068211505456
6.29986297838068,0.12002115283427371
6.547168402004727,0.10845563863426304
6.804181968927091,0.0979951220747615
7.071284778942991,0.08853516708111009
7.348872892180382,0.07998107653637755
7.637357916378006,0.07224698973099082
7.937167617217536,0.0652548758405418
8.248746552614573,0.058933884630622296
8.572556731909314,0.053219915506178696
8.909078300934132,0.04805498275444979
9.258810253973934,0.04338663071125889
9.622271173675122,0.039167468674583664
9.999999999999984,0.03535512101805298
