k [1/Mpc],P(k) [Mpc^3]
0.0001,635.3639309918914
0.00010392556829367125,660.2885743817413
0.00010800523745162529,686.1895649210761
0.00011224505680853065,713.1049749393634
0.00011665131316981963,741.0743516063557
0.00012123054013376525,770.1387692248481
0.00012598952777950273,800.3408702295774
0.00013093533273536104,831.7249337790529
0.00013607528864243335,864.3369171396246
0.00014141701702890234,898.2244837024268
0.00014696843861124463,933.4371165168417
0.00015273778503907136,970.0262312416306
0.00015873361110102093,1008.0452422806671
0.00016496480740980205,1047.5495655893985
0.0001714406135851971,1088.5965623046081
0.00017817063195457305,1131.2457259580472
0.00018516484179121546,1175.5588569696054
0.000192433614111598,1221.6001666503007
0.00019998772705352857,1269.436267724917
0.0002078383818579757,1319.1360581955382
0.00021599721947827182,1370.7709162357066
0.0002244763378413224,1424.4148793911145
0.0002332883097864157,1480.1447482933659
0.00024244620170823283,1538.040158951541
0.0002519635929317015,1598.1835409974274
0.0002618545958474233,1660.6602461573395
0.0002721338768375308,1725.558693409015
0.0002828166780230032,1792.9703648059394
0.0002939188398646886,1862.9900035846297
0.0003054568246515432,1935.7156192491798
0.00031744774091091926,2011.2485633799458
0.00032990936877709396,2089.6937189876353
0.00034286018635565856,2171.1593930082518
0.00035631939712285854,2255.7575571556195
0.000370306958400514,2343.60391419077
0.00038484361094874304,2434.817881368211
0.0003999509097203664,2529.5228671245463
0.00041565125582259895,2627.846168508908
0.00043196792973341727,2729.919144932328
0.0004489251258218605,2835.877286345323
0.0004665479882234472,2945.8599065497892
0.000484862648123908,3060.010628348439
0.000503896262506515,3178.4774230409903
0.0005236770544204653,3301.4126839950636
0.0005442343548300266,3428.9733100247568
0.0005655986461065005,3561.320052159465
0.0005878016072274912,3698.618061202827
0.0006108761607505036,3841.0370132716776
0.0006348565216305217,3988.7509952256905
0.0006597782479539537,4141.938769182186
0.0006856782936641739,4300.782954764336
0.0007125950633568407,4465.470349276317
0.0007405684692262436,4636.192078709409
0.0007696399902471156,4813.1428482013325
0.0007998527336796708,4996.521640181387
0.000831251498989063,5186.530641741436
0.0008638828442740447,5383.3750735322565
0.000897795155303332,5587.263809123954
0.0009330387172620361,5798.407864170059
0.0009696657893145519,6017.021233399887
0.001007730682094461,6243.319993969247
0.0010472898382363582,6477.521215180498
0.0010884019160690055,6719.84402781756
0.0011311278765939214,6970.507087199603
0.001175531073878369,7229.729151184222
0.0012216773489967915,7497.729231774436
0.0012696351276599736,7774.724812185027
0.0013194755216767058,8060.932744874936
0.0013712724343984,8356.565981238207
0.0014251026703029975,8661.832941411752
0.0014810460488806749,8976.938712235256
0.0015391855229902056,9302.08187714823
0.001599607301861487,9637.455641023547
0.0016624009789266115,9983.245384746971
0.0017276596646690358,10339.626289072157
0.0017954801246878305,10706.764949532842
0.0018659629231817451,11084.814660312199
0.001939212572065829,11473.916060319943
0.0020153376859417325,11874.195839767692
0.002094451143151469,12285.762063668833
0.002176670253153458,12708.706655994762
0.002262116930469025,13143.100387442719
0.002350917875457286,13588.991718221681
0.002443204762186487,14046.406769022258
0.0025391144336803463,14515.341073779819
0.002638789104828933,14995.763213940663
0.002742376573264949,15487.610645717848
0.0028500304385181063,15990.78572846565
0.0029619103297725525,16505.157545972892
0.0030781821425650787,17030.54805222426
0.003199018284775064,17566.736205211055
0.0033245979322709396,18113.457984993296
0.003455107294592217,18670.398926539117
0.0035907398910610534,19237.196973959093
0.0037316968377327513,19813.407505933417
0.0038781871456107214,20398.505534885804
0.0040304280305680515,20991.92763670614
0.00418864523543527,21593.1298015594
0.004353073364731888,22201.532827716554
0.00452395623253805,22816.331166346274
0.004701547224022131,23436.42384106138
0.004886109671160325,24060.63325237151
0.005077917243205399,24687.91135553728
0.005277254352483535,25317.234836767795
0.005484416576121017,25947.39176551946
0.005699711094326071,26576.826408628363
0.005923457145875801,27203.86119132102
0.006155986501483508,27826.84307933595
0.006397643955748424,28444.12365225163
0.0066487878384172625,29053.91112696792
0.0069097905457156435,29654.072236079366
0.007181039092537346,30242.320951530677
0.007462935686310132,30816.1959527851
0.007755898323389004,31373.047469078254
0.00806036140886134,31910.115437999146
0.008376776400682916,32424.411821939702
0.008705612479099857,32912.82236504332
0.009047357242349292,33372.07517269459
0.00940251742967013,33798.652231400716
0.009771619672696168,34188.97056814909
0.010155211276345676,34539.164990308724
0.010553861030365234,34845.20938803015
0.010968160052731372,35103.02820855342
0.011398722666160517,35308.28014355675
0.011846187309026826,35456.685483018264
0.012311217482038896,35543.836643739574
0.012794502732078732,35565.231799712084
0.013296759674662111,35516.59790317222
0.013818733056536317,35393.538210694096
0.014361196859990781,35191.97059485367
0.014924955450518284,34908.101838575756
0.015510844769528393,34538.289136785585
0.016119733573881575,34079.624417167215
0.01675252472408214,33529.5735799682
0.017410156523040152,32886.35369616835
0.018093604107387147,32149.20786836375
0.01880388089340914,31318.123200520982
0.019542040079740527,30394.45340601552
0.02030917620904734,29380.815530856424
0.021106426791015535,28281.174677917334
0.021934973989050584,27101.164177068975
0.02279604637318978,25848.01764922006
0.023690920741826323,24530.534628105976
0.02462092401494623,23159.38170094304
0.02558743520168586,21747.036080657042
0.02659188744512693,20306.90578364337
0.027635770147361564,18854.129089435042
0.028720631177978267,17404.215960013888
0.029848079169243254,15973.357560978358
0.03101978590138095,14580.03753829429
0.03223748878149028,13240.140386722627
0.0335029934197723,11967.837361430873
0.03481817630688963,10774.776857255452
0.03618498759642746,9671.229921584054
0.037605453996581675,8671.447678083585
0.03908168177536263,7783.947509008686
0.04061585988376978,7012.08433647414
0.04221026320156896,6355.0409729613375
0.04386725591048496,5810.051174870417
0.0455892949998106,5373.045528354119
0.047378933909631396,5037.792799120966
0.049238826317067365,4797.6788162756075
0.05117173007114603,4643.973113845795
0.05318051128214196,4567.4269913353255
0.05526814857144601,4556.497606881523
0.057437737488265785,4593.750044010713
0.0596924950997073,4657.092892852206
0.0620357647610427,4720.938902799433
0.06447102107323864,4757.513185336194
0.06700187503509585,4739.539498399405
0.06963207939763882,4643.729656515885
0.0723655342286965,4454.021231396014
0.07520629269592405,4164.9271474908
0.07815856707684081,3784.5922162618735
0.08122673500479707,3336.0979274368283
0.08441534596012978,2856.044777239261
0.0877291280161335,2387.7522925497574
0.09117299484984914,1971.4909145268755
0.09475205302806537,1636.2083682194066
0.09847160957933764,1396.2423830174107
0.1023371798632519,1253.246584215084
0.10635449574860109,1200.2404891108927
0.11052951411260206,1223.9888139490997
0.1148684256737553,1303.5430816156997
0.1193776641714435,1406.1641152253044
0.1240639159058831,1486.157834615368
0.12893412965257148,1495.0374811953232
0.13399552696593373,1404.1289153557564
0.1392556128874462,1223.18052863315
0.14472218707411338,996.5203819220278
0.15040335536380234,781.2204250344658
0.15630754179458153,623.3804089385926
0.16244350109588662,543.4418130520635
0.16882033167003618,537.5102569915789
0.17544748908334581,584.4966818871088
0.1823348000868439,644.5232198748612
0.189492477187382,664.8802986741904
0.19693113379074215,611.5976912868259
0.20466179993919872,500.66177666027573
0.21269593866686892,386.6957865265458
0.22104546299710207,315.99217178361033
0.22972275360711503,301.66926119687525
0.23874067718606454,327.1424642399253
0.2481126055137766,350.96598873239066
0.25785243528842716,332.2465974359823
0.26797460873256895,272.71233708575863
0.27849413500806414,215.1403562892951
0.28942661247167484,192.05675395804087
0.3007882518043098,200.2770720142735
0.31259590004822796,208.22356399493358
0.324867065587837,187.79058391128535
0.3376199441111335,152.09139645774403
0.35087344559027084,132.35863465594986
0.36464722232127456,133.4634085938868
0.37896169806447155,132.77190336349187
0.3938380983288488,115.39004410320698
0.4092984818452433,97.72459764569204
0.4253657732750382,93.58511496926192
0.44206379720285277,91.60136110837837
0.45941731346364734,80.55590052736953
0.47745205385661277,70.81134356081334
0.4961947603002895,68.10247010231359
0.5156732244854959,63.02991057309873
0.5359163290848509,55.69768801772847
0.556954090580013,50.960663254340744
0.5788177037701272,47.04306967777782
0.6015395880274836,43.404496514572564
0.6251534353689703,39.86247826288177
0.6496942604146115,36.47498696741214
0.6751984523072497,33.29432886438006
0.7017038286703824,30.35516838829268
0.7292496916841444,27.67739946029656
0.7578768863625915,25.26408849400451
0.7876278611187046,23.085704700530453
0.8185467307069019,21.108409698761267
0.850679341636415,19.304224409899295
0.8840733401525058,17.650022007510763
0.9187782428863317,16.1267894322718
0.9548455102782278,14.722352311983471
0.9923286228832539,13.430649414484844
1.0312831606721837,12.245668025405514
1.0717668854455022,11.16114527065407
1.1138398264826193,10.170703584026244
1.1575643695533022,9.267765715380161
1.2030053494233226,8.44471773927678
1.2502301459914542,7.6941458984960605
1.299308784200415,7.009385667310261
1.3503140378698726,6.3844402512621
1.4033215376054824,5.8139090135186455
1.4584098829439835,5.293038975810772
1.5156607589006013,4.817687922848418
1.575159057091621,4.384052679734043
1.6369930016117014,3.988625015065757
1.7012542798525885,3.628171558914224
1.7680381784572046,3.2997107464630417
1.8374437246107238,3.000470828419486
1.9095738328780953,2.7278997005524803
1.9845354578058014,2.4796637698148274
2.0624397525140905,2.2536297214291316
2.143402233514853,2.047847694526174
2.227542951999554,1.8605375662591874
2.314986671851158,1.6900755407630061
2.405863054644063,1.5349772918375688
2.5003068519063225,1.3938859492346147
2.598458104929248,1.2655614989894441
2.7004623524206774,1.148870929632793
2.806470846309834,1.0427784934253583
2.916640776023701,0.9463382200796133
3.031135501567576,0.8586868919792331
3.150124795755327,0.7790369782028566
3.2737850959485697,0.7066701500179915
3.4022997656780634,0.6409315058545265
3.5358593665351745,0.5812242542256981
3.6746619407366854,0.5270042861208598
3.8189133047818515,0.47777558251164065
3.968827354637162,0.43308606876049743
4.1246263829013445,0.3925237966240192
4.286541408420921,0.35571327751854415
4.4548125188449825,0.32231245592722185
4.629689226627261,0.29200994782759454
4.811430839003257,0.2645223452065556
5.000306842491082,0.2395917495195402
5.196597302486189,0.21698351397530158
5.400593278542364,0.1964841800279696
5.612597255954967,0.17789960877743036
5.8329235942862,0.16105326485750407
6.06189899349756,0.14578464773364053
6.29986297838068,0.13194786577564338
6.547168402004727,0.1194104035757178
6.804181968927091,0.10805187659578179
7.071284778942991,0.09776287246257637
7.348872892180382,0.088443969286417
7.637357916378006,0.08000484143111389
7.937167617217536,0.07236333916266216
8.248746552614573,0.06544457096906643
8.572556731909314,0.05918059325167076
8.909078300934132,0.05350983780853174
9.258810253973934,0.048376512106891305
9.622271173675122,0.043730086438556574
9.999999999999984,0.039525312754653305
