k [1/Mpc],P(k) [Mpc^3]
0.0001,1762.3256885278026
0.00010392556829367125,1831.3513460891559
0.00010800523745162529,1903.0678532106892
0.00011224505680853065,1977.5785561603996
0.00011665131316981963,2054.9905277666517
0.00012123054013376525,2135.414782639316
0.00012598952777950273,2218.9664001738697
0.00013093533273536104,2305.764641370004
0.00013607528864243335,2395.933120419177
0.00014141701702890234,2489.5997393977973
0.00014696843861124463,2586.89694461427
0.00015273778503907136,2687.9617962526168
0.00015873361110102093,2792.935903859765
0.00016496480740980205,2901.9658531344594
0.0001714406135851971,3015.2032718516843
0.00017817063195457305,3132.805020699764
0.00018516484179121546,3254.9332085172855
0.000192433614111598,3381.754814981332
0.00019998772705352857,3513.4423336991995
0.0002078383818579757,3650.173814593147
0.00021599721947827182,3792.1329885487376
0.0002244763378413224,3939.5094628031084
0.0002332883097864157,4092.4981617140725
0.00024244620170823283,4251.29994788011
0.0002519635929317015,4416.121482707736
0.0002618545958474233,4587.175032085579
0.0002721338768375308,4764.6791168793725
0.0002828166780230032,4948.857995550023
0.0002939188398646886,5139.942070940373
0.0003054568246515432,5338.167596214493
0.00031744774091091926,5543.775763930108
0.00032990936877709396,5757.013917294231
0.00034286018635565856,5978.135287116683
0.00035631939712285854,6207.399109503798
0.000370306958400514,6445.0702475482
0.00038484361094874304,6691.417273662233
0.0003999509097203664,6946.714073545911
0.00041565125582259895,7211.239651005495
0.00043196792973341727,7485.27791262645
0.0004489251258218605,7769.117647424327
0.0004665479882234472,8063.050193968327
0.000484862648123908,8367.370632827973
0.000503896262506515,8682.377093387386
0.0005236770544204653,9008.3695551151
0.0005442343548300266,9345.650749014412
0.0005655986461065005,9694.522871573949
0.0005878016072274912,10055.288355903793
0.0006108761607505036,10428.24940262484
0.0006348565216305217,10813.705044027995
0.0006597782479539537,11211.952926587617
0.0006856782936641739,11623.284294918487
0.0007125950633568407,12047.983681002708
0.0007405684692262436,12486.32980390595
0.0007696399902471156,12938.589929397107
0.0007998527336796708,13405.022642678603
0.000831251498989063,13885.87273702986
0.0008638828442740447,14381.368424267397
0.000897795155303332,14891.724505764643
0.0009330387172620361,15417.137751892911
0.0009696657893145519,15957.787460018175
0.001007730682094461,16513.829841021452
0.0010472898382363582,17085.39168732566
0.0010884019160690055,17672.575110484126
0.0011311278765939214,18275.44925142505
0.001175531073878369,18894.050824912283
0.0012216773489967915,19528.38359687907
0.0012696351276599736,20178.412153409045
0.0013194755216767058,20844.063910892208
0.0013712724343984,21525.22195966531
0.0014251026703029975,22221.723087586655
0.0014810460488806749,22933.35799809909
0.0015391855229902056,23659.862867462343
0.001599607301861487,24400.92195837585
0.0016624009789266115,25156.16081230224
0.0017276596646690358,25925.141676851308
0.0017954801246878305,26707.36661507044
0.0018659629231817451,27502.267653592182
0.001939212572065829,28309.209399889634
0.0020153376859417325,29127.483533070634
0.002094451143151469,29956.300244238224
0.002176670253153458,30794.796562721636
0.002262116930469025,31642.03201743151
0.002350917875457286,32496.988891490637
0.002443204762186487,33358.56307160922
0.0025391144336803463,34225.5426051352
0.002638789104828933,35096.62960289634
0.002742376573264949,35970.44322043678
0.0028500304385181063,36845.5202628685
0.0029619103297725525,37720.28372216112
0.0030781821425650787,38592.9243433227
0.003199018284775064,39461.50420579622
0.0033245979322709396,40324.22110242037
0.003455107294592217,41179.50713517971
0.0035907398910610534,42025.63536386344
0.0037316968377327513,42859.86045159441
0.0038781871456107214,43678.907494455954
0.0040304280305680515,44479.68814437821
0.00418864523543527,45259.65928068974
0.004353073364731888,46016.30196005166
0.00452395623253805,46747.014145178844
0.004701547224022131,47449.13620885983
0.004886109671160325,48119.831332872425
0.005077917243205399,48755.76090281105
0.005277254352483535,49353.46722449893
0.005484416576121017,49909.35154459949
0.005699711094326071,50419.6968650422
0.005923457145875801,50880.75787645915
0.006155986501483508,51288.582769277295
0.006397643955748424,51639.21983385009
0.0066487878384172625,51928.68658325475
0.0069097905457156435,52152.94464529492
0.007181039092537346,52308.056582836085
0.007462935686310132,52389.784010691576
0.007755898323389004,52393.92170797603
0.00806036140886134,52316.35210181355
0.008376776400682916,52152.83853778662
0.008705612479099857,51899.50313340584
0.009047357242349292,51552.47363140136
0.00940251742967013,51108.142900972794
0.009771619672696168,50563.388332137554
0.010155211276345676,49915.16173873836
0.010553861030365234,49161.1780874695
0.010968160052731372,48299.60507507896
0.011398722666160517,47329.189062776146
0.011846187309026826,46249.7932297327
0.012311217482038896,45061.924409305255
0.012794502732078732,43767.375332583426
0.013296759674662111,42369.19076465082
0.013818733056536317,40871.578669707196
0.014361196859990781,39280.428447113925
0.014924955450518284,37603.174610152026
0.015510844769528393,35848.85032485743
0.016119733573881575,34028.30020152818
0.01675252472408214,32154.23739709222
0.017410156523040152,30240.581352381734
0.018093604107387147,28303.331033712915
0.01880388089340914,26359.49931067913
0.019542040079740527,24426.637363061305
0.02030917620904734,22524.47521022634
0.021106426791015535,20671.141531683526
0.021934973989050584,18885.335825063878
0.02279604637318978,17185.102206790853
0.023690920741826323,15585.045042084796
0.02462092401494623,14101.975422094458
0.02558743520168586,12747.807608596413
0.02659188744512693,11530.696473173983
0.027635770147361564,10456.972597808402
0.028720631177978267,9527.757085144169
0.029848079169243254,8743.855003217373
0.03101978590138095,8104.658544398935
0.03223748878149028,7603.835134898199
0.0335029934197723,7229.0473105319315
0.03481817630688963,6970.117821568104
0.03618498759642746,6816.7993176470745
0.037605453996581675,6759.898739539166
0.03908168177536263,6781.840377377117
0.04061585988376978,6861.418473411379
0.04221026320156896,6967.810352879173
0.04386725591048496,7065.2843826677745
0.0455892949998106,7114.273269224443
0.047378933909631396,7077.584101089932
0.049238826317067365,6924.7254630104835
0.05117173007114603,6636.576002423128
0.05318051128214196,6210.008186101153
0.05526814857144601,5659.142885143509
0.057437737488265785,5013.258677570856
0.0596924950997073,4321.657395065745
0.0620357647610427,3644.404230343837
0.06447102107323864,3035.6872807056766
0.06700187503509585,2538.271701910923
0.06963207939763882,2173.4940902447997
0.0723655342286965,1944.1598538008875
0.07520629269592405,1840.1135691823954
0.07815856707684081,1841.7504811592494
0.08122673500479707,1920.924107635854
0.08441534596012978,2036.7902954323717
0.0877291280161335,2134.797075658377
0.09117299484984914,2155.6731559980867
0.09475205302806537,2056.1184086736625
0.09847160957933764,1835.2955341635566
0.1023371798632519,1542.4690092882029
0.10635449574860109,1248.0144996297688
0.11052951411260206,1010.1831294643557
0.1148684256737553,863.7380243170082
0.1193776641714435,813.5087455126427
0.1240639159058831,835.7855123813197
0.12893412965257148,889.342182696215
0.13399552696593373,919.2264512126862
0.1392556128874462,878.7759298617116
0.14472218707411338,766.1365797383374
0.15040335536380234,626.0111428439295
0.15630754179458153,514.9626143143206
0.16244350109588662,461.24479296408936
0.16882033167003618,457.90109568325676
0.17544748908334581,473.00159711494985
0.1823348000868439,463.8694032565959
0.189492477187382,414.16548416682815
0.19693113379074215,347.4788666241854
0.20466179993919872,299.90261332749316
0.21269593866686892,283.27178295685667
0.22104546299710207,281.2552974742238
0.22972275360711503,267.6862065654331
0.23874067718606454,236.26257515538913
0.2481126055137766,205.4235282039704
0.25785243528842716,189.47783950936736
0.26797460873256895,182.05001159424006
0.27849413500806414,168.96950735216475
0.28942661247167484,150.00626228693983
0.3007882518043098,135.55775861951645
0.31259590004822796,127.15091818528812
0.324867065587837,117.563908527361
0.3376199441111335,105.81068324650407
0.35087344559027084,96.65487420717662
0.36464722232127456,89.56718633265866
0.37896169806447155,81.6479152981737
0.3938380983288488,74.26625078891144
0.4092984818452433,68.30162638654154
0.4253657732750382,62.40241765482149
0.44206379720285277,56.85561958969306
0.45941731346364734,51.89153632936941
0.47745205385661277,47.416149626033544
0.4961947603002895,43.352898249856736
0.5156732244854959,39.639444197408615
0.5359163290848509,36.22540813609975
0.556954090580013,33.07962559944849
0.5788177037701272,30.18691253140782
0.6015395880274836,27.532635702084562
0.6251534353689703,25.10198295877289
0.6496942604146115,22.880188122041286
0.6751984523072497,20.852548362362814
0.7017038286703824,19.00296077769716
0.7292496916841444,17.31541086557496
0.7578768863625915,15.775387512526123
0.7876278611187046,14.369752535411218
0.8185467307069019,13.086601307865656
0.850679341636415,11.915204978906429
0.8840733401525058,10.846122388202943
0.9187782428863317,9.870772347150666
0.9548455102782278,8.981249079316628
0.9923286228832539,8.170274243014742
1.0312831606721837,7.431151736559867
1.0717668854455022,6.757703774422896
1.1138398264826193,6.144212998922731
1.1575643695533022,5.58544183014838
1.2030053494233226,5.076600971738931
1.2502301459914542,4.613311880345044
1.299308784200415,4.191572457945408
1.3503140378698726,3.8077298746204007
1.4033215376054824,3.4584502714635446
1.4584098829439835,3.1406857783056537
1.5156607589006013,2.851650433219497
1.575159057091621,2.5887983912156476
1.6369930016117014,2.3498037964228193
1.7012542798525885,2.1325416868832727
1.7680381784572046,1.9350716476321244
1.8374437246107238,1.755622730520324
1.9095738328780953,1.5925790516436715
1.9845354578058014,1.4444665662535874
2.0624397525140905,1.309940776678128
2.143402233514853,1.1877751360882
2.227542951999554,1.0768515912632226
2.314986671851158,0.9761514161232034
2.405863054644063,0.8847465705195791
2.5003068519063225,0.8017917930550907
2.598458104929248,0.7265174672134359
2.7004623524206774,0.6582230704047337
2.806470846309834,0.5962708737563706
2.916640776023701,0.5400804005062293
3.031135501567576,0.48912339257159554
3.150124795755327,0.44291920383584726
3.2737850959485697,0.40103047489463867
3.4022997656780634,0.3630593346269631
3.5358593665351745,0.32864404764790456
3.6746619407366854,0.2974557951951262
3.8189133047818515,0.2691957296110959
3.968827354637162,0.2435922919003028
4.1246263829013445,0.22039879542830038
4.286541408420921,0.19939115658795872
4.4548125188449825,0.18036583281577326
4.629689226627261,0.16313797049635248
4.811430839003257,0.14753971690921924
5.000306842491082,0.13341866372220765
5.196597302486189,0.12063639855906615
5.400593278542364,0.10906730742868272
5.612597255954967,0.09859742816878476
5.8329235942862,0.08912338318367946
6.06189899349756,0.08055140884677814
6.29986297838068,0.07279650900804284
6.547168402004727,0.06578167005039455
6.804181968927091,0.05943704604062515
7.071284778942991,0.053699293297473936
7.348872892180382,0.04851097511613571
7.637357916378006,0.043820014343789716
7.937167617217536,0.039579082893029804
8.248746552614573,0.035745207924439575
8.572556731909314,0.032279510461813175
8.909078300934132,0.029146820392535657
9.258810253973934,0.02631532174800826
9.622271173675122,0.023756270614469135
9.999999999999984,0.021443964875299665
