k [1/Mpc],P(k) [Mpc^3]
0.0001,1727.0983132610722
0.00010392556829367125,1794.850467377968
0.00010800523745162529,1865.2566360587587
0.00011224505680853065,1938.4203291447848
0.00011665131316981963,2014.449016798075
0.00012123054013376525,2093.4543189879487
0.00012598952777950273,2175.5521595048144
0.00013093533273536104,2260.862932733863
0.00013607528864243335,2349.511575800297
0.00014141701702890234,2441.6276591253936
0.00014696843861124463,2537.3456991839
0.00015273778503907136,2636.8053784299973
0.00015873361110102093,2740.1517318862443
0.00016496480740980205,2847.535299165299
0.0001714406135851971,2959.1122580551446
0.00017817063195457305,3075.0446986700995
0.00018516484179121546,3195.5006595747914
0.000192433614111598,3320.6543365753982
0.00019998772705352857,3450.686438145329
0.0002078383818579757,3585.784291066209
0.00021599721947827182,3726.1421747044656
0.0002244763378413224,3871.9615147717095
0.0002332883097864157,4023.4510743612996
0.00024244620170823283,4180.827294296219
0.0002519635929317015,4344.314241883204
0.0002618545958474233,4514.144013900211
0.0002721338768375308,4690.556935232412
0.0002828166780230032,4873.80144642026
0.0002939188398646886,5064.134818238002
0.0003054568246515432,5261.823478874306
0.00031744774091091926,5467.1433163
0.00032990936877709396,5680.3797436989125
0.00034286018635565856,5901.827068508467
0.00035631939712285854,6131.789492500385
0.000370306958400514,6370.581456066122
0.00038484361094874304,6618.527832266907
0.0003999509097203664,6875.964326954821
0.00041565125582259895,7143.2366920852
0.00043196792973341727,7420.701543567871
0.0004489251258218605,7708.72686825158
0.0004665479882234472,8007.691935680177
0.000484862648123908,8317.987960889737
0.000503896262506515,8640.017103808726
0.0005236770544204653,8974.192913101282
0.0005442343548300266,9320.941190739944
0.0005655986461065005,9680.699356277386
0.0005878016072274912,10053.917390415989
0.0006108761607505036,10441.056907014656
0.0006348565216305217,10842.590863913441
0.0006597782479539537,11259.0047274167
0.0006856782936641739,11690.794364879974
0.0007125950633568407,12138.467400382979
0.0007405684692262436,12602.543064806623
0.0007696399902471156,13083.550941204665
0.0007998527336796708,13582.032375355519
0.000831251498989063,14098.536739070103
0.0008638828442740447,14633.622162772179
0.000897795155303332,15187.856222154996
0.0009330387172620361,15761.811952868336
0.0009696657893145519,16356.070780882157
0.001007730682094461,16971.21931874195
0.0010472898382363582,17607.848067203937
0.0010884019160690055,18266.55284973579
0.0011311278765939214,18947.927366639255
0.001175531073878369,19652.566557929615
0.0012216773489967915,20381.065245060083
0.0012696351276599736,21134.014454452757
0.0013194755216767058,21912.003434790153
0.0013712724343984,22715.609921581326
0.0014251026703029975,23545.401391491832
0.0014810460488806749,24401.935125954336
0.0015391855229902056,25285.74967153406
0.001599607301861487,26197.369309242436
0.0016624009789266115,27137.295078717405
0.0017276596646690358,28106.001731364915
0.0017954801246878305,29103.939930563643
0.0018659629231817451,30131.52343461283
0.001939212572065829,31189.133335140883
0.0020153376859417325,32277.109386888787
0.002094451143151469,33395.74045179941
0.002176670253153458,34545.271287343465
0.002262116930469025,35725.88822392665
0.002350917875457286,36937.72011212797
0.002443204762186487,38180.83112699577
0.0025391144336803463,39455.200667704856
0.002638789104828933,40760.73575469194
0.002742376573264949,42097.251699757166
0.0028500304385181063,43464.46802723464
0.0029619103297725525,44862.00962192499
0.0030781821425650787,46289.372438338614
0.003199018284775064,47745.94097860336
0.0033245979322709396,49230.96719096034
0.003455107294592217,50743.5525482416
0.0035907398910610534,52282.666080822935
0.0037316968377327513,53847.0972986988
0.0038781871456107214,55435.47250648215
0.0040304280305680515,57046.21479385171
0.00418864523543527,58677.46135112692
0.004353073364731888,60327.16305923294
0.00452395623253805,61993.184953439704
0.004701547224022131,63673.29173322777
0.004886109671160325,65364.90921282647
0.005077917243205399,67064.60488310225
0.005277254352483535,68768.53445489235
0.005484416576121017,70472.7326667635
0.005699711094326071,72173.16476247291
0.005923457145875801,73865.56133306707
0.006155986501483508,75545.32267853689
0.006397643955748424,77207.57865612702
0.0066487878384172625,78846.9600678905
0.0069097905457156435,80457.30609682424
0.007181039092537346,82032.1026998421
0.007462935686310132,83564.18681632736
0.007755898323389004,85045.87777426596
0.00806036140886134,86469.11376128467
0.008376776400682916,87825.1225222377
0.008705612479099857,89104.83228151784
0.009047357242349292,90298.50891337798
0.00940251742967013,91395.7477794832
0.009771619672696168,92385.90420172935
0.010155211276345676,93257.29178875365
0.010553861030365234,93997.9568302103
0.010968160052731372,94595.51109813839
0.011398722666160517,95036.73846340146
0.011846187309026826,95308.69554292284
0.012311217482038896,95397.5969533692
0.012794502732078732,95289.67547129668
0.013296759674662111,94971.60333510992
0.013818733056536317,94429.32026602571
0.014361196859990781,93650.144136742
0.014924955450518284,92621.53358426022
0.015510844769528393,91331.65177993273
0.016119733573881575,89771.1027684723
0.01675252472408214,87930.67977604913
0.017410156523040152,85804.4789413847
0.018093604107387147,83389.12570025706
0.01880388089340914,80683.21048175551
0.019542040079740527,77691.03183143023
0.02030917620904734,74419.31628510945
0.021106426791015535,70880.45370460747
0.021934973989050584,67092.83837733457
0.02279604637318978,63077.73969668383
0.023690920741826323,58865.29010911124
0.02462092401494623,54491.029464084124
0.02558743520168586,49996.96317039451
0.02659188744512693,45431.83009567476
0.027635770147361564,40842.45916251864
0.028720631177978267,36283.24718603642
0.029848079169243254,31818.271504473603
0.03101978590138095,27516.489466415245
0.03223748878149028,23440.815161144754
0.0335029934197723,19629.02794037784
0.03481817630688963,16115.831039707855
0.03618498759642746,12946.52934776438
0.037605453996581675,10165.242182210555
0.03908168177536263,7792.891228931619
0.04061585988376978,5826.9611193430055
0.04221026320156896,4247.487669797365
0.04386725591048496,3024.1789745642104
0.0455892949998106,2112.6727988903253
0.047378933909631396,1464.6367041247204
0.049238826317067365,1027.31040271899
0.05117173007114603,753.0713284947046
0.05318051128214196,601.4577774355652
0.05526814857144601,545.4165751327837
0.057437737488265785,569.2145259310249
0.0596924950997073,671.5126996823597
0.0620357647610427,857.8495682369478
0.06447102107323864,1133.201626734312
0.06700187503509585,1493.0971446847811
0.06963207939763882,1915.9535990334123
0.0723655342286965,2357.5756811187434
0.07520629269592405,2753.8702842855364
0.07815856707684081,3028.895464838331
0.08122673500479707,3112.8212802892012
0.08441534596012978,2965.121685702525
0.0877291280161335,2594.1731360576127
0.09117299484984914,2062.114900444008
0.09475205302806537,1469.0045535423803
0.09847160957933764,921.5706436931349
0.1023371798632519,499.18186834856374
0.10635449574860109,231.5740796788175
0.11052951411260206,97.59745640761513
0.1148684256737553,50.001306510329144
0.1193776641714435,50.92571414468739
0.1240639159058831,98.82622353098012
0.12893412965257148,218.65992341739502
0.13399552696593373,418.2355357870148
0.1392556128874462,648.0404736041812
0.14472218707411338,807.0868502930373
0.15040335536380234,802.2744001672537
0.15630754179458153,624.2509021266867
0.16244350109588662,368.24927493674056
0.16882033167003618,158.7609826609016
0.17544748908334581,52.209553574765735
0.1823348000868439,22.923330911958928
0.189492477187382,35.7109189051751
0.19693113379074215,99.37564103421542
0.20466179993919872,214.59790043899957
0.21269593866686892,306.00605072858446
0.22104546299710207,283.60898978032264
0.22972275360711503,166.7872670278147
0.23874067718606454,62.18836831890386
0.2481126055137766,21.934041454551927
0.25785243528842716,25.647842139830964
0.26797460873256895,67.92779233661791
0.27849413500806414,127.59657929543235
0.28942661247167484,130.9729582553576
0.3007882518043098,71.83042329924632
0.31259590004822796,25.891785726493914
0.324867065587837,18.76609944593167
0.3376199441111335,40.80417119815422
0.35087344559027084,69.09813246067249
0.36464722232127456,56.17031474143721
0.37896169806447155,24.666557798159136
0.3938380983288488,15.800072757944545
0.4092984818452433,28.34995891548125
0.4253657732750382,39.2189144924702
0.44206379720285277,25.107115654319145
0.45941731346364734,13.4959284979966
0.47745205385661277,17.89285889785671
0.4961947603002895,23.84725637141288
0.5156732244854959,15.746723805096256
0.5359163290848509,11.554574597155815
0.556954090580013,13.217063633045772
0.5788177037701272,12.553538812694978
0.6015395880274836,11.33503264741868
0.6251534353689703,10.315347015449767
0.6496942604146115,9.433509842460747
0.6751984523072497,8.639216781831601
0.7017038286703824,7.895329156859535
0.7292496916841444,7.1754162841979205
0.7578768863625915,6.473446021369831
0.7876278611187046,5.810122819751157
0.8185467307069019,5.202213596746092
0.850679341636415,4.659462957578605
0.8840733401525058,4.1862011805600305
0.9187782428863317,3.7822490291772386
0.9548455102782278,3.4368074100469257
0.9923286228832539,3.135491808277903
1.0312831606721837,2.8671877433211668
1.0717668854455022,2.6233797815372544
1.1138398264826193,2.3975929515757417
1.1575643695533022,2.1860447531280442
1.2030053494233226,1.9889166523299093
1.2502301459914542,1.8066698925694877
1.299308784200415,1.6393680506865398
1.3503140378698726,1.4867580931031745
1.4033215376054824,1.348324900600395
1.4584098829439835,1.2230137227602487
1.5156607589006013,1.1094814875618875
1.575159057091621,1.0065271969324454
1.6369930016117014,0.9130876344390824
1.7012542798525885,0.8282199172588577
1.7680381784572046,0.7510979312724131
1.8374437246107238,0.6810284657056604
1.9095738328780953,0.6173900345032642
1.9845354578058014,0.5596125733094659
2.0624397525140905,0.507173621975264
2.143402233514853,0.4595946155591151
2.227542951999554,0.416433957611947
2.314986671851158,0.37728484254041184
2.405863054644063,0.34177743941047145
2.5003068519063225,0.30957582131974637
2.598458104929248,0.2803748662515993
2.7004623524206774,0.25389758401660895
2.806470846309834,0.2298931307463116
2.916640776023701,0.20813369224394462
3.031135501567576,0.1884120960847088
3.150124795755327,0.17053997826975878
3.2737850959485697,0.15434610699974408
3.4022997656780634,0.1396747203148644
3.5358593665351745,0.12638411814085354
3.6746619407366854,0.1143456375939327
3.8189133047818515,0.10344248589771633
3.968827354637162,0.09356865610566045
4.1246263829013445,0.08462796340872546
4.286541408420921,0.07653328716583085
4.4548125188449825,0.06920559860828321
4.629689226627261,0.06257313091847888
4.811430839003257,0.05657072507069331
5.000306842491082,0.051139233428918324
5.196597302486189,0.046224930184115866
5.400593278542364,0.04177898874538845
5.612597255954967,0.037757140609194766
5.8329235942862,0.03411926669006752
6.06189899349756,0.030829011622823678
6.29986297838068,0.027853435832240613
6.547168402004727,0.0251627188006273
6.804181968927091,0.022729851739905275
7.071284778942991,0.02053035829217713
7.348872892180382,0.018542059881744476
7.637357916378006,0.016744862756055724
7.937167617217536,0.015120546776038137
8.248746552614573,0.01365256705967186
8.572556731909314,0.01232595030965388
8.909078300934132,0.011127154844858825
9.258810253973934,0.010043933505152017
9.622271173675122,0.009065215530893705
9.999999999999984,0.008181082567594677
