k [1/Mpc],P(k) [Mpc^3]
0.0001,817.8248791175959
0.00010392556829367125,845.031321202913
0.00010800523745162529,873.1425835952788
0.00011224505680853065,902.1887229905285
0.00011665131316981963,932.2007910786024
0.00012123054013376525,963.2108680974021
0.00012598952777950273,995.2521051363691
0.00013093533273536104,1028.3587687334964
0.00013607528864243335,1062.5662616636223
0.00014141701702890234,1097.9111196158394
0.00014696843861124463,1134.4310583439594
0.00015273778503907136,1172.1650493050786
0.00015873361110102093,1211.1533877864533
0.00016496480740980205,1251.437709805711
0.0001714406135851971,1293.0610179844996
0.00017817063195457305,1336.0677254802624
0.00018516484179121546,1380.5037063399961
0.000192433614111598,1426.4163172472995
0.00019998772705352857,1473.8544650519038
0.0002078383818579757,1522.868643253462
0.00021599721947827182,1573.510970212274
0.0002244763378413224,1625.8352834185011
0.0002332883097864157,1679.897286321529
0.00024244620170823283,1735.7545659547839
0.0002519635929317015,1793.466537456338
0.0002618545958474233,1853.094406231851
0.0002721338768375308,1914.7013516519953
0.0002828166780230032,1978.3525913543406
0.0002939188398646886,2044.1154502279753
0.0003054568246515432,2112.059489886407
0.00031744774091091926,2182.2567033465803
0.00032990936877709396,2254.7814660306367
0.00034286018635565856,2329.7103154511815
0.00035631939712285854,2407.121979151722
0.000370306958400514,2487.0977312440746
0.00038484361094874304,2569.7216571021427
0.0003999509097203664,2655.0806196814806
0.00041565125582259895,2743.264202019063
0.00043196792973341727,2834.3647376634585
0.0004489251258218605,2928.4774669859517
0.0004665479882234472,3025.7003649838957
0.000484862648123908,3126.1343460885737
0.000503896262506515,3229.883611738187
0.0005236770544204653,3337.0559258416324
0.0005442343548300266,3447.7624695911313
0.0005655986461065005,3562.1174436621955
0.0005878016072274912,3680.2382315679474
0.0006108761607505036,3802.245854848433
0.0006348565216305217,3928.2651803359
0.0006597782479539537,4058.4249315417323
0.0006856782936641739,4192.8574392519085
0.0007125950633568407,4331.69866989762
0.0007405684692262436,4475.088649610486
0.0007696399902471156,4623.171583978719
0.0007998527336796708,4776.095970498421
0.000831251498989063,4934.014389803017
0.0008638828442740447,5097.083365389074
0.000897795155303332,5265.463877679019
0.0009330387172620361,5439.321317783389
0.0009696657893145519,5618.82567543218
0.001007730682094461,5804.15150327572
0.0010472898382363582,5995.477624329366
0.0010884019160690055,6192.987663501608
0.0011311278765939214,6396.869797370151
0.001175531073878369,6607.3168950662475
0.0012216773489967915,6824.526612420882
0.0012696351276599736,7048.700547554816
0.0013194755216767058,7280.045097686065
0.0013712724343984,7518.771371112552
0.0014251026703029975,7765.09513149756
0.0014810460488806749,8019.237034541815
0.0015391855229902056,8281.42140182094
0.001599607301861487,8551.877033312498
0.0016624009789266115,8830.836752968647
0.0017276596646690358,9118.536564777405
0.0017954801246878305,9415.216890207414
0.0018659629231817451,9721.121583798596
0.001939212572065829,10036.498293253042
0.0020153376859417325,10361.598132333824
0.002094451143151469,10696.674057424367
0.002176670253153458,11041.98234136236
0.002262116930469025,11397.780732909028
0.002350917875457286,11764.328405099144
0.002443204762186487,12141.886550694742
0.0025391144336803463,12530.71568751105
0.002638789104828933,12931.077409407155
0.002742376573264949,13343.233148457994
0.0028500304385181063,13767.443251265084
0.0029619103297725525,14203.967516685083
0.0030781821425650787,14653.059909394073
0.003199018284775064,15114.970958931177
0.0033245979322709396,15589.948203695001
0.003455107294592217,16078.234605353806
0.0035907398910610534,16580.06881599064
0.0037316968377327513,17095.677372298454
0.0038781871456107214,17625.276322338497
0.0040304280305680515,18169.073252731876
0.00418864523543527,18727.26380225564
0.004353073364731888,19300.033247935822
0.00452395623253805,19887.5489945035
0.004701547224022131,20489.959581728577
0.004886109671160325,21107.39745059942
0.005077917243205399,21739.971452995225
0.005277254352483535,22387.770553418704
0.005484416576121017,23050.857348613914
0.005699711094326071,23729.263647599557
0.005923457145875801,24422.994472380185
0.006155986501483508,25132.012089728014
0.006397643955748424,25856.242673808418
0.0066487878384172625,26595.586703089488
0.0069097905457156435,27349.923287260946
0.007181039092537346,28119.092970163758
0.007462935686310132,28902.821575184265
0.007755898323389004,29700.739327779007
0.00806036140886134,30512.44382805667
0.008376776400682916,31337.541581943056
0.008705612479099857,32175.5985479669
0.009047357242349292,33026.05459284163
0.00940251742967013,33888.21907223538
0.009771619672696168,34761.34287658319
0.010155211276345676,35644.66254623292
0.010553861030365234,36537.36432979309
0.010968160052731372,37438.51473846193
0.011398722666160517,38347.03339192873
0.011846187309026826,39261.750931315895
0.012311217482038896,40181.38376611547
0.012794502732078732,41104.54927540938
0.013296759674662111,42029.76144304173
0.013818733056536317,42955.41091402621
0.014361196859990781,43879.79244257112
0.014924955450518284,44801.08225660172
0.015510844769528393,45717.347835629866
0.016119733573881575,46626.55172976085
0.01675252472408214,47526.51766826569
0.017410156523040152,48414.97262504518
0.018093604107387147,49289.53909480861
0.01880388089340914,50147.73991074937
0.019542040079740527,50987.02218922635
0.02030917620904734,51804.753058953844
0.021106426791015535,52598.23900505275
0.021934973989050584,53364.75205834567
0.02279604637318978,54101.54653895445
0.023690920741826323,54805.86207780039
0.02462092401494623,55474.977293182266
0.02558743520168586,56106.19966597535
0.02659188744512693,56696.929210991155
0.027635770147361564,57244.757500736174
0.028720631177978267,57747.35617592702
0.029848079169243254,58202.50742480286
0.03101978590138095,58608.10629259944
0.03223748878149028,58962.32779218285
0.0335029934197723,59264.05268629482
0.03481817630688963,59512.41651921154
0.03618498759642746,59706.64368242355
0.037605453996581675,59846.049426557875
0.03908168177536263,59930.22929574581
0.04061585988376978,59959.61157994931
0.04221026320156896,59934.97175589195
0.04386725591048496,59856.05207232465
0.0455892949998106,59720.976948494725
0.047378933909631396,59528.31444023203
0.049238826317067365,59280.17975424509
0.05117173007114603,58980.43808744405
0.05318051128214196,58631.49466632381
0.05526814857144601,58232.380559635
0.057437737488265785,57781.75657555429
0.0596924950997073,57277.4470231302
0.0620357647610427,56716.78919244699
0.06447102107323864,56097.54904826147
0.06700187503509585,55418.159777067645
0.06963207939763882,54677.75765986173
0.0723655342286965,53877.463872076456
0.07520629269592405,53019.32455558718
0.07815856707684081,52106.235781012605
0.08122673500479707,51141.591656415796
0.08441534596012978,50129.22742260105
0.0877291280161335,49073.76081548627
0.09117299484984914,47981.60083020052
0.09475205302806537,46860.596491221346
0.09847160957933764,45719.69994337661
0.1023371798632519,44566.71511448581
0.10635449574860109,43406.66913923344
0.11052951411260206,42240.83084500961
0.1148684256737553,41067.485129363085
0.1193776641714435,39883.99997599231
0.1240639159058831,38687.89500503993
0.12893412965257148,37477.22444583423
0.13399552696593373,36250.55132302874
0.1392556128874462,35008.78726750888
0.14472218707411338,33757.41612549484
0.15040335536380234,32507.67057233056
0.15630754179458153,31269.697989138385
0.16244350109588662,30061.72518800403
0.16882033167003618,28888.10854458169
0.17544748908334581,27737.404262296513
0.1823348000868439,26603.26131557007
0.189492477187382,25479.833816597675
0.19693113379074215,24366.70224110224
0.20466179993919872,23267.30538324644
0.21269593866686892,22188.253132771883
0.22104546299710207,21139.320053367606
0.22972275360711503,20127.025930778
0.23874067718606454,19149.203950365954
0.2481126055137766,18200.854687434065
0.25785243528842716,17278.491545787674
0.26797460873256895,16381.280292841373
0.27849413500806414,15513.945093997778
0.28942661247167484,14681.135904151817
0.3007882518043098,13882.812109823322
0.31259590004822796,13115.725184238212
0.324867065587837,12376.617655410799
0.3376199441111335,11665.632708301098
0.35087344559027084,10985.33692174883
0.36464722232127456,10337.387734505173
0.37896169806447155,9719.731983998265
0.3938380983288488,9129.990376425676
0.4092984818452433,8567.78210981061
0.4253657732750382,8034.064374270245
0.44206379720285277,7527.968445472913
0.45941731346364734,7047.05739639967
0.47745205385661277,6590.747084142207
0.4961947603002895,6159.706420583988
0.5156732244854959,5752.764845316996
0.5359163290848509,5367.875869583846
0.556954090580013,5004.864881806227
0.5788177037701272,4663.313668643479
0.6015395880274836,4341.435426853405
0.6251534353689703,4038.885697122289
0.6496942604146115,3755.1601955843203
0.6751984523072497,3488.516972812087
0.7017038286703824,3238.7168111310843
0.7292496916841444,3004.7841848732564
0.7578768863625915,2785.7345881212586
0.7876278611187046,2581.1915339834986
0.8185467307069019,2389.900431030171
0.850679341636415,2211.617526140355
0.8840733401525058,2045.3651548941216
0.9187782428863317,1890.4107166321085
0.9548455102782278,1746.1226574053458
0.9923286228832539,1611.8898335829895
1.0312831606721837,1487.1225798073895
1.0717668854455022,1371.2529275785555
1.1138398264826193,1263.7275951965462
1.1575643695533022,1164.0132756441008
1.2030053494233226,1071.6040914044552
1.2502301459914542,986.0209887315158
1.299308784200415,906.8108852923472
1.3503140378698726,833.5460075338651
1.4033215376054824,765.8237810029051
1.4584098829439835,703.2648073166356
1.5156607589006013,645.5115666236518
1.575159057091621,592.2275704331395
1.6369930016117014,543.0965014965902
1.7012542798525885,497.8210464997799
1.7680381784572046,456.1218362090659
1.8374437246107238,417.7373039233703
1.9095738328780953,382.42287532307415
1.9845354578058014,349.95007883273985
2.0624397525140905,320.10567538264
2.143402233514853,292.6907222490643
2.227542951999554,267.5198132781776
2.314986671851158,244.42040962815824
2.405863054644063,223.23207995435408
2.5003068519063225,203.80576834888438
2.598458104929248,186.0030822636458
2.7004623524206774,169.69556584364932
2.806470846309834,154.7641378090154
2.916640776023701,141.09851935145693
3.031135501567576,128.5966533116438
3.150124795755327,117.1641545075835
3.2737850959485697,106.71377098784258
3.4022997656780634,97.16487357588785
3.5358593665351745,88.4430494803232
3.6746619407366854,80.47967231932245
3.8189133047818515,73.21148899173606
3.968827354637162,66.58023158253953
4.1246263829013445,60.53223604788073
4.286541408420921,55.01810901655185
4.4548125188449825,49.99243534260697
4.629689226627261,45.41348008320849
4.811430839003257,41.24290939702551
5.000306842491082,37.445527158228955
5.196597302486189,33.98901112705713
5.400593278542364,30.84371238426118
5.612597255954967,27.982460705957784
5.8329235942862,25.3803677729473
6.06189899349756,23.014644859672725
6.29986297838068,20.864446748295965
6.547168402004727,18.910735676701805
6.804181968927091,17.136093847547528
7.071284778942991,15.524584908291516
7.348872892180382,14.061634988625451
7.637357916378006,12.733920918280328
7.937167617217536,11.529205955837652
8.248746552614573,10.436253897862503
8.572556731909314,9.44484184462124
8.909078300934132,8.545675224787455
9.258810253973934,7.730303446204785
9.622271173675122,6.991062211961997
9.999999999999984,6.321162627372338
