k [1/Mpc],P(k) [Mpc^3]
0.0001,1727.0982702857211
0.00010392556829367125,1794.8504240004509
0.00010800523745162529,1865.2565717706025
0.00011224505680853065,1938.420231813759
0.00011665131316981963,2014.4489398236883
0.00012123054013376525,2093.45434439596
0.00012598952777950273,2175.552326854815
0.00013093533273536104,2260.8632125588224
0.00013607528864243335,2349.511820655145
0.00014141701702890234,2441.627684011877
0.00014696843861124463,2537.3453685787154
0.00015273778503907136,2636.804785239017
0.00015873361110102093,2740.1512240394895
0.00016496480740980205,2847.5351492900204
0.0001714406135851971,2959.1124318347465
0.00017817063195457305,3075.044877449936
0.00018516484179121546,3195.500606049598
0.000192433614111598,3320.6541411550425
0.00019998772705352857,3450.6862445430834
0.0002078383818579757,3585.784037786128
0.00021599721947827182,3726.1416241523566
0.0002244763378413224,3871.9605328715716
0.0002332883097864157,4023.4498738956713
0.00024244620170823283,4180.826128166925
0.0002519635929317015,4344.313048224995
0.0002618545958474233,4514.1424720738705
0.0002721338768375308,4690.554570331527
0.0002828166780230032,4873.798160249679
0.0002939188398646886,5064.130838214843
0.0003054568246515432,5261.818902754281
0.00031744774091091926,5467.138013278701
0.00032990936877709396,5680.373144600227
0.00034286018635565856,5901.818898992037
0.00035631939712285854,6131.7798760303285
0.000370306958400514,6370.570153535688
0.00038484361094874304,6618.5142252556525
0.0003999509097203664,6875.947268974634
0.00041565125582259895,7143.21534474719
0.00043196792973341727,7420.675785592107
0.0004489251258218605,7708.69636542865
0.0004665479882234472,8007.656206394872
0.000484862648123908,8317.94589790393
0.000503896262506515,8639.96713141073
0.0005236770544204653,8974.133790655815
0.0005442343548300266,9320.871409564026
0.0005655986461065005,9680.617681739117
0.0005878016072274912,10053.82243988873
0.0006108761607505036,10440.94631189396
0.0006348565216305217,10842.462388571097
0.0006597782479539537,11258.855290169673
0.0006856782936641739,11690.621249254156
0.0007125950633568407,12138.268790787604
0.0007405684692262436,12602.316708649914
0.0007696399902471156,13083.295617191076
0.0007998527336796708,13581.745771403246
0.000831251498989063,14098.21561927983
0.0008638828442740447,14633.26428262426
0.000897795155303332,15187.458332430759
0.0009330387172620361,15761.373167214024
0.0009696657893145519,16355.591339749773
0.001007730682094461,16970.69895394639
0.0010472898382363582,17607.288919403192
0.0010884019160690055,18265.955373239503
0.0011311278765939214,18947.294296911874
0.001175531073878369,19651.903645331244
0.0012216773489967915,20380.376996485556
0.0012696351276599736,21133.307478671053
0.0013194755216767058,21911.28258475393
0.0013712724343984,22714.882331912893
0.0014251026703029975,23544.67990785075
0.0014810460488806749,24401.230520478417
0.0015391855229902056,25285.076341894885
0.001599607301861487,26196.742095338424
0.0016624009789266115,27136.729708651266
0.0017276596646690358,28105.521606504342
0.0017954801246878305,29103.570999345306
0.0018659629231817451,30131.302965287723
0.001939212572065829,31189.10858399373
0.0020153376859417325,32277.33323637417
0.002094451143151469,33396.283827862535
0.002176670253153458,34546.217984555435
0.002262116930469025,35727.34241125757
0.002350917875457286,36939.8096741585
0.002443204762186487,38183.70067571679
0.0025391144336803463,39459.03280474943
0.002638789104828933,40765.74371589217
0.002742376573264949,42103.68454244076
0.0028500304385181063,43472.62510122978
0.0029619103297725525,44872.23008986841
0.0030781821425650787,46302.06769375721
0.003199018284775064,47761.59300175308
0.0033245979322709396,49250.130700045214
0.003455107294592217,50766.89183937758
0.0035907398910610534,52310.9535829082
0.0037316968377327513,53881.26229120981
0.0038781871456107214,55476.587237110776
0.0040304280305680515,57095.44334959784
0.00418864523543527,58736.18634975499
0.004353073364731888,60397.168385252924
0.00452395623253805,62076.71289166649
0.004701547224022131,63772.82539105648
0.004886109671160325,65482.688208134576
0.005077917243205399,67203.1167256811
0.005277254352483535,68930.93927964917
0.005484416576121017,70663.04983934663
0.005699711094326071,72396.15393249375
0.005923457145875801,74126.69140659465
0.006155986501483508,75850.88180444903
0.006397643955748424,77564.55373027748
0.0066487878384172625,79263.00323536132
0.0069097905457156435,80941.25459887151
0.007181039092537346,82593.90672385099
0.007462935686310132,84215.2315405292
0.007755898323389004,85799.20837934614
0.00806036140886134,87339.40851562565
0.008376776400682916,88829.17520771935
0.008705612479099857,90261.42691161337
0.009047357242349292,91628.7314860697
0.00940251742967013,92923.43262237753
0.009771619672696168,94137.37596180815
0.010155211276345676,95262.25756030179
0.010553861030365234,96289.46130374313
0.010968160052731372,97210.05570845531
0.011398722666160517,98015.14084184133
0.011846187309026826,98695.55534112471
0.012311217482038896,99242.24951209941
0.012794502732078732,99646.31164553147
0.013296759674662111,99898.88971808847
0.013818733056536317,99991.65451723925
0.014361196859990781,99916.67814145738
0.014924955450518284,99666.69706489016
0.015510844769528393,99235.39855536091
0.016119733573881575,98617.52069205287
0.01675252472408214,97809.03114549711
0.017410156523040152,96807.60369307041
0.018093604107387147,95612.63250631989
0.01880388089340914,94225.33736800951
0.019542040079740527,92649.85056488625
0.02030917620904734,90892.12399644416
0.021106426791015535,88961.14797698543
0.021934973989050584,86869.10496525535
0.02279604637318978,84629.84102786868
0.023690920741826323,82262.11194297312
0.02462092401494623,79786.31420689002
0.02558743520168586,77224.96091402961
0.02659188744512693,74604.16107396495
0.027635770147361564,71949.42739177901
0.028720631177978267,69291.97773278637
0.029848079169243254,66664.1216450632
0.03101978590138095,64093.38044197688
0.03223748878149028,61601.54569163485
0.0335029934197723,59207.42489470763
0.03481817630688963,56940.00582967458
0.03618498759642746,54834.99500542987
0.037605453996581675,52915.79319287845
0.03908168177536263,51179.99018736352
0.04061585988376978,49619.798731074
0.04221026320156896,48221.020686966665
0.04386725591048496,46966.8682405239
0.0455892949998106,45832.051010496274
0.047378933909631396,44786.44902416794
0.049238826317067365,43789.61925798591
0.05117173007114603,42797.25756210069
0.05318051128214196,41762.44394552236
0.05526814857144601,40632.72632935503
0.057437737488265785,39349.83040775001
0.0596924950997073,37869.70218952884
0.0620357647610427,36172.86803876719
0.06447102107323864,34273.018873168374
0.06700187503509585,32215.77706668366
0.06963207939763882,30069.451416619362
0.0723655342286965,27917.217980809946
0.07520629269592405,25846.62588512609
0.07815856707684081,23944.216192974196
0.08122673500479707,22283.546631417063
0.08441534596012978,20915.176095624844
0.0877291280161335,19851.958347679698
0.09117299484984914,19062.749550479384
0.09475205302806537,18476.027039127577
0.09847160957933764,17988.320378797045
0.1023371798632519,17479.22764516803
0.10635449574860109,16836.366525552687
0.11052951411260206,15988.717224081316
0.1148684256737553,14931.84743054284
0.1193776641714435,13730.511164355838
0.1240639159058831,12503.310934611814
0.12893412965257148,11391.365015910258
0.13399552696593373,10505.415020262522
0.1392556128874462,9879.137647472895
0.14472218707411338,9465.128680662861
0.15040335536380234,9154.897253646925
0.15630754179458153,8806.180530934678
0.16244350109588662,8312.94493590618
0.16882033167003618,7671.673089677347
0.17544748908334581,6970.181750487622
0.1823348000868439,6337.450651495529
0.189492477187382,5868.338378213969
0.19693113379074215,5558.413020049742
0.20466179993919872,5316.123091392843
0.21269593866686892,5027.956998369632
0.22104546299710207,4649.178819760065
0.22972275360711503,4233.324879429722
0.23874067718606454,3876.8388613240577
0.2481126055137766,3621.1719405706326
0.25785243528842716,3422.0362725709538
0.26797460873256895,3203.0318765577463
0.27849413500806414,2944.194095436732
0.28942661247167484,2695.1138787026207
0.3007882518043098,2498.9667210904026
0.31259590004822796,2338.6199535917867
0.324867065587837,2170.756681598906
0.3376199441111335,1993.3657203369933
0.35087344559027084,1837.0809298469662
0.36464722232127456,1706.7113778086284
0.37896169806447155,1580.1048186035716
0.3938380983288488,1453.2517191447437
0.4092984818452433,1340.4770598612204
0.4253657732750382,1240.107541819507
0.44206379720285277,1142.5634078761175
0.45941731346364734,1051.788238879506
0.47745205385661277,970.2846377470609
0.4961947603002895,893.4010834464062
0.5156732244854959,821.9905870898378
0.5359163290848509,756.8031229872732
0.556954090580013,696.1777844894991
0.5788177037701272,640.1117614844943
0.6015395880274836,588.3288416493747
0.6251534353689703,540.5448718144797
0.6496942604146115,496.4751946231595
0.6751984523072497,455.8450448854777
0.7017038286703824,418.398756055432
0.7292496916841444,383.898642303682
0.7578768863625915,352.1238167605121
0.7876278611187046,322.8698581471858
0.8185467307069019,295.94830251614405
0.850679341636415,271.1837936026012
0.8840733401525058,248.41305639663335
0.9187782428863317,227.48417627422083
0.9548455102782278,208.25586882529998
0.9923286228832539,190.5965239404269
1.0312831606721837,174.38387348995752
1.0717668854455022,159.50460459775792
1.1138398264826193,145.85376104618837
1.1575643695533022,133.334177457123
1.2030053494233226,121.85595460144924
1.2502301459914542,111.3359623599694
1.299308784200415,101.69735325793562
1.3503140378698726,92.86912109869078
1.4033215376054824,84.7856889797972
1.4584098829439835,77.38651905846207
1.5156607589006013,70.61572587249123
1.575159057091621,64.42176598233404
1.6369930016117014,58.75713768297123
1.7012542798525885,53.578082715300845
1.7680381784572046,48.84430798903769
1.8374437246107238,44.518719572513035
1.9095738328780953,40.56717993607551
1.9845354578058014,36.95829677972389
2.0624397525140905,33.6632143475877
2.143402233514853,30.655418324940932
2.227542951999554,27.91055414451854
2.314986671851158,25.406255892652496
2.405863054644063,23.121994461803
2.5003068519063225,21.038935056527336
2.598458104929248,19.13980320149706
2.7004623524206774,17.408760698371353
2.806470846309834,15.831287815505986
2.916640776023701,14.394077229972819
3.031135501567576,13.08494162805699
3.150124795755327,11.892723169914929
3.2737850959485697,10.807209520626579
3.4022997656780634,9.819056316926707
3.5358593665351745,8.919715337973056
3.6746619407366854,8.101369423065412
3.8189133047818515,7.356872181639332
3.968827354637162,6.679692209761352
4.1246263829013445,6.063861751306916
4.286541408420921,5.503928905748823
4.4548125188449825,4.994914319269495
4.629689226627261,4.532272234597109
4.811430839003257,4.111853813108031
5.000306842491082,3.7298733966640243
5.196597302486189,3.3828772231078035
5.400593278542364,3.0677139173121395
5.612597255954967,2.781510065235044
5.8329235942862,2.5216468033743786
6.06189899349756,2.285737756573206
6.29986297838068,2.0716088946260496
6.547168402004727,1.877281623394629
6.804181968927091,1.7009553988639756
7.071284778942991,1.5409900128719514
7.348872892180382,1.3958915833492163
7.637357916378006,1.2642998469471032
7.937167617217536,1.1449750664419625
8.248746552614573,1.0367832929762464
8.572556731909314,0.9386932659657043
8.909078300934132,0.8497690315074976
9.258810253973934,0.7691611093368856
9.622271173675122,0.6960988832113905
9.999999999999984,0.6298921835602441
