k [1/Mpc],P(k) [Mpc^3]
0.0001,91.93339728813879
0.00010392556829367125,95.26631540181413
0.00010800523745162529,98.72002455549982
0.00011224505680853065,102.29889657953643
0.00011665131316981963,106.00746123413276
0.00012123054013376525,109.8504127820589
0.00012598952777950273,113.8326155677599
0.00013093533273536104,117.95910891034121
0.00013607528864243335,122.23511203948
0.00014141701702890234,126.66603214492913
0.00014696843861124463,131.2574725983372
0.00015273778503907136,136.01523998922139
0.00015873361110102093,140.94534898971577
0.00016496480740980205,146.0540242506795
0.0001714406135851971,151.34771216578875
0.00017817063195457305,156.83309348814228
0.00018516484179121546,162.5170933528383
0.000192433614111598,168.40688578478057
0.00019998772705352857,174.50989742331464
0.0002078383818579757,180.83381872478492
0.00021599721947827182,187.38661495255633
0.0002244763378413224,194.17653472253858
0.0002332883097864157,201.2121212805494
0.00024244620170823283,208.50221987255128
0.0002519635929317015,216.05598867111064
0.0002618545958474233,223.88291130771816
0.0002721338768375308,231.99280511031594
0.0002828166780230032,240.39583529961493
0.0002939188398646886,249.10252267267043
0.0003054568246515432,258.1237534936027
0.00031744774091091926,267.4707989929967
0.00032990936877709396,277.15533312743844
0.00034286018635565856,287.18944449486963
0.00035631939712285854,297.58563630623985
0.000370306958400514,308.3568237564823
0.00038484361094874304,319.51636954360885
0.0003999509097203664,331.07810285780874
0.00041565125582259895,343.05633505720203
0.00043196792973341727,355.465870239961
0.0004489251258218605,368.3220059171329
0.0004665479882234472,381.64056264646484
0.000484862648123908,395.4378965037409
0.000503896262506515,409.7309133490022
0.0005236770544204653,424.53709215202406
0.0005442343548300266,439.87447743777443
0.0005655986461065005,455.7617119667319
0.0005878016072274912,472.2180572130411
0.0006108761607505036,489.2634010790092
0.0006348565216305217,506.9182905117455
0.0006597782479539537,525.2039179695529
0.0006856782936641739,544.1421484374943
0.0007125950633568407,563.7555583871986
0.0007405684692262436,584.0674438713904
0.0007696399902471156,605.1018516011218
0.0007998527336796708,626.883540266317
0.000831251498989063,649.4379834327602
0.0008638828442740447,672.7914501886816
0.000897795155303332,696.971015165624
0.0009330387172620361,722.0045884187675
0.0009696657893145519,747.9208883650754
0.001007730682094461,774.7494061729037
0.0010472898382363582,802.5204998882535
0.0010884019160690055,831.26535006969
0.0011311278765939214,861.015997785835
0.001175531073878369,891.8053535834872
0.0012216773489967915,923.6670840022341
0.0012696351276599736,956.6357468179082
0.0013194755216767058,990.7467584830463
0.0013712724343984,1026.0363926499406
0.0014251026703029975,1062.5418185148033
0.0014810460488806749,1100.3008790096796
0.0015391855229902056,1139.3522430512544
0.001599607301861487,1179.7353701702418
0.0016624009789266115,1221.4903994885894
0.0017276596646690358,1264.6583084997915
0.0017954801246878305,1309.2807481906534
0.0018659629231817451,1355.4000927084846
0.001939212572065829,1403.059372069033
0.0020153376859417325,1452.3019172314469
0.002094451143151469,1503.1716654774427
0.002176670253153458,1555.7129712880096
0.002262116930469025,1609.9705491505217
0.002350917875457286,1665.9895440455696
0.002443204762186487,1723.8150350191868
0.0025391144336803463,1783.4922923650508
0.002638789104828933,1845.0665923360793
0.002742376573264949,1908.5829353656786
0.0028500304385181063,1974.0862756650188
0.0029619103297725525,2041.6207901136543
0.0030781821425650787,2111.2300359203305
0.003199018284775064,2182.95692265634
0.0033245979322709396,2256.8430527818487
0.003455107294592217,2332.929144654842
0.0035907398910610534,2411.254268965146
0.0037316968377327513,2491.855678511287
0.0038781871456107214,2574.7689746182723
0.0040304280305680515,2660.0268173451614
0.00418864523543527,2747.6595461608417
0.004353073364731888,2837.694487879459
0.00452395623253805,2930.1552020573827
0.004701547224022131,3025.0620584920543
0.004886109671160325,3122.4300964839877
0.005077917243205399,3222.269589243477
0.005277254352483535,3324.5858461271037
0.005484416576121017,3429.3774283053513
0.005699711094326071,3536.6373432998594
0.005923457145875801,3646.349854765525
0.006155986501483508,3758.490272269385
0.006397643955748424,3873.0267778576736
0.0066487878384172625,3989.9192600404576
0.0069097905457156435,4109.119433294534
0.007181039092537346,4230.562004639151
0.007462935686310132,4354.159857262493
0.007755898323389004,4479.813647604231
0.00806036140886134,4607.411781347316
0.008376776400682916,4736.830193787044
0.008705612479099857,4867.929932483437
0.009047357242349292,5000.553662674103
0.00940251742967013,5134.528272935864
0.009771619672696168,5269.6511267764745
0.010155211276345676,5405.691614177145
0.010553861030365234,5542.3973997509365
0.010968160052731372,5679.482806113498
0.011398722666160517,5816.638529874119
0.011846187309026826,5953.523408506168
0.012311217482038896,6089.7603075596
0.012794502732078732,6224.946397739859
0.013296759674662111,6358.6344163626
0.013818733056536317,6490.344950701384
0.014361196859990781,6619.562070363396
0.014924955450518284,6745.717299495248
0.015510844769528393,6868.214614087254
0.016119733573881575,6986.407817089442
0.01675252472408214,7099.610388279913
0.017410156523040152,7207.106733803109
0.018093604107387147,7308.122745430561
0.01880388089340914,7401.863393258345
0.019542040079740527,7487.4972237808315
0.02030917620904734,7564.156455823189
0.021106426791015535,7630.969503116447
0.021934973989050584,7687.019495422921
0.02279604637318978,7731.390305363627
0.023690920741826323,7763.192964260707
0.02462092401494623,7781.569963911505
0.02558743520168586,7785.710685512811
0.02659188744512693,7774.738153958648
0.027635770147361564,7747.773767215418
0.028720631177978267,7704.185193584988
0.029848079169243254,7643.914113752152
0.03101978590138095,7567.088821035151
0.03223748878149028,7473.389788475644
0.0335029934197723,7362.052925487438
0.03481817630688963,7232.605417854295
0.03618498759642746,7085.45188838413
0.037605453996581675,6921.4061797427585
0.03908168177536263,6741.7793848088195
0.04061585988376978,6548.576341357492
0.04221026320156896,6343.8279925254465
0.04386725591048496,6129.129872231515
0.0455892949998106,5905.8514796367235
0.047378933909631396,5675.827140274341
0.049238826317067365,5441.728883688089
0.05117173007114603,5206.239553556579
0.05318051128214196,4972.327782620703
0.05526814857144601,4742.786195662201
0.057437737488265785,4520.367772671796
0.0596924950997073,4307.5068389198195
0.0620357647610427,4106.313135828534
0.06447102107323864,3918.453517249565
0.06700187503509585,3745.118495156028
0.06963207939763882,3586.9493800815967
0.0723655342286965,3444.0534709618155
0.07520629269592405,3315.8920234835896
0.07815856707684081,3201.2985080260273
0.08122673500479707,3098.4186519107197
0.08441534596012978,3004.637644189736
0.0877291280161335,2916.686246860591
0.09117299484984914,2830.7642456744343
0.09475205302806537,2742.877865595835
0.09847160957933764,2649.15047034519
0.1023371798632519,2546.3566807793645
0.10635449574860109,2432.3401563182097
0.11052951411260206,2306.402498259941
0.1148684256737553,2169.6247742789087
0.1193776641714435,2024.983768687125
0.1240639159058831,1877.2579005895493
0.12893412965257148,1732.4401265120957
0.13399552696593373,1597.1383275147475
0.1392556128874462,1477.3123362791744
0.14472218707411338,1376.8513288052256
0.15040335536380234,1297.4873902107722
0.15630754179458153,1238.352169566059
0.16244350109588662,1195.8182804796502
0.16882033167003618,1163.640953319517
0.17544748908334581,1133.6254848908377
0.1823348000868439,1097.0520660063755
0.189492477187382,1046.8607993624428
0.19693113379074215,980.2349839145476
0.20466179993919872,900.3362861570761
0.21269593866686892,815.63861505908
0.22104546299710207,736.9040342228271
0.22972275360711503,673.4534215752097
0.23874067718606454,630.047840913402
0.2481126055137766,604.8958618076368
0.25785243528842716,589.8121065575054
0.26797460873256895,573.0000980144457
0.27849413500806414,544.1579436424878
0.28942661247167484,500.5513462853511
0.3007882518043098,449.3395589495511
0.31259590004822796,402.96142560824694
0.324867065587837,371.002187961292
0.3376199441111335,354.2790643300279
0.35087344559027084,344.42164702975407
0.36464722232127456,329.19015248010845
0.37896169806447155,302.4194679720393
0.3938380983288488,270.0799485748327
0.4092984818452433,244.03711432399422
0.4253657732750382,229.88477644427365
0.44206379720285277,221.7668696590732
0.45941731346364734,209.02577531631673
0.47745205385661277,188.9356054946513
0.4961947603002895,169.73979804160476
0.5156732244854959,158.47121702125784
0.5359163290848509,151.39327622736255
0.556954090580013,140.40179091902112
0.5788177037701272,126.26066561482011
0.6015395880274836,116.05991690787683
0.6251534353689703,109.80128263452657
0.6496942604146115,101.57488547336513
0.6751984523072497,91.80664030444855
0.7017038286703824,85.11383554080038
0.7292496916841444,79.60415584430145
0.7578768863625915,72.4885905214969
0.7876278611187046,66.5134489641321
0.8185467307069019,61.28290509752886
0.850679341636415,56.44063455543822
0.8840733401525058,51.95813432627109
0.9187782428863317,47.80912299576283
0.9548455102782278,43.96934792310781
0.9923286228832539,40.41644139636768
1.0312831606721837,37.13067088180721
1.0717668854455022,34.094598450582225
1.1138398264826193,31.29166134276841
1.1575643695533022,28.70609508181433
1.2030053494233226,26.32293255748704
1.2502301459914542,24.12798470931273
1.299308784200415,22.10764869901059
1.3503140378698726,20.249003215433948
1.4033215376054824,18.539972821750375
1.4584098829439835,16.9692890318691
1.5156607589006013,15.526446501433755
1.575159057091621,14.201653914801458
1.6369930016117014,12.98574170123106
1.7012542798525885,11.870171077669779
1.7680381784572046,10.847033148784503
1.8374437246107238,9.909006551190872
1.9095738328780953,9.049317183313663
1.9845354578058014,8.26170271324065
2.0624397525140905,7.5403872096626
2.143402233514853,6.8800347782995495
2.227542951999554,6.275713216796766
2.314986671851158,5.722866098568552
2.405863054644063,5.217286533638951
2.5003068519063225,4.75509115590334
2.598458104929248,4.332693815908494
2.7004623524206774,3.9467894572004383
2.806470846309834,3.5943349073050217
2.916640776023701,3.272529395693266
3.031135501567576,2.9787963949616905
3.150124795755327,2.7107662700574227
3.2737850959485697,2.4662600755869426
3.4022997656780634,2.2432761695924195
3.5358593665351745,2.039976709352907
3.6746619407366854,1.8546749070319408
3.8189133047818515,1.6858232130111406
3.968827354637162,1.5320024796391174
4.1246263829013445,1.3919118458931183
4.286541408420921,1.2643591114973824
4.4548125188449825,1.1482520467845927
4.629689226627261,1.0425903784714858
4.811430839003257,0.9464583625475184
5.000306842491082,0.8590174156398575
5.196597302486189,0.7794999368461435
5.400593278542364,0.7072042192993475
5.612597255954967,0.6414890219655348
5.8329235942862,0.5817685289962551
6.06189899349756,0.5275077577635657
6.29986297838068,0.47821893210133193
6.547168402004727,0.4334571350886095
6.804181968927091,0.3928160543317136
7.071284778942991,0.355924750337898
7.348872892180382,0.322444699143595
7.637357916378006,0.29206687240278706
7.937167617217536,0.26450773202952754
8.248746552614573,0.23950842777139558
8.572556731909314,0.21683376352074468
8.909078300934132,0.19627004356631714
9.258810253973934,0.1776231045326397
9.622271173675122,0.16071718678579033
9.999999999999984,0.14539611624996066
