k [1/Mpc],P(k) [Mpc^3]
0.0001,7497.953817086679
0.00010392556829367125,7746.756282785078
0.00010800523745162529,8003.761092486225
0.00011224505680853065,8269.232515450343
0.00011665131316981963,8543.44271319644
0.00012123054013376525,8826.67189778805
0.00012598952777950273,9119.208658923813
0.00013093533273536104,9421.349348480251
0.00013607528864243335,9733.398808963819
0.00014141701702890234,10055.670631738136
0.00014696843861124463,10388.487067594022
0.00015273778503907136,10732.179612354823
0.00015873361110102093,11087.08805976565
0.00016496480740980205,11453.561038931224
0.0001714406135851971,11831.956551541187
0.00017817063195457305,12222.641178182334
0.00018516484179121546,12625.991183224072
0.000192433614111598,13042.391514950283
0.00019998772705352857,13472.235722826348
0.0002078383818579757,13915.927103485412
0.00021599721947827182,14373.877207189102
0.0002244763378413224,14846.507045757447
0.0002332883097864157,15334.24621573162
0.00024244620170823283,15837.53158148412
0.0002519635929317015,16356.809333704165
0.0002618545958474233,16892.53260413039
0.0002721338768375308,17445.16233706232
0.0002828166780230032,18015.167288843946
0.0002939188398646886,18603.020867033567
0.0003054568246515432,19209.204087029575
0.00031744774091091926,19834.204028162778
0.00032990936877709396,20478.51346917901
0.00034286018635565856,21142.63113885673
0.00035631939712285854,21827.055572645928
0.000370306958400514,22532.288808727557
0.00038484361094874304,23258.835608058478
0.0003999509097203664,24007.20124972671
0.00041565125582259895,24777.893546928128
0.00043196792973341727,25571.41719074006
0.0004489251258218605,26388.27513176248
0.0004665479882234472,27228.967555150954
0.000484862648123908,28093.985401354552
0.000503896262506515,28983.815252793655
0.0005236770544204653,29898.933218327114
0.0005442343548300266,30839.80376702829
0.0005655986461065005,31806.88098667431
0.0005878016072274912,32800.597280164664
0.0006108761607505036,33821.369258950515
0.0006348565216305217,34869.590243940416
0.0006597782479539537,35945.62314234568
0.0006856782936641739,37049.80762576513
0.0007125950633568407,38182.4429965462
0.0007405684692262436,39343.79306992698
0.0007696399902471156,40534.08323442439
0.0007998527336796708,41753.48458353278
0.000831251498989063,43002.1260908229
0.0008638828442740447,44280.079390580715
0.000897795155303332,45587.35700105133
0.0009330387172620361,46923.91757846424
0.0009696657893145519,48289.65194977867
0.001007730682094461,49684.38838031047
0.0010472898382363582,51107.86889469348
0.0010884019160690055,52559.73487185738
0.0011311278765939214,54039.54805193995
0.001175531073878369,55546.771676419296
0.0012216773489967915,57080.775601641115
0.0012696351276599736,58640.82843665006
0.0013194755216767058,60226.077468400596
0.0013712724343984,61835.5651641016
0.0014251026703029975,63468.2110392712
0.0014810460488806749,65122.81124833066
0.0015391855229902056,66798.04148206337
0.001599607301861487,68492.43394750544
0.0016624009789266115,70204.39214532169
0.0017276596646690358,71932.17706485259
0.0017954801246878305,73673.89942741935
0.0018659629231817451,75427.52893145935
0.001939212572065829,77190.84769643823
0.0020153376859417325,78961.47633511208
0.002094451143151469,80736.88540365691
0.002176670253153458,82514.38602793343
0.002262116930469025,84291.1386616066
0.002350917875457286,86064.07209608213
0.002443204762186487,87829.90708134201
0.0025391144336803463,89585.22051374265
0.002638789104828933,91326.45914404158
0.002742376573264949,93049.92764491632
0.0028500304385181063,94751.49916217415
0.0029619103297725525,96426.56261646075
0.0030781821425650787,98070.49459736068
0.003199018284775064,99679.51210732294
0.0033245979322709396,101250.12846314613
0.003455107294592217,102777.4316988433
0.0035907398910610534,104253.81922475895
0.0037316968377327513,105671.38771338016
0.0038781871456107214,107024.25382895384
0.0040304280305680515,108307.88825391169
0.00418864523543527,109517.02361473296
0.004353073364731888,110643.88712102498
0.00452395623253805,111680.22654242275
0.004701547224022131,112618.85011031765
0.004886109671160325,113453.74771991033
0.005077917243205399,114178.73810249628
0.005277254352483535,114785.66606155934
0.005484416576121017,115265.85240916113
0.005699711094326071,115610.38211138787
0.005923457145875801,115809.82890170514
0.006155986501483508,115855.05301312315
0.006397643955748424,115736.51624077681
0.0066487878384172625,115444.82607664085
0.0069097905457156435,114970.77237717106
0.007181039092537346,114304.29663699788
0.007462935686310132,113436.12493511074
0.007755898323389004,112356.25406335131
0.00806036140886134,111054.38323594107
0.008376776400682916,109521.51085852925
0.008705612479099857,107747.81515293996
0.009047357242349292,105725.27019955455
0.00940251742967013,103446.2371935368
0.009771619672696168,100902.62067616278
0.010155211276345676,98089.88822317493
0.010553861030365234,95003.44351600668
0.010968160052731372,91642.07846092059
0.011398722666160517,88007.10575042681
0.011846187309026826,84097.30548635147
0.012311217482038896,79919.50400009046
0.012794502732078732,75487.35650570976
0.013296759674662111,70822.79379264127
0.013818733056536317,65950.06526362085
0.014361196859990781,60869.013296087105
0.014924955450518284,55595.570352030205
0.015510844769528393,50197.81865485526
0.016119733573881575,44788.9409316796
0.01675252472408214,39450.90848088516
0.017410156523040152,34076.18405772
0.018093604107387147,28594.831673807086
0.01880388089340914,23241.69331113717
0.019542040079740527,18519.974870870003
0.02030917620904734,14616.815431928153
0.021106426791015535,10833.100406981639
0.021934973989050584,6794.557507161597
0.02279604637318978,3392.3273867218536
0.023690920741826323,1519.721410584255
0.02462092401494623,721.8327483158706
0.02558743520168586,444.78377673364093
0.02659188744512693,455.28284286191075
0.027635770147361564,927.0007524178712
0.028720631177978267,2700.1974642443834
0.029848079169243254,6492.955396451556
0.03101978590138095,10087.789845365047
0.03223748878149028,12786.18159589799
0.0335029934197723,16243.161398073
0.03481817630688963,20310.114428722783
0.03618498759642746,23802.985215592922
0.037605453996581675,26434.13270438948
0.03908168177536263,28368.36802198243
0.04061585988376978,29358.423583838103
0.04221026320156896,29167.43844002657
0.04386725591048496,27790.69381325766
0.0455892949998106,25329.087633326722
0.047378933909631396,21963.495491539692
0.049238826317067365,17938.013100139575
0.05117173007114603,13746.925385653132
0.05318051128214196,9684.974996170035
0.05526814857144601,5927.421281593545
0.057437737488265785,3471.736771481456
0.0596924950997073,1300.3428888814758
0.0620357647610427,211.47568250158747
0.06447102107323864,65.84246391164604
0.06700187503509585,103.36699680024815
0.06963207939763882,413.1034650673166
0.0723655342286965,616.3538476242541
0.07520629269592405,409.22786613896136
0.07815856707684081,579.4673296808882
0.08122673500479707,3.7926877406618424
0.08441534596012978,1.9632628873048408
0.0877291280161335,564.0812978673483
0.09117299484984914,753.4306827058381
0.09475205302806537,1518.0224654692604
0.09847160957933764,1801.9286684962321
0.1023371798632519,1746.3730481086093
0.10635449574860109,1266.1973202432553
0.11052951411260206,588.1388277302227
0.1148684256737553,340.2539683162992
0.1193776641714435,0.1287236723951209
0.1240639159058831,99.72642876146763
0.12893412965257148,120.2117180654707
0.13399552696593373,97.20500974234523
0.1392556128874462,1.9473976762750955
0.14472218707411338,58.23862650406819
0.15040335536380234,252.9405748937302
0.15630754179458153,413.87733674277615
0.16244350109588662,361.8762344460424
0.16882033167003618,155.44838053442984
0.17544748908334581,11.887839114752373
0.1823348000868439,7.991966352203322
0.189492477187382,27.71144466157459
0.19693113379074215,2.866311152197623
0.20466179993919872,30.85528579022039
0.21269593866686892,108.23939653033177
0.22104546299710207,116.72444774771029
0.22972275360711503,39.03459849635085
0.23874067718606454,0.24423118416138362
0.2481126055137766,4.779723038775928
0.25785243528842716,0.1760405590250612
0.26797460873256895,21.82158261528168
0.27849413500806414,44.363165969296865
0.28942661247167484,17.420159326843418
0.3007882518043098,0.1270355824859738
0.31259590004822796,0.25144333364446947
0.324867065587837,4.4066255881751895
0.3376199441111335,17.124216555235392
0.35087344559027084,7.094902646033877
0.36464722232127456,0.08347436417016688
0.37896169806447155,0.42429050985453287
0.3938380983288488,6.152491212851749
0.4092984818452433,4.34058611885419
0.4253657732750382,0.5563235810523453
0.44206379720285277,0.19233644074147502
0.45941731346364734,0.171691220900541
0.47745205385661277,0.27201329245687217
0.4961947603002895,0.5257639521869456
0.5156732244854959,0.8633729573204928
0.5359163290848509,1.0563304130931765
0.556954090580013,1.0293461536120638
0.5788177037701272,0.8594940609800142
0.6015395880274836,0.6616122507215989
0.6251534353689703,0.5051296629044427
0.6496942604146115,0.4090285348112237
0.6751984523072497,0.35509056882222473
0.7017038286703824,0.3240771581664591
0.7292496916841444,0.3048186843584757
0.7578768863625915,0.2896534795321011
0.7876278611187046,0.2725963546984863
0.8185467307069019,0.24991197842127755
0.850679341636415,0.2234840805458445
0.8840733401525058,0.19634566697763398
0.9187782428863317,0.1707008056087479
0.9548455102782278,0.1479154880427366
0.9923286228832539,0.12867065360513325
1.0312831606721837,0.11294975172991528
1.0717668854455022,0.09994078996127322
1.1138398264826193,0.08892559187772804
1.1575643695533022,0.07938016659377786
1.2030053494233226,0.07092074159006719
1.2502301459914542,0.06326871374028781
1.299308784200415,0.05628110235493473
1.3503140378698726,0.04994723076126672
1.4033215376054824,0.0442532131708635
1.4584098829439835,0.03917167363342049
1.5156607589006013,0.034665918691364254
1.575159057091621,0.030693099255261407
1.6369930016117014,0.02719694179238198
1.7012542798525885,0.02411401972852199
1.7680381784572046,0.02138976961838403
1.8374437246107238,0.01897781898179889
1.9095738328780953,0.0168386369470655
1.9845354578058014,0.014938552931248966
2.0624397525140905,0.013250352577984181
2.143402233514853,0.011751209993793291
2.227542951999554,0.010420630659325364
2.314986671851158,0.00924020695754311
2.405863054644063,0.008193428866681332
2.5003068519063225,0.007265476070178354
2.598458104929248,0.006442876283942605
2.7004623524206774,0.005713582671487339
2.806470846309834,0.005066941434135424
2.916640776023701,0.004493528864864327
3.031135501567576,0.00398500716404561
3.150124795755327,0.00353400431411856
3.2737850959485697,0.0031340203622061582
3.4022997656780634,0.0027792961009963564
3.5358593665351745,0.002464719974514176
3.6746619407366854,0.0021857556503731934
3.8189133047818515,0.0019383776274627621
3.968827354637162,0.0017190109578411397
4.1246263829013445,0.0015244773534897967
4.286541408420921,0.0013519593059236222
4.4548125188449825,0.0011989603103763878
4.629689226627261,0.0010632680732912223
4.811430839003257,0.0009429219924182127
5.000306842491082,0.0008361859166476937
5.196597302486189,0.0007415227573311407
5.400593278542364,0.0006575689019084109
5.612597255954967,0.0005831144314358105
5.8329235942862,0.0005170858460080365
6.06189899349756,0.0004585307039041645
6.29986297838068,0.00040660354450408213
6.547168402004727,0.0003605540375578362
6.804181968927091,0.00031971683292144167
7.071284778942991,0.0002835019486756278
7.348872892180382,0.00025138622299851455
7.637357916378006,0.0002229057219870219
7.937167617217536,0.00019764887662873643
8.248746552614573,0.0001752506715102296
8.572556731909314,0.00015538748993175136
8.909078300934132,0.00013777240673476133
9.258810253973934,0.0001221510164525716
9.622271173675122,0.00010829781578419142
9.999999999999984,9.601329227421151e-05
