k [1/Mpc],P(k) [Mpc^3]
0.0001,192.22241564973086
0.00010392556829367125,199.76752163696148
0.00010800523745162529,207.60872389261147
0.00011224505680853065,215.75763130569595
0.00011665131316981963,224.22631215033425
0.00012123054013376525,233.02731371294024
0.00012598952777950273,242.17367408972413
0.00013093533273536104,251.67893004754848
0.00013607528864243335,261.557142693913
0.00014141701702890234,271.8229286071474
0.00014696843861124463,282.4914882854246
0.00015273778503907136,293.57861802966113
0.00015873361110102093,305.10071446558146
0.00016496480740980205,317.0748019146969
0.0001714406135851971,329.51857277740515
0.00017817063195457305,342.45042574411804
0.00018516484179121546,355.8894820155607
0.000192433614111598,369.85560700780997
0.00019998772705352857,384.3694386110299
0.0002078383818579757,399.4524179580255
0.00021599721947827182,415.1268081006674
0.0002244763378413224,431.4157336882459
0.0002332883097864157,448.34321659522016
0.00024244620170823283,465.93420825017836
0.0002519635929317015,484.2146306954976
0.0002618545958474233,503.2114300257851
0.0002721338768375308,522.9526112333788
0.0002828166780230032,543.4672519154342
0.0002939188398646886,564.7855049538668
0.0003054568246515432,586.938678790567
0.00031744774091091926,609.959305203332
0.00032990936877709396,633.88118757911
0.00034286018635565856,658.7394344660233
0.00035631939712285854,684.5704994848172
0.000370306958400514,711.4122384782252
0.00038484361094874304,739.3039356621875
0.0003999509097203664,768.2863352492918
0.00041565125582259895,798.4017375135443
0.00043196792973341727,829.6940723484918
0.0004489251258218605,862.2089560923695
0.0004665479882234472,895.9937299162424
0.000484862648123908,931.0974903208478
0.000503896262506515,967.5711877978885
0.0005236770544204653,1005.467648792948
0.0005442343548300266,1044.8416439231169
0.0005655986461065005,1085.7500081187984
0.0005878016072274912,1128.2517391767115
0.0006108761607505036,1172.4080580831178
0.0006348565216305217,1218.2823873458117
0.0006597782479539537,1265.9403748208463
0.0006856782936641739,1315.4500924227277
0.0007125950633568407,1366.882171642752
0.0007405684692262436,1420.3098754721323
0.0007696399902471156,1475.80908435884
0.0007998527336796708,1533.4582548879598
0.000831251498989063,1593.338658551758
0.0008638828442740447,1655.5344398059667
0.000897795155303332,1720.1327173998707
0.0009330387172620361,1787.2236975541298
0.0009696657893145519,1856.9006700858026
0.001007730682094461,1929.260191778607
0.0010472898382363582,2004.4021476532719
0.0010884019160690055,2082.429823853685
0.0011311278765939214,2163.450036221024
0.001175531073878369,2247.5728626847567
0.0012216773489967915,2334.911931768565
0.0012696351276599736,2425.584623074721
0.0013194755216767058,2519.712082818988
0.0013712724343984,2617.419415592568
0.0014251026703029975,2718.835431379791
0.0014810460488806749,2824.092802633268
0.0015391855229902056,2933.328260692661
0.001599607301861487,3046.6822688869024
0.0016624009789266115,3164.2994616649917
0.0017276596646690358,3286.3284835601544
0.0017954801246878305,3412.9219539088826
0.0018659629231817451,3544.236763842038
0.001939212572065829,3680.433392228862
0.0020153376859417325,3821.6763849919516
0.002094451143151469,3968.1343872777716
0.002176670253153458,4119.979833745627
0.002262116930469025,4277.389371814521
0.002350917875457286,4440.542939442575
0.002443204762186487,4609.623993224811
0.0025391144336803463,4784.819683749682
0.002638789104828933,4966.319823753809
0.002742376573264949,5154.3177126593655
0.0028500304385181063,5349.009376483459
0.0029619103297725525,5550.593279094155
0.0030781821425650787,5759.270680355067
0.003199018284775064,5975.243725710208
0.0033245979322709396,6198.716353478585
0.003455107294592217,6429.893600768156
0.0035907398910610534,6668.980354528986
0.0037316968377327513,6916.182361616997
0.0038781871456107214,7171.703648949382
0.0040304280305680515,7435.746893048921
0.00418864523543527,7708.513128519767
0.004353073364731888,7990.198779006182
0.00452395623253805,8280.997475478123
0.004701547224022131,8581.096941875745
0.004886109671160325,8890.678060485432
0.005077917243205399,9209.915593289414
0.005277254352483535,9538.972528363824
0.005484416576121017,9878.002556400761
0.005699711094326071,10227.14701223872
0.005923457145875801,10586.531213945573
0.006155986501483508,10956.266982980209
0.006397643955748424,11336.44222063765
0.0066487878384172625,11727.123345752596
0.0069097905457156435,12128.357973639333
0.007181039092537346,12540.171927705733
0.007462935686310132,12962.567853442952
0.007755898323389004,13395.494322101385
0.00806036140886134,13838.844324196649
0.008376776400682916,14292.476116004944
0.008705612479099857,14756.211310522796
0.009047357242349292,15229.833289370239
0.00940251742967013,15713.075879361502
0.009771619672696168,16205.616278628147
0.010155211276345676,16707.078437079854
0.010553861030365234,17216.99102118963
0.010968160052731372,17734.804290845525
0.011398722666160517,18259.891284808
0.011846187309026826,18791.522919587755
0.012311217482038896,19328.891676975738
0.012794502732078732,19871.074529814785
0.013296759674662111,20417.036640662984
0.013818733056536317,20965.64365912567
0.014361196859990781,21515.61333811112
0.014924955450518284,22065.555494424458
0.015510844769528393,22613.93217009584
0.016119733573881575,23159.039446641706
0.01675252472408214,23699.05743546836
0.017410156523040152,24231.98218828143
0.018093604107387147,24755.67378811159
0.01880388089340914,25267.84498793062
0.019542040079740527,25766.010382551685
0.02030917620904734,26247.5765324187
0.021106426791015535,26709.78065539106
0.021934973989050584,27149.72821465952
0.02279604637318978,27564.431944181368
0.023690920741826323,27950.735561015183
0.02462092401494623,28305.4367863634
0.02558743520168586,28625.34612443552
0.02659188744512693,28907.31771379262
0.027635770147361564,29148.220548662186
0.028720631177978267,29344.681256829343
0.029848079169243254,29493.339399870816
0.03101978590138095,29591.714858999807
0.03223748878149028,29638.83228045644
0.0335029934197723,29633.937233755052
0.03481817630688963,29574.63285718896
0.03618498759642746,29457.656394975114
0.037605453996581675,29280.869235953265
0.03908168177536263,29044.855067355915
0.04061585988376978,28751.06518755072
0.04221026320156896,28402.704489378215
0.04386725591048496,28004.61743625627
0.0455892949998106,27561.623657536038
0.047378933909631396,27077.57536835227
0.049238826317067365,26556.122049620557
0.05117173007114603,26002.682206685044
0.05318051128214196,25424.54639139375
0.05526814857144601,24829.361459501717
0.057437737488265785,24225.72450220063
0.0596924950997073,23621.91181089468
0.0620357647610427,23025.906413865407
0.06447102107323864,22444.791590349818
0.06700187503509585,21884.40301863405
0.06963207939763882,21349.12879281629
0.0723655342286965,20841.677635886557
0.07520629269592405,20362.552455571233
0.07815856707684081,19910.24752071322
0.08122673500479707,19480.81017021193
0.08441534596012978,19067.830432226445
0.0877291280161335,18662.52990678986
0.09117299484984914,18253.896844699284
0.09475205302806537,17829.44590371181
0.09847160957933764,17376.485597862455
0.1023371798632519,16883.763004382705
0.10635449574860109,16343.185571297825
0.11052951411260206,15751.629201039059
0.1148684256737553,15111.880263965499
0.1193776641714435,14433.144659879705
0.1240639159058831,13730.915177935942
0.12893412965257148,13026.159359025256
0.13399552696593373,12342.9475208133
0.1392556128874462,11705.771287131101
0.14472218707411338,11134.964566615054
0.15040335536380234,10643.003530878417
0.15630754179458153,10230.75772105055
0.16244350109588662,9888.657522757803
0.16882033167003618,9594.145005885533
0.17544748908334581,9313.303522265129
0.1823348000868439,9010.225329889567
0.189492477187382,8655.005726871996
0.19693113379074215,8233.134837699146
0.20466179993919872,7752.353184381542
0.21269593866686892,7243.4298295043245
0.22104546299710207,6751.595941652466
0.22972275360711503,6320.410754922711
0.23874067718606454,5975.584706481922
0.2481126055137766,5715.8026694735945
0.25785243528842716,5511.055538755008
0.26797460873256895,5311.270155937879
0.27849413500806414,5068.8427888740525
0.28942661247167484,4764.406569235961
0.3007882518043098,4419.301536271807
0.31259590004822796,4085.396104999977
0.324867065587837,3812.8985065125003
0.3376199441111335,3617.4934309779255
0.35087344559027084,3468.828297667094
0.36464722232127456,3310.5704435855127
0.37896169806447155,3104.7406207770964
0.3938380983288488,2865.3641195733967
0.4092984818452433,2645.578048738368
0.4253657732750382,2483.6598919928597
0.44206379720285277,2364.6210495363985
0.45941731346364734,2237.8142056915303
0.47745205385661277,2077.4042184591804
0.4961947603002895,1912.82687210658
0.5156732244854959,1784.764226073786
0.5359163290848509,1687.742785963454
0.556954090580013,1582.8805005508032
0.5788177037701272,1460.7771334637468
0.6015395880274836,1352.410039459001
0.6251534353689703,1269.9303402676242
0.6496942604146115,1187.3814304439416
0.6751984523072497,1095.598738695855
0.7017038286703824,1016.6987605032103
0.7292496916841444,950.8890864594322
0.7578768863625915,880.8400725718469
0.7876278611187046,814.3668167111329
0.8185467307069019,758.3795499798181
0.850679341636415,702.5731476568342
0.8840733401525058,650.1466624817882
0.9187782428863317,601.813556280611
0.9548455102782278,557.0951619931884
0.9923286228832539,515.5841436668326
1.0312831606721837,476.9341456947247
1.0717668854455022,440.8744390461061
1.1138398264826193,407.26347993456943
1.1575643695533022,375.98653264810827
1.2030053494233226,346.9266115327029
1.2502301459914542,319.96588251134915
1.299308784200415,294.98680357886076
1.3503140378698726,271.8655959704022
1.4033215376054824,250.46965012780643
1.4584098829439835,230.67416255667888
1.5156607589006013,212.36335394997388
1.575159057091621,195.42979286807773
1.6369930016117014,179.7738919631276
1.7012542798525885,165.30537745480518
1.7680381784572046,151.94173174165434
1.8374437246107238,139.60543031183212
1.9095738328780953,128.22364565567503
1.9845354578058014,117.72804137437798
2.0624397525140905,108.05449146737573
2.143402233514853,99.14247147306828
2.227542951999554,90.93531868367062
2.314986671851158,83.38027022786353
2.405863054644063,76.4282252206302
2.5003068519063225,70.03351764108102
2.598458104929248,64.15371682321653
2.7004623524206774,58.74944835510981
2.806470846309834,53.78414775222922
2.916640776023701,49.22387029514618
3.031135501567576,45.0371222289317
3.150124795755327,41.194700598211966
3.2737850959485697,37.66952303157598
3.4022997656780634,34.43648498689843
3.5358593665351745,31.472357703452566
3.6746619407366854,28.755661009941107
3.8189133047818515,26.26654131478766
3.968827354637162,23.986657553750184
4.1246263829013445,21.899077999527545
4.286541408420921,19.988176787426205
4.4548125188449825,18.23953642600048
4.629689226627261,16.63986044994079
4.811430839003257,15.17689185363862
5.000306842491082,13.83933382236051
5.196597302486189,12.616767586758021
5.400593278542364,11.499601812736055
5.612597255954967,10.479015765818373
5.8329235942862,9.546900272539697
6.06189899349756,8.695802950522953
6.29986297838068,7.918883923292361
6.547168402004727,7.209874140629543
6.804181968927091,6.563014637706006
7.071284778942991,5.973015044404341
7.348872892180382,5.435017592899786
7.637357916378006,4.944562720410852
7.937167617217536,4.497533735861762
8.248746552614573,4.09013611866503
8.572556731909314,3.7189035881070307
8.909078300934132,3.380671230178078
9.258810253973934,3.07254923006311
9.622271173675122,2.7919068821260202
9.999999999999984,2.5364089799984644
