k [1/Mpc],P(k) [Mpc^3]
0.0001,140.91718604065545
0.00010392556829367125,147.29617216766198
0.00010800523745162529,153.96383665048327
0.00011224505680853065,160.93322626706146
0.00011665131316981963,168.2179728372118
0.00012123054013376525,175.83232723731848
0.00012598952777950273,183.79118999640627
0.00013093533273536104,192.110134374633
0.00013607528864243335,200.80543234520994
0.00014141701702890234,209.8940876641205
0.00014696843861124463,219.39386865115523
0.00015273778503907136,229.32333937823068
0.00015873361110102093,239.7018986323336
0.00016496480740980205,250.54981369064686
0.0001714406135851971,261.8882592996026
0.00017817063195457305,273.73936439668205
0.00018516484179121546,286.1262653487883
0.000192433614111598,299.07314283711963
0.00019998772705352857,312.60524427596897
0.0002078383818579757,326.7489193942475
0.00021599721947827182,341.5316969368644
0.0002244763378413224,356.9823617067074
0.0002332883097864157,373.1310006801013
0.00024244620170823283,390.00903421332987
0.0002519635929317015,407.64924994922
0.0002618545958474233,426.0858917265943
0.0002721338768375308,445.3547323049203
0.0002828166780230032,465.49314054965504
0.0002939188398646886,486.54014278531093
0.0003054568246515432,508.5364733038826
0.00031744774091091926,531.5246654661102
0.00032990936877709396,555.5491306832384
0.00034286018635565856,580.6562367230129
0.00035631939712285854,606.8943928549915
0.000370306958400514,634.3140872642032
0.00038484361094874304,662.9679985516177
0.0003999509097203664,692.9111206151872
0.00041565125582259895,724.2008719301467
0.00043196792973341727,756.8971829724595
0.0004489251258218605,791.0625227787405
0.0004665479882234472,826.7620088487438
0.000484862648123908,864.0635688390504
0.000503896262506515,903.0380305329866
0.0005236770544204653,943.7592634498853
0.0005442343548300266,986.3042829995305
0.0005655986461065005,1030.7533630323446
0.0005878016072274912,1077.1901858666515
0.0006108761607505036,1125.7018477786635
0.0006348565216305217,1176.379054224261
0.0006597782479539537,1229.3163313151222
0.0006856782936641739,1284.6121824854001
0.0007125950633568407,1342.3692257967332
0.0007405684692262436,1402.6941265469814
0.0007696399902471156,1465.6977606641237
0.0007998527336796708,1531.4955334616682
0.000831251498989063,1600.2075184361242
0.0008638828442740447,1671.9586543175571
0.000897795155303332,1746.8787694182229
0.0009330387172620361,1825.1026667973608
0.0009696657893145519,1906.7704414746268
0.001007730682094461,1992.027316239045
0.0010472898382363582,2081.0239705063414
0.0010884019160690055,2173.9168475782076
0.0011311278765939214,2270.868271740086
0.001175531073878369,2372.0466719973224
0.0012216773489967915,2477.626062156538
0.0012696351276599736,2587.7862283298264
0.0013194755216767058,2702.7133724884393
0.0013712724343984,2822.6001170024892
0.0014251026703029975,2947.6457917106322
0.0014810460488806749,3078.055883373549
0.0015391855229902056,3214.0417440968113
0.001599607301861487,3355.8215574406286
0.0016624009789266115,3503.6203463216398
0.0017276596646690358,3657.670171294195
0.0017954801246878305,3818.2096062713676
0.0018659629231817451,3985.4826805943417
0.001939212572065829,4159.7401196842375
0.0020153376859417325,4341.238784858658
0.002094451143151469,4530.24170115762
0.002176670253153458,4727.018277012837
0.002262116930469025,4931.843015556436
0.002350917875457286,5144.996317504413
0.002443204762186487,5366.763374134192
0.0025391144336803463,5597.433241207328
0.002638789104828933,5837.299907215301
0.002742376573264949,6086.66043134842
0.0028500304385181063,6345.815346156388
0.0029619103297725525,6615.067848560449
0.0030781821425650787,6894.7214269790165
0.003199018284775064,7185.0813246037505
0.0033245979322709396,7486.451578183138
0.003455107294592217,7799.134444093757
0.0035907398910610534,8123.430561653243
0.0037316968377327513,8459.634309725228
0.0038781871456107214,8808.035643830568
0.0040304280305680515,9168.916857850361
0.00418864523543527,9542.549614277474
0.004353073364731888,9929.19644938778
0.00452395623253805,10329.102587399664
0.004701547224022131,10742.497424653855
0.004886109671160325,11169.59238945062
0.005077917243205399,11610.57333092107
0.005277254352483535,12065.604301727497
0.005484416576121017,12534.813807138664
0.005699711094326071,13018.293046546083
0.005923457145875801,13516.102037992889
0.006155986501483508,14028.264728353182
0.006397643955748424,14554.767547518213
0.0066487878384172625,15095.519873197456
0.0069097905457156435,15650.3308960611
0.007181039092537346,16218.94812034442
0.007462935686310132,16801.055620775434
0.007755898323389004,17396.271276282354
0.00806036140886134,18004.13718476206
0.008376776400682916,18624.105847519706
0.008705612479099857,19255.544519683433
0.009047357242349292,19897.665599070588
0.00940251742967013,20549.527657891784
0.009771619672696168,21210.065894713818
0.010155211276345676,21878.03451151818
0.010553861030365234,22552.046819527655
0.010968160052731372,23230.536118820586
0.011398722666160517,23911.727919270863
0.011846187309026826,24593.687352600766
0.012311217482038896,25274.22427812506
0.012794502732078732,25950.94372999848
0.013296759674662111,26621.227636785603
0.013818733056536317,27282.138905696287
0.014361196859990781,27930.54779696034
0.014924955450518284,28563.017930130216
0.015510844769528393,29175.8388746308
0.016119733573881575,29765.097493772726
0.01675252472408214,30326.506719384917
0.017410156523040152,30855.600876111537
0.018093604107387147,31347.656221618872
0.01880388089340914,31797.658859845455
0.019542040079740527,32200.53036557836
0.02030917620904734,32550.942814280632
0.021106426791015535,32843.52991860473
0.021934973989050584,33072.922622555474
0.02279604637318978,33233.60637236722
0.023690920741826323,33320.34216671602
0.02462092401494623,33328.30783315669
0.02558743520168586,33253.204631387496
0.02659188744512693,33091.08966179234
0.027635770147361564,32837.62266177575
0.028720631177978267,32489.130017462838
0.029848079169243254,32045.292213532477
0.03101978590138095,31509.808312565478
0.03223748878149028,30886.458771363894
0.0335029934197723,30173.010788456217
0.03481817630688963,29365.688697279205
0.03618498759642746,28467.631916268412
0.037605453996581675,27494.347590723457
0.03908168177536263,26462.179502064842
0.04061585988376978,25381.368626882067
0.04221026320156896,24258.10133792475
0.04386725591048496,23102.060136072905
0.0455892949998106,21930.87574663042
0.047378933909631396,20761.98627927388
0.049238826317067365,19612.924611609298
0.05117173007114603,18499.50226520043
0.05318051128214196,17437.308024056707
0.05526814857144601,16439.885337320437
0.057437737488265785,15518.59582849172
0.0596924950997073,14682.125991198152
0.0620357647610427,13936.627548612452
0.06447102107323864,13285.262078167998
0.06700187503509585,12728.282761016788
0.06963207939763882,12262.458844263785
0.0723655342286965,11881.143172087537
0.07520629269592405,11573.527648610707
0.07815856707684081,11323.99340926352
0.08122673500479707,11112.55522869113
0.08441534596012978,10915.164517094048
0.0877291280161335,10705.337622621519
0.09117299484984914,10456.386948856372
0.09475205302806537,10144.339071355855
0.09847160957933764,9750.986942519889
0.1023371798632519,9267.135183553368
0.10635449574860109,8696.118552825206
0.11052951411260206,8055.299488077298
0.1148684256737553,7374.154056384184
0.1193776641714435,6691.176612561893
0.1240639159058831,6049.191195771426
0.12893412965257148,5487.23292791708
0.13399552696593373,5034.60806247615
0.1392556128874462,4707.1218525311515
0.14472218707411338,4505.066532750695
0.15040335536380234,4411.894438857212
0.15630754179458153,4393.532201539927
0.16244350109588662,4399.736922425301
0.16882033167003618,4370.408736929535
0.17544748908334581,4250.023711578737
0.1823348000868439,4008.481458137066
0.189492477187382,3657.5794834752282
0.19693113379074215,3249.0189725719842
0.20466179993919872,2855.2253952868186
0.21269593866686892,2543.38797438189
0.22104546299710207,2353.025172791058
0.22972275360711503,2283.720695300856
0.23874067718606454,2294.7954011711627
0.2481126055137766,2312.925975755552
0.25785243528842716,2257.651494979199
0.26797460873256895,2089.208778395003
0.27849413500806414,1841.0500792793741
0.28942661247167484,1598.5930725985188
0.3007882518043098,1438.8503974903933
0.31259590004822796,1384.2692430784393
0.324867065587837,1393.401977310704
0.3376199441111335,1381.6460692072653
0.35087344559027084,1285.2243515179507
0.36464722232127456,1125.4558673781817
0.37896169806447155,986.5801508613705
0.3938380983288488,925.6143913295883
0.4092984818452433,921.2960232559204
0.4253657732750382,897.8607509281718
0.44206379720285277,812.0092871271767
0.45941731346364734,710.4088572558605
0.47745205385661277,657.8110914846334
0.4961947603002895,646.5496516207851
0.5156732244854959,614.8549646632989
0.5359163290848509,546.8037959207742
0.556954090580013,494.40332828484736
0.5788177037701272,476.80237908224495
0.6015395880274836,451.2604701844594
0.6251534353689703,403.9081932055794
0.6496942604146115,372.3101170914871
0.6751984523072497,356.13486732607544
0.7017038286703824,326.5582763629349
0.7292496916841444,294.59757691965933
0.7578768863625915,269.5260287962867
0.7876278611187046,249.5313556895766
0.8185467307069019,232.74974821125573
0.850679341636415,217.76084949747417
0.8840733401525058,203.46218417478744
0.9187782428863317,189.2076376817089
0.9548455102782278,175.18421880966926
0.9923286228832539,161.68259833864485
1.0312831606721837,148.9203972202734
1.0717668854455022,137.04977415766714
1.1138398264826193,126.16433780683434
1.1575643695533022,116.2371651446606
1.2030053494233226,107.15078044801452
1.2502301459914542,98.80111359873459
1.299308784200415,91.10007876030643
1.3503140378698726,83.9731253211364
1.4033215376054824,77.36030949640765
1.4584098829439835,71.22777199734416
1.5156607589006013,65.54961075907387
1.575159057091621,60.29993650051667
1.6369930016117014,55.453116287225
1.7012542798525885,50.983970270674384
1.7680381784572046,46.86639109976983
1.8374437246107238,43.072956659446774
1.9095738328780953,39.578154907159174
1.9845354578058014,36.358542779120235
2.0624397525140905,33.39256922668076
2.143402233514853,30.660460752965548
2.227542951999554,28.144468321592885
2.314986671851158,25.828385144465535
2.405863054644063,23.697124743573895
2.5003068519063225,21.736650077089248
2.598458104929248,19.933910025657127
2.7004623524206774,18.27674201500827
2.806470846309834,16.753764134178873
2.916640776023701,15.354433204204568
3.031135501567576,14.069005799829776
3.150124795755327,12.888480067948938
3.2737850959485697,11.80454239705467
3.4022997656780634,10.80953205906348
3.5358593665351745,9.896386921832686
3.6746619407366854,9.058582610523187
3.8189133047818515,8.29009326054959
3.968827354637162,7.5853555464175155
4.1246263829013445,6.939233240617236
4.286541408420921,6.346979982649988
4.4548125188449825,5.804218844492114
4.629689226627261,5.306917574095004
4.811430839003257,4.851362482073548
5.000306842491082,4.434134222246071
5.196597302486189,4.052085856296836
5.400593278542364,3.702322036011129
5.612597255954967,3.3821787643412704
5.8329235942862,3.0892055159330583
6.06189899349756,2.8211487459842406
6.29986297838068,2.5759368567322167
6.547168402004727,2.3516676067622546
6.804181968927091,2.1465933697056605
7.071284778942991,1.9591080135097445
7.348872892180382,1.7877358838825694
7.637357916378006,1.6311215958036314
7.937167617217536,1.488016959812998
8.248746552614573,1.357269094461502
8.572556731909314,1.2378219003018194
8.909078300934132,1.1287092257007947
9.258810253973934,1.0290471766834446
9.622271173675122,0.938028211718645
9.999999999999984,0.8549295397614266
