k [1/Mpc],P(k) [Mpc^3]
0.0001,159.66360677690807
0.00010392556829367125,166.41035448055237
0.00010800523745162529,173.4421190925946
0.00011224505680853065,180.770935564384
0.00011665131316981963,188.4093457251594
0.00012123054013376525,196.37041854713277
0.00012598952777950273,204.6677734474592
0.00013093533273536104,213.31559966642774
0.00013607528864243335,222.3286812331755
0.00014141701702890234,231.72242471214156
0.00014696843861124463,241.5128861454265
0.00015273778503907136,251.71679757374685
0.00015873361110102093,262.35159605551854
0.00016496480740980205,273.43545330322564
0.0001714406135851971,284.98730329892663
0.00017817063195457305,297.02686489882103
0.00018516484179121546,309.5746816922417
0.000192433614111598,322.65216635389436
0.00019998772705352857,336.2816404193422
0.0002078383818579757,350.48636088393727
0.00021599721947827182,365.29053679182454
0.0002244763378413224,380.71938012105613
0.0002332883097864157,396.7991606153229
0.00024244620170823283,413.55725381706236
0.0002519635929317015,431.02218056215196
0.0002618545958474233,449.2236453995292
0.0002721338768375308,468.1925877995685
0.0002828166780230032,487.9612311139387
0.0002939188398646886,508.5631205504945
0.0003054568246515432,530.033192715137
0.00031744774091091926,552.4078413495814
0.00032990936877709396,575.724977443874
0.00034286018635565856,600.024077018964
0.00035631939712285854,625.3462072326164
0.000370306958400514,651.7341189667857
0.00038484361094874304,679.2323225670535
0.0003999509097203664,707.8871569474264
0.00041565125582259895,737.7468631042256
0.00043196792973341727,768.8616290513677
0.0004489251258218605,801.2836842361921
0.0004665479882234472,835.0673789965871
0.000484862648123908,870.2692511627545
0.000503896262506515,906.9481320498223
0.0005236770544204653,945.1651854114258
0.0005442343548300266,984.9840132374188
0.0005655986461065005,1026.470769981354
0.0005878016072274912,1069.6942332125207
0.0006108761607505036,1114.725930940916
0.0006348565216305217,1161.640205541269
0.0006597782479539537,1210.5143186164448
0.0006856782936641739,1261.4285674214605
0.0007125950633568407,1314.4662753039156
0.0007405684692262436,1369.7139969095908
0.0007696399902471156,1427.2616829931442
0.0007998527336796708,1487.2028084744206
0.000831251498989063,1549.6344508884274
0.0008638828442740447,1614.6571579462327
0.000897795155303332,1682.375204638429
0.0009330387172620361,1752.8968092505454
0.0009696657893145519,1826.3342401928996
0.001007730682094461,1902.803971874845
0.0010472898382363582,1982.4265870835625
0.0010884019160690055,2065.3269767689144
0.0011311278765939214,2151.6345353826705
0.001175531073878369,2241.4831176333923
0.0012216773489967915,2335.011343923251
0.0012696351276599736,2432.362428002943
0.0013194755216767058,2533.6842917962267
0.0013712724343984,2639.12989578438
0.0014251026703029975,2748.8570366388226
0.0014810460488806749,2863.0287222268835
0.0015391855229902056,2981.8130182909026
0.001599607301861487,3105.38297883211
0.0016624009789266115,3233.9170759391054
0.0017276596646690358,3367.598639505249
0.0017954801246878305,3506.6163013420587
0.0018659629231817451,3651.164009549033
0.001939212572065829,3801.440692473111
0.0020153376859417325,3957.650799378706
0.002094451143151469,4120.003576889544
0.002176670253153458,4288.713316897584
0.002262116930469025,4463.999349090163
0.002350917875457286,4646.084946148142
0.002443204762186487,4835.198307213163
0.0025391144336803463,5031.571911241423
0.002638789104828933,5235.442389661451
0.002742376573264949,5447.050648005191
0.0028500304385181063,5666.640100565199
0.0029619103297725525,5894.45765845991
0.0030781821425650787,6130.752687769071
0.003199018284775064,6375.776108650388
0.0033245979322709396,6629.7812160521225
0.003455107294592217,6893.0213760572815
0.0035907398910610534,7165.750659293132
0.0037316968377327513,7448.222547675098
0.0038781871456107214,7740.68752648418
0.0040304280305680515,8043.394731207252
0.00418864523543527,8356.58821453685
0.004353073364731888,8680.507103382575
0.00452395623253805,9015.385086159831
0.004701547224022131,9361.446008926981
0.004886109671160325,9718.906148100708
0.005077917243205399,10087.969546405026
0.005277254352483535,10468.826641414344
0.005484416576121017,10861.653831111713
0.005699711094326071,11266.602382472898
0.005923457145875801,11683.804246790356
0.006155986501483508,12113.37704289564
0.006397643955748424,12555.424190587584
0.0066487878384172625,13010.021306323912
0.0069097905457156435,13477.16514313291
0.007181039092537346,13956.79648364845
0.007462935686310132,14448.835622409417
0.007755898323389004,14953.19898089457
0.00806036140886134,15469.765510814983
0.008376776400682916,15998.313632618547
0.008705612479099857,16538.5341996825
0.009047357242349292,17090.06961519504
0.00940251742967013,17652.528530407875
0.009771619672696168,18225.463717617433
0.010155211276345676,18808.3125893495
0.010553861030365234,19400.39317536558
0.010968160052731372,20000.935539164933
0.011398722666160517,20609.048814947007
0.011846187309026826,21223.74299588261
0.012311217482038896,21843.90580821439
0.012794502732078732,22468.287808031437
0.013296759674662111,23095.52769056762
0.013818733056536317,23724.10337968886
0.014361196859990781,24352.360606792332
0.014924955450518284,24978.49621811199
0.015510844769528393,25600.519541290705
0.016119733573881575,26216.31168423746
0.01675252472408214,26823.57740491697
0.017410156523040152,27419.871641751448
0.018093604107387147,28002.61579818515
0.01880388089340914,28569.051986839106
0.019542040079740527,29116.31611205023
0.02030917620904734,29641.42950749934
0.021106426791015535,30141.317782145663
0.021934973989050584,30612.851908428125
0.02279604637318978,31052.837400923243
0.023690920741826323,31458.07101486855
0.02462092401494623,31825.480855466783
0.02558743520168586,32152.189382143013
0.02659188744512693,32435.40025272095
0.027635770147361564,32672.299194656633
0.028720631177978267,32860.17056668658
0.029848079169243254,32997.34174307056
0.03101978590138095,33083.97486773096
0.03223748878149028,33120.48384523466
0.0335029934197723,33105.7494133658
0.03481817630688963,33037.83362854439
0.03618498759642746,32916.260574585816
0.037605453996581675,32744.170157876135
0.03908168177536263,32525.487357345155
0.04061585988376978,32264.71942231744
0.04221026320156896,31966.828148623783
0.04386725591048496,31636.842249962883
0.0455892949998106,31279.99179530115
0.047378933909631396,30901.52355485104
0.049238826317067365,30507.927299053474
0.05117173007114603,30106.790600488173
0.05318051128214196,29704.83048420851
0.05526814857144601,29307.316338489236
0.057437737488265785,28918.303059489594
0.0596924950997073,28539.65965787837
0.0620357647610427,28171.660847407285
0.06447102107323864,27812.142284858463
0.06700187503509585,27456.86846037097
0.06963207939763882,27099.37746608019
0.0723655342286965,26731.04520165953
0.07520629269592405,26341.600342717407
0.07815856707684081,25919.09147298418
0.08122673500479707,25450.988935573292
0.08441534596012978,24925.665434924133
0.0877291280161335,24334.229282910906
0.09117299484984914,23672.82881169201
0.09475205302806537,22945.012723351003
0.09847160957933764,22161.303157330512
0.1023371798632519,21339.67781106377
0.10635449574860109,20503.48552965476
0.11052951411260206,19678.9282719149
0.1148684256737553,18892.476940243207
0.1193776641714435,18167.603139571635
0.1240639159058831,17520.51220707182
0.12893412965257148,16954.955231683383
0.13399552696593373,16462.284837313422
0.1392556128874462,16019.168438818735
0.14472218707411338,15587.28988882167
0.15040335536380234,15125.891982793675
0.15630754179458153,14602.446216841507
0.16244350109588662,14001.207209402328
0.16882033167003618,13330.513219384686
0.17544748908334581,12622.80257222055
0.1823348000868439,11926.460826535802
0.189492477187382,11291.72759716684
0.19693113379074215,10752.620270631087
0.20466179993919872,10310.937032720305
0.21269593866686892,9934.027183388542
0.22104546299710207,9568.786309728386
0.22972275360711503,9163.440192002065
0.23874067718606454,8692.428132131841
0.2481126055137766,8175.169992875529
0.25785243528842716,7665.520294953658
0.26797460873256895,7218.28786999222
0.27849413500806414,6856.6918400618315
0.28942661247167484,6555.210746309309
0.3007882518043098,6256.439116309955
0.31259590004822796,5915.434724315092
0.324867065587837,5538.459658490958
0.3376199441111335,5176.181365257229
0.35087344559027084,4873.09423498832
0.36464722232127456,4624.088286711368
0.37896169806447155,4381.452280192445
0.3938380983288488,4112.377787879845
0.4092984818452433,3836.437089143546
0.4253657732750382,3594.063589382288
0.44206379720285277,3389.273620958592
0.45941731346364734,3189.9492644994657
0.47745205385661277,2979.8606113491087
0.4961947603002895,2780.145212980776
0.5156732244854959,2607.3081002234076
0.5359163290848509,2445.3760536784876
0.556954090580013,2280.4800959215077
0.5788177037701272,2126.3215957730927
0.6015395880274836,1989.081855717175
0.6251534353689703,1855.9678696070607
0.6496942604146115,1727.6672558294151
0.6751984523072497,1611.0025689876563
0.7017038286703824,1500.908003723282
0.7292496916841444,1395.7354532975796
0.7578768863625915,1299.0025800840742
0.7876278611187046,1207.6053540636867
0.8185467307069019,1121.9562761672134
0.850679341636415,1041.9488364692495
0.8840733401525058,967.1889718094059
0.9187782428863317,897.3666687542038
0.9548455102782278,832.1878828584203
0.9923286228832539,771.3738205783375
1.0312831606721837,714.6603024389125
1.0717668854455022,661.7994066361321
1.1138398264826193,612.5613088180557
1.1575643695533022,566.7275848682074
1.2030053494233226,524.089997152111
1.2502301459914542,484.4503185957982
1.299308784200415,447.6200983367751
1.3503140378698726,413.41954244419406
1.4033215376054824,381.6773830559629
1.4584098829439835,352.2318956801761
1.5156607589006013,324.93058688262244
1.575159057091621,299.6297973998202
1.6369930016117014,276.1943138685137
1.7012542798525885,254.4970186412437
1.7680381784572046,234.4184816465444
1.8374437246107238,215.84656099488114
1.9095738328780953,198.67604473905342
1.9845354578058014,182.80830239938442
2.0624397525140905,168.15092569396984
2.143402233514853,154.6173329485173
2.227542951999554,142.1265488070281
2.314986671851158,130.60292684872198
2.405863054644063,119.97584703291675
2.5003068519063225,110.17942567706285
2.598458104929248,101.15221616493696
2.7004623524206774,92.83692629641256
2.806470846309834,85.1802205088498
2.916640776023701,78.13248299400006
3.031135501567576,71.6475847004567
3.150124795755327,65.68266198123953
3.2737850959485697,60.1978952210074
3.4022997656780634,55.15631446712609
3.5358593665351745,50.52362899397091
3.6746619407366854,46.26805004826845
3.8189133047818515,42.36012294565866
3.968827354637162,38.77256806401046
4.1246263829013445,35.48012439781766
4.286541408420921,32.45941725235436
4.4548125188449825,29.688832996987042
4.629689226627261,27.148395269348654
4.811430839003257,24.819648970227675
5.000306842491082,22.685547314492887
5.196597302486189,20.730338216947644
5.400593278542364,18.939488743570884
5.612597255954967,17.299601165902647
5.8329235942862,15.798328645992719
6.06189899349756,14.424296848193807
6.29986297838068,13.167042059627416
6.547168402004727,12.01694977602567
6.804181968927091,10.965165921125218
7.071284778942991,10.003537259699531
7.348872892180382,9.124559170096994
7.637357916378006,8.321325094764312
7.937167617217536,7.587440207032165
8.248746552614573,6.916996123980441
8.572556731909314,6.30458317434512
8.909078300934132,5.745250349512565
9.258810253973934,5.234466290591541
9.622271173675122,4.768097613910694
9.999999999999984,4.3424727548877105
