k [1/Mpc],P(k) [Mpc^3]
0.0001,300.8610027009239
0.00010392556829367125,310.8696860217196
0.00010800523745162529,321.2112237233356
0.00011224505680853065,331.8966903573128
0.00011665131316981963,342.93751614171356
0.00012123054013376525,354.34550290425335
0.00012598952777950273,366.1328421698208
0.00013093533273536104,378.3121258243396
0.00013607528864243335,390.89636200297446
0.00014141701702890234,403.8989935393156
0.00014696843861124463,417.3339122846443
0.00015273778503907136,431.21547001128306
0.00015873361110102093,445.55849188055424
0.00016496480740980205,460.378293183487
0.0001714406135851971,475.69069080080845
0.00017817063195457305,491.51201725965353
0.00018516484179121546,507.85914154727664
0.000192433614111598,524.749473203917
0.00019998772705352857,542.2009873779617
0.0002078383818579757,560.2322644608929
0.00021599721947827182,578.8625276084289
0.0002244763378413224,598.1116355694438
0.0002332883097864157,618.0000549166879
0.00024244620170823283,638.5488904557882
0.0002519635929317015,659.7799455118362
0.0002618545958474233,681.7157691544757
0.0002721338768375308,704.3796561922244
0.0002828166780230032,727.7956453348055
0.0002939188398646886,751.9885404391671
0.0003054568246515432,776.9839470148406
0.00031744774091091926,802.8082699592995
0.00032990936877709396,829.4887591021163
0.00034286018635565856,857.0535547969332
0.00035631939712285854,885.5317219282515
0.000370306958400514,914.9532631211733
0.00038484361094874304,945.3491081401851
0.0003999509097203664,976.7511598304129
0.00041565125582259895,1009.1923300356052
0.00043196792973341727,1042.706548325052
0.0004489251258218605,1077.3288205086624
0.0004665479882234472,1113.0952646555259
0.000484862648123908,1150.0431453813824
0.000503896262506515,1188.2108756968385
0.0005236770544204653,1227.6379491048096
0.0005442343548300266,1268.3650613647314
0.0005655986461065005,1310.4342122184855
0.0005878016072274912,1353.888755141574
0.0006108761607505036,1398.773372901633
0.0006348565216305217,1445.1339771870546
0.0006597782479539537,1493.0178257659109
0.0006856782936641739,1542.4735760417243
0.0007125950633568407,1593.551286500902
0.0007405684692262436,1646.302512256609
0.0007696399902471156,1700.780335202266
0.0007998527336796708,1757.0394108690045
0.000831251498989063,1815.1359273792111
0.0008638828442740447,1875.1274630703106
0.000897795155303332,1937.073212183578
0.0009330387172620361,2001.034025853211
0.0009696657893145519,2067.0724514873596
0.001007730682094461,2135.2527558862475
0.0010472898382363582,2205.640777800716
0.0010884019160690055,2278.3041039534032
0.0011311278765939214,2353.312039052704
0.001175531073878369,2430.735577530825
0.0012216773489967915,2510.647530204031
0.0012696351276599736,2593.122202719273
0.0013194755216767058,2678.2356049833675
0.0013712724343984,2766.0654924355313
0.0014251026703029975,2856.691201279089
0.0014810460488806749,2950.193888858524
0.0015391855229902056,3046.6562195640477
0.001599607301861487,3146.1624553000806
0.0016624009789266115,3248.798483717707
0.0017276596646690358,3354.651275615234
0.0017954801246878305,3463.809376569706
0.0018659629231817451,3576.3626634352986
0.001939212572065829,3692.402265382242
0.0020153376859417325,3812.020713144972
0.002094451143151469,3935.3111213334932
0.002176670253153458,4062.3676756447217
0.002262116930469025,4193.285354562006
0.002350917875457286,4328.159494951251
0.002443204762186487,4467.086264178872
0.0025391144336803463,4610.161539463364
0.002638789104828933,4757.481258848323
0.002742376573264949,4909.141456594221
0.0028500304385181063,5065.237461924498
0.0029619103297725525,5225.864459195967
0.0030781821425650787,5391.115991803399
0.003199018284775064,5561.083926162661
0.0033245979322709396,5735.858907741487
0.003455107294592217,5915.528791692156
0.0035907398910610534,6100.17953816815
0.0037316968377327513,6289.8939991477555
0.0038781871456107214,6484.7511928415925
0.0040304280305680515,6684.827054495924
0.00418864523543527,6890.192094934679
0.004353073364731888,7100.9122787088245
0.00452395623253805,7317.047646749743
0.004701547224022131,7538.65009582331
0.004886109671160325,7765.765404619672
0.005077917243205399,7998.429916118543
0.005277254352483535,8236.67105540511
0.005484416576121017,8480.507134693591
0.005699711094326071,8729.943684332724
0.005923457145875801,8984.975848434138
0.006155986501483508,9245.582330378757
0.006397643955748424,9511.724555110284
0.0066487878384172625,9783.351734750579
0.0069097905457156435,10060.40243885973
0.007181039092537346,10342.801991409513
0.007462935686310132,10630.440592716412
0.007755898323389004,10923.16194554519
0.00806036140886134,11220.789158593312
0.008376776400682916,11523.142577720866
0.008705612479099857,11830.030636361824
0.009047357242349292,12141.222620919696
0.00940251742967013,12456.424321184904
0.009771619672696168,12775.309828852596
0.010155211276345676,13097.5387856178
0.010553861030365234,13422.753002629044
0.010968160052731372,13750.55417350261
0.011398722666160517,14080.471055086935
0.011846187309026826,14411.989247750984
0.012311217482038896,14744.543519117013
0.012794502732078732,15077.51529501791
0.013296759674662111,15410.244983627093
0.013818733056536317,15742.019108582186
0.014361196859990781,16072.080512936804
0.014924955450518284,16399.614774642312
0.015510844769528393,16723.737688428486
0.016119733573881575,17043.52110009632
0.01675252472408214,17357.974598673944
0.017410156523040152,17666.058471441287
0.018093604107387147,17966.68875156916
0.01880388089340914,18258.724430127735
0.019542040079740527,18540.991711348765
0.02030917620904734,18812.278994953605
0.021106426791015535,19071.344436861662
0.021934973989050584,19316.932282131223
0.02279604637318978,19547.778114792203
0.023690920741826323,19762.618973477787
0.02462092401494623,19960.236013704063
0.02558743520168586,20139.471504913174
0.02659188744512693,20299.19875399009
0.027635770147361564,20438.32954631778
0.028720631177978267,20555.8237989574
0.029848079169243254,20650.925512977432
0.03101978590138095,20723.367114057146
0.03223748878149028,20772.97076672729
0.0335029934197723,20799.30756100142
0.03481817630688963,20801.828135683605
0.03618498759642746,20780.343669267575
0.037605453996581675,20735.554909571118
0.03908168177536263,20668.385412051222
0.04061585988376978,20579.936548982074
0.04221026320156896,20471.465561886635
0.04386725591048496,20344.296688828465
0.0455892949998106,20199.889652404723
0.047378933909631396,20039.753886421902
0.049238826317067365,19865.627105136155
0.05117173007114603,19679.54102191711
0.05318051128214196,19483.4187323243
0.05526814857144601,19278.642715247574
0.057437737488265785,19066.330872908235
0.0596924950997073,18846.717256432334
0.0620357647610427,18619.41455786737
0.06447102107323864,18383.263190535537
0.06700187503509585,18136.473169111625
0.06963207939763882,17876.807569692355
0.0723655342286965,17601.766577241568
0.07520629269592405,17308.695364607967
0.07815856707684081,16995.0239758176
0.08122673500479707,16658.40334543222
0.08441534596012978,16297.060853884659
0.0877291280161335,15910.132378656757
0.09117299484984914,15498.276725668396
0.09475205302806537,15064.264775026491
0.09847160957933764,14613.091150825863
0.1023371798632519,14151.813174107323
0.10635449574860109,13688.790835045693
0.11052951411260206,13232.225506148758
0.1148684256737553,12789.231874836276
0.1193776641714435,12364.79410788125
0.1240639159058831,11961.05405245611
0.12893412965257148,11576.749930873408
0.13399552696593373,11206.811934997362
0.1392556128874462,10842.694701795559
0.14472218707411338,10474.182846100803
0.15040335536380234,10092.463746862606
0.15630754179458153,9693.231364642921
0.16244350109588662,9279.806694344488
0.16882033167003618,8861.146756828188
0.17544748908334581,8446.47358391375
0.1823348000868439,8048.111698927874
0.189492477187382,7675.196315317113
0.19693113379074215,7330.8399241343
0.20466179993919872,7010.519026529447
0.21269593866686892,6702.721375068954
0.22104546299710207,6393.962538828341
0.22972275360711503,6076.709651333518
0.23874067718606454,5753.416936647765
0.2481126055137766,5434.403014688396
0.25785243528842716,5133.007951575185
0.26797460873256895,4857.409788336695
0.27849413500806414,4604.503135351839
0.28942661247167484,4363.306747045162
0.3007882518043098,4123.102035523031
0.31259590004822796,3881.5282024750304
0.324867065587837,3646.3632563725223
0.3376199441111335,3427.4725610276173
0.35087344559027084,3227.0455716442457
0.36464722232127456,3037.889074829306
0.37896169806447155,2852.459646703977
0.3938380983288488,2670.8669915369937
0.4092984818452433,2499.7022332391048
0.4253657732750382,2342.113343127869
0.44206379720285277,2193.941380625142
0.45941731346364734,2050.477944685873
0.47745205385661277,1913.271221756731
0.4961947603002895,1785.6734012337618
0.5156732244854959,1666.4774524829406
0.5359163290848509,1552.797031098476
0.556954090580013,1445.3594120993712
0.5788177037701272,1345.3238309298283
0.6015395880274836,1251.1943906783379
0.6251534353689703,1162.3235725234147
0.6496942604146115,1079.3639303798732
0.6751984523072497,1001.7045961586572
0.7017038286703824,928.8942557658098
0.7292496916841444,860.8636930686253
0.7578768863625915,797.2643190140595
0.7876278611187046,737.9424078387441
0.8185467307069019,682.5929123509977
0.850679341636415,631.0452992166125
0.8840733401525058,582.9899786741023
0.9187782428863317,538.2928478771007
0.9548455102782278,496.7521904967521
0.9923286228832539,458.1686454440512
1.0312831606721837,422.35346735125535
1.0717668854455022,389.1281226629619
1.1138398264826193,358.3241917957267
1.1575643695533022,329.7846813598433
1.2030053494233226,303.3617458797143
1.2502301459914542,278.9152730017369
1.299308784200415,256.3126725779891
1.3503140378698726,235.42865351580065
1.4033215376054824,216.1447624759308
1.4584098829439835,198.34894133914082
1.5156607589006013,181.935850940068
1.575159057091621,166.8066541304198
1.6369930016117014,152.86870887467148
1.7012542798525885,140.03526548816006
1.7680381784572046,128.22515853947695
1.8374437246107238,117.36252503523973
1.9095738328780953,107.37653570063732
1.9845354578058014,98.20112070890279
2.0624397525140905,89.77470396887928
2.143402233514853,82.0399388807222
2.227542951999554,74.94343767386744
2.314986671851158,68.43557105165091
2.405863054644063,62.47025094077459
2.5003068519063225,57.00471022526536
2.598458104929248,51.999292526882314
2.7004623524206774,47.417230552711615
2.806470846309834,43.224454256033525
2.916640776023701,39.38945140246524
3.031135501567576,35.88309723988782
3.150124795755327,32.67849029017491
3.2737850959485697,29.75079724583557
3.4022997656780634,27.077103520268974
3.5358593665351745,24.636280652539625
3.6746619407366854,22.408861233231747
3.8189133047818515,20.37691833889161
3.968827354637162,18.523952667145355
4.1246263829013445,16.834784989400998
4.286541408420921,15.295454657496364
4.4548125188449825,13.893134288752808
4.629689226627261,12.616044791735478
4.811430839003257,11.453374917684394
5.000306842491082,10.395206182727128
5.196597302486189,9.432437197134714
5.400593278542364,8.556721619375919
5.612597255954967,7.760416241227502
5.8329235942862,7.0365248625503645
6.06189899349756,6.3786460033074865
6.29986297838068,5.780926452068446
6.547168402004727,5.238024723171453
6.804181968927091,4.74505914619058
7.071284778942991,4.297565786650634
7.348872892180382,3.8914646053261177
7.637357916378006,3.523028056523839
7.937167617217536,3.1888389322187396
8.248746552614573,2.88575741149848
8.572556731909314,2.61092650979216
8.909078300934132,2.3617499004111613
9.258810253973934,2.135868108424729
9.622271173675122,1.9311405978131493
9.999999999999984,1.7456683066417293
