k [1/Mpc],P(k) [Mpc^3]
0.0001,159.66360455229568
0.00010392556829367125,166.41035165478286
0.00010800523745162529,173.44211862491485
0.00011224505680853065,180.7709383369117
0.00011665131316981963,188.40935120623897
0.00012123054013376525,196.37042457858263
0.00012598952777950273,204.6677752590137
0.00013093533273536104,213.31559385508896
0.00013607528864243335,222.32866917798415
0.00014141701702890234,231.72241301552884
0.00014696843861124463,241.51288199421631
0.00015273778503907136,251.716803406202
0.00015873361110102093,262.3516079247925
0.00016496480740980205,273.43546150036724
0.0001714406135851971,284.9872949475148
0.00017817063195457305,297.0268380108117
0.00018516484179121546,309.5746560263873
0.000192433614111598,322.652178088817
0.00019998772705352857,336.28170402653683
0.0002078383818579757,350.4864469114003
0.00021599721947827182,365.29059869894166
0.0002244763378413224,380.7193959334769
0.0002332883097864157,396.7991403941884
0.00024244620170823283,413.55721815785296
0.0002519635929317015,431.0221396490274
0.0002618545958474233,449.22360359697046
0.0002721338768375308,468.192540323804
0.0002828166780230032,487.96116658668984
0.0002939188398646886,508.5630403510847
0.0003054568246515432,530.0331149949988
0.00031744774091091926,552.4077956752275
0.00032990936877709396,575.7249704827505
0.00034286018635565856,600.0240778009172
0.00035631939712285854,625.3461897741489
0.000370306958400514,651.7340852180056
0.00038484361094874304,679.2323117070069
0.0003999509097203664,707.8872075650723
0.00041565125582259895,737.7469624065303
0.00043196792973341727,768.8617408746724
0.0004489251258218605,801.2837809031636
0.0004665479882234472,835.0674662788798
0.000484862648123908,870.2693574172856
0.000503896262506515,906.9482288334791
0.0005236770544204653,945.165228802694
0.0005442343548300266,984.9839987479048
0.0005655986461065005,1026.4707664689877
0.0005878016072274912,1069.6943784183045
0.0006108761607505036,1114.7262612352458
0.0006348565216305217,1161.6406508399318
0.0006597782479539537,1210.5147781946282
0.0006856782936641739,1261.4289926512638
0.0007125950633568407,1314.4667959882058
0.0007405684692262436,1369.7147475760005
0.0007696399902471156,1427.2627038195587
0.0007998527336796708,1487.2040288026192
0.000831251498989063,1549.6357317089003
0.0008638828442740447,1614.6585605901514
0.000897795155303332,1682.3768937002271
0.0009330387172620361,1752.8989297776905
0.0009696657893145519,1826.3369061703154
0.001007730682094461,1902.8071043850016
0.0010472898382363582,1982.4301073902793
0.0010884019160690055,2065.330894921056
0.0011311278765939214,2151.6389711470542
0.001175531073878369,2241.4884712744133
0.0012216773489967915,2335.0177590828575
0.0012696351276599736,2432.369887254272
0.0013194755216767058,2533.6928199454946
0.0013712724343984,2639.1394615320173
0.0014251026703029975,2748.867900049926
0.0014810460488806749,2863.040976118177
0.0015391855229902056,2981.82656034882
0.001599607301861487,3105.3978341101406
0.0016624009789266115,3233.9330046325736
0.0017276596646690358,3367.615761684262
0.0017954801246878305,3506.634766269072
0.0018659629231817451,3651.1836013463585
0.001939212572065829,3801.4613597894795
0.0020153376859417325,3957.6721637118226
0.002094451143151469,4120.025560428505
0.002176670253153458,4288.735965631556
0.002262116930469025,4464.021944922718
0.002350917875457286,4646.107202854474
0.002443204762186487,4835.219696479422
0.0025391144336803463,5031.591856010683
0.002638789104828933,5235.460532647243
0.002742376573264949,5447.065717734364
0.0028500304385181063,5666.651445259525
0.0029619103297725525,5894.464243715728
0.0030781821425650787,6130.752641171513
0.003199018284775064,6375.767947353708
0.0033245979322709396,6629.762124473353
0.003455107294592217,6892.988593798534
0.0035907398910610534,7165.7008036474845
0.0037316968377327513,7448.150288179285
0.0038781871456107214,7740.588074472547
0.0040304280305680515,8043.2608548167145
0.00418864523543527,8356.411353907355
0.004353073364731888,8680.27811103943
0.00452395623253805,9015.091637755982
0.004701547224022131,9361.076252926256
0.004886109671160325,9718.444826873992
0.005077917243205399,10087.396999294784
0.005277254352483535,10468.120941056452
0.005484416576121017,10860.786086040018
0.005699711094326071,11265.545606232045
0.005923457145875801,11682.529768498483
0.006155986501483508,12111.838275195576
0.006397643955748424,12553.548036702343
0.0066487878384172625,13007.711004006456
0.0069097905457156435,13474.352742292831
0.007181039092537346,13953.454868559387
0.007462935686310132,14444.919423195863
0.007755898323389004,14948.599300245922
0.00806036140886134,15464.302381818188
0.008376776400682916,15991.788891851145
0.008705612479099857,16530.767239089044
0.009047357242349292,17080.88147465841
0.00940251742967013,17641.71494178607
0.009771619672696168,18212.757346719733
0.010155211276345676,18793.376066933735
0.010553861030365234,19382.853862560827
0.010968160052731372,19980.35395680198
0.011398722666160517,20584.930686297645
0.011846187309026826,21195.527382862052
0.012311217482038896,21810.935412344927
0.012794502732078732,22429.831783157202
0.013296759674662111,23050.73620940842
0.013818733056536317,23672.00818854381
0.014361196859990781,24291.872179801878
0.014924955450518284,24908.338652043098
0.015510844769528393,25519.265797708398
0.016119733573881575,26122.33867717004
0.01675252472408214,26715.038012396195
0.017410156523040152,27294.709448721384
0.018093604107387147,27858.479739838025
0.01880388089340914,28403.31169445631
0.019542040079740527,28926.03832408382
0.02030917620904734,29423.312740236517
0.021106426791015535,29891.7062766645
0.021934973989050584,30327.66123127936
0.02279604637318978,30727.52178633896
0.023690920741826323,31087.660761551688
0.02462092401494623,31404.578093684195
0.02558743520168586,31674.88687378044
0.02659188744512693,31895.147469892887
0.027635770147361564,32061.804824037572
0.028720631177978267,32171.67662687611
0.029848079169243254,32223.514628259618
0.03101978590138095,32217.25763179483
0.03223748878149028,32152.273667053778
0.0335029934197723,32025.920224046153
0.03481817630688963,31835.691400557942
0.03618498759642746,31581.868204865168
0.037605453996581675,31267.19973455178
0.03908168177536263,30895.341087976976
0.04061585988376978,30472.627866268554
0.04221026320156896,30006.11690362029
0.04386725591048496,29501.845117439356
0.0455892949998106,28964.387825195103
0.047378933909631396,28398.87295194469
0.049238826317067365,27814.467229360656
0.05117173007114603,27221.281696400947
0.05318051128214196,26628.764785932428
0.05526814857144601,26045.641209651883
0.057437737488265785,25479.522139939872
0.0596924950997073,24936.900864652514
0.0620357647610427,24422.057430434597
0.06447102107323864,23937.352005594723
0.06700187503509585,23482.531638244483
0.06963207939763882,23055.143167921487
0.0723655342286965,22649.600690081206
0.07520629269592405,22257.57942861492
0.07815856707684081,21868.057977523935
0.08122673500479707,21467.163865867045
0.08441534596012978,21039.432696658267
0.0877291280161335,20569.060052979374
0.09117299484984914,20041.944222186114
0.09475205302806537,19448.407896323628
0.09847160957933764,18785.364920225897
0.1023371798632519,18057.36231299141
0.10635449574860109,17277.370148789334
0.11052951411260206,16466.056372190113
0.1148684256737553,15650.189688871838
0.1193776641714435,14860.21283671786
0.1240639159058831,14126.624944526038
0.12893412965257148,13474.871344633515
0.13399552696593373,12920.56117219212
0.1392556128874462,12467.255079712793
0.14472218707411338,12095.887370208033
0.15040335536380234,11774.948029779303
0.15630754179458153,11462.651658169318
0.16244350109588662,11114.867306115691
0.16882033167003618,10696.096197939425
0.17544748908334581,10190.86851798911
0.1823348000868439,9611.088416514953
0.189492477187382,8996.132470409166
0.19693113379074215,8402.758896707935
0.20466179993919872,7885.559551252465
0.21269593866686892,7475.865671778177
0.22104546299710207,7170.384332597232
0.22972275360711503,6930.942176924591
0.23874067718606454,6694.728599989539
0.2481126055137766,6401.401590901949
0.25785243528842716,6027.59804561805
0.26797460873256895,5602.242743967912
0.27849413500806414,5191.7243435003
0.28942661247167484,4859.467913709171
0.3007882518043098,4623.2165551987555
0.31259590004822796,4442.100110415334
0.324867065587837,4244.561755678869
0.3376199441111335,3986.3187390099474
0.35087344559027084,3688.8117260901895
0.36464722232127456,3417.765370472903
0.37896169806447155,3217.1930575105926
0.3938380983288488,3066.462558380375
0.4092984818452433,2905.4861191633067
0.4253657732750382,2704.7371289390367
0.44206379720285277,2499.254368584537
0.45941731346364734,2337.106890659259
0.47745205385661277,2212.2302899891697
0.4961947603002895,2078.3285321805392
0.5156732244854959,1924.676223459625
0.5359163290848509,1787.66785412422
0.556954090580013,1680.2294964388984
0.5788177037701272,1573.2437134068691
0.6015395880274836,1457.168646735688
0.6251534353689703,1355.5338672585956
0.6496942604146115,1269.1246769389259
0.6751984523072497,1179.0368787720906
0.7017038286703824,1093.264213845335
0.7292496916841444,1019.5509736612003
0.7578768863625915,946.8764390293153
0.7876278611187046,877.6740254023177
0.8185467307069019,813.9381587608058
0.850679341636415,755.0126971192683
0.8840733401525058,700.370953993783
0.9187782428863317,649.5601399189103
0.9548455102782278,602.1910809377965
0.9923286228832539,557.9298298669034
1.0312831606721837,516.5361136393434
1.0717668854455022,477.8851954220455
1.1138398264826193,441.85941214963475
1.1575643695533022,408.33646353083645
1.2030053494233226,377.1912467102072
1.2502301459914542,348.29713060383284
1.299308784200415,321.51506512334976
1.3503140378698726,296.69567082822726
1.4033215376054824,273.69902378969346
1.4584098829439835,252.39523388526368
1.5156607589006013,232.66369372238287
1.575159057091621,214.3925428458115
1.6369930016117014,197.48046390768732
1.7012542798525885,181.83476717923205
1.7680381784572046,167.36826845466038
1.8374437246107238,153.99897245655737
1.9095738328780953,141.64984849825066
1.9845354578058014,130.24854927612665
2.0624397525140905,119.7267384207014
2.143402233514853,110.02028762810357
2.227542951999554,101.06939026138389
2.314986671851158,92.81830613201079
2.405863054644063,85.21511465929053
2.5003068519063225,78.21148790483322
2.598458104929248,71.76249902469453
2.7004623524206774,65.82637069007778
2.806470846309834,60.36425988201969
2.916640776023701,55.340072266249244
3.031135501567576,50.7202863912042
3.150124795755327,46.47377792286674
3.2737850959485697,42.5716436201007
3.4022997656780634,38.987087709145094
3.5358593665351745,35.695287924781574
3.6746619407366854,32.67326086633427
3.8189133047818515,29.89973553501878
3.968827354637162,27.355035050235138
4.1246263829013445,25.020965647723624
4.286541408420921,22.880711376738518
4.4548125188449825,20.91873637482238
4.629689226627261,19.120693560041328
4.811430839003257,17.473339052269367
5.000306842491082,15.964443402850572
5.196597302486189,14.582717106596043
5.400593278542364,13.317756180933442
5.612597255954967,12.159977051802269
5.8329235942862,11.100554810301476
6.06189899349756,10.131366491995612
6.29986297838068,9.244949739138793
6.547168402004727,8.434447330260571
6.804181968927091,7.693547456881887
7.071284778942991,7.0164422747356685
7.348872892180382,6.397789869750531
7.637357916378006,5.832675340832349
7.937167617217536,5.316546404966178
8.248746552614573,4.845210813905059
8.572556731909314,4.414832896104217
8.909078300934132,4.021903490422144
9.258810253973934,3.663212083217203
9.622271173675122,3.3358349353838066
9.999999999999984,3.037174965603178
