k [1/Mpc],P(k) [Mpc^3]
0.0001,2758.342533524354
0.00010392556829367125,2849.871847416387
0.00010800523745162529,2944.4186197139147
0.00011224505680853065,3042.0800140037804
0.00011665131316981963,3142.9561658596967
0.00012123054013376525,3247.1502603897543
0.00012598952777950273,3354.768561293984
0.00013093533273536104,3465.920025018451
0.00013607528864243335,3580.7166395871254
0.00014141701702890234,3699.2736716758463
0.00014696843861124463,3821.7097113671334
0.00015273778503907136,3948.146775075041
0.00015873361110102093,4078.7099271067646
0.00016496480740980205,4213.5274570989695
0.0001714406135851971,4352.7310997702825
0.00017817063195457305,4496.45568514973
0.00018516484179121546,4644.839584270266
0.000192433614111598,4798.02443878636
0.00019998772705352857,4956.155107491763
0.0002078383818579757,5119.380025079777
0.00021599721947827182,5287.850481653589
0.0002244763378413224,5461.72113969812
0.0002332883097864157,5641.149946710776
0.00024244620170823283,5826.297717593318
0.0002519635929317015,6017.328716691614
0.0002618545958474233,6214.409566573231
0.0002721338768375308,6417.7095613982465
0.0002828166780230032,6627.401060612796
0.0002939188398646886,6843.65871338492
0.0003054568246515432,7066.660097698263
0.00031744774091091926,7296.584354905623
0.00032990936877709396,7533.611845293502
0.00034286018635565856,7777.9252453135505
0.00035631939712285854,8029.708465946303
0.000370306958400514,8289.14718431895
0.00038484361094874304,8556.427553048203
0.0003999509097203664,8831.734679482024
0.00041565125582259895,9115.254480010917
0.00043196792973341727,9407.172667858846
0.0004489251258218605,9707.674844893954
0.0004665479882234472,10016.945545226305
0.000484862648123908,10335.165233754462
0.000503896262506515,10662.512593024445
0.0005236770544204653,10999.162822259399
0.0005442343548300266,11345.287027874416
0.0005655986461065005,11701.052553330803
0.0005878016072274912,12066.618417093705
0.0006108761607505036,12442.13755598399
0.0006348565216305217,12827.754721609566
0.0006597782479539537,13223.603626517943
0.0006856782936641739,13629.809484718617
0.0007125950633568407,14046.48244794691
0.0007405684692262436,14473.719105046604
0.0007696399902471156,14911.602268673476
0.0007998527336796708,15360.195005421847
0.000831251498989063,15819.54486855747
0.0008638828442740447,16289.678832270643
0.000897795155303332,16770.60209453401
0.0009330387172620361,17262.299853758057
0.0009696657893145519,17764.73067783505
0.001007730682094461,18277.8293566571
0.0010472898382363582,18801.501087663775
0.0010884019160690055,19335.61618507127
0.0011311278765939214,19880.015858536826
0.001175531073878369,20434.50343531938
0.0012216773489967915,20998.84655143389
0.0012696351276599736,21572.776196376453
0.0013194755216767058,22155.979124562236
0.0013712724343984,22748.103560691976
0.0014251026703029975,23348.753713032125
0.0014810460488806749,23957.48888545121
0.0015391855229902056,24573.824096521206
0.001599607301861487,25197.219713411294
0.0016624009789266115,25827.08789640368
0.0017276596646690358,26462.789897695533
0.0017954801246878305,27103.6329345548
0.0018659629231817451,27748.87327886693
0.001939212572065829,28397.701398756704
0.0020153376859417325,29049.249066677938
0.002094451143151469,29702.591239388876
0.002176670253153458,30356.738648688864
0.002262116930469025,31010.646478023977
0.002350917875457286,31663.19361409598
0.002443204762186487,32313.18687272775
0.0025391144336803463,32959.37881516587
0.002638789104828933,33600.46688824091
0.002742376573264949,34235.09576351128
0.0028500304385181063,34861.7659639729
0.0029619103297725525,35478.80151772566
0.0030781821425650787,36084.51075853806
0.003199018284775064,36677.49963038838
0.0033245979322709396,37256.501460981104
0.003455107294592217,37819.78341810143
0.0035907398910610534,38364.59886286449
0.0037316968377327513,38888.05289525666
0.0038781871456107214,39387.9580001297
0.0040304280305680515,39862.676146072154
0.00418864523543527,40310.34729310729
0.004353073364731888,40728.19076068727
0.00452395623253805,41113.21242576409
0.004701547224022131,41462.786747455466
0.004886109671160325,41774.75892673401
0.005077917243205399,42046.94388474272
0.005277254352483535,42276.45227921822
0.005484416576121017,42460.16093283221
0.005699711094326071,42594.89164306892
0.005923457145875801,42677.29048096637
0.006155986501483508,42704.10515274509
0.006397643955748424,42671.962173424145
0.0066487878384172625,42577.51679447422
0.0069097905457156435,42417.52571334873
0.007181039092537346,42188.46194434515
0.007462935686310132,41887.058593127455
0.007755898323389004,41509.86304378219
0.00806036140886134,41053.26946758131
0.008376776400682916,40514.13852405473
0.008705612479099857,39889.04331034959
0.009047357242349292,39175.10314971999
0.00940251742967013,38369.798584376804
0.009771619672696168,37470.58331560752
0.010155211276345676,36476.042337384235
0.010553861030365234,35384.18895926631
0.010968160052731372,34193.71600310553
0.011398722666160517,32905.32256989361
0.011846187309026826,31521.331205184684
0.012311217482038896,30046.27954933712
0.012794502732078732,28480.667138033652
0.013296759674662111,26822.67975049172
0.013818733056536317,25078.74982092855
0.014361196859990781,23273.707341271525
0.014924955450518284,21436.765985634254
0.015510844769528393,19562.402193773643
0.016119733573881575,17604.94387174614
0.01675252472408214,15561.2337943881
0.017410156523040152,13577.214107494327
0.018093604107387147,11812.862935122155
0.01880388089340914,10206.094605324233
0.019542040079740527,8366.393290204946
0.02030917620904734,6203.032390894269
0.021106426791015535,4414.516703079632
0.021934973989050584,3545.8226143935226
0.02279604637318978,3381.24825206291
0.023690920741826323,2249.547352113318
0.02462092401494623,518.2823613393009
0.02558743520168586,49.586386271853705
0.02659188744512693,9.436136606286212
0.027635770147361564,15.405468235553577
0.028720631177978267,116.82411393062107
0.029848079169243254,734.836348658208
0.03101978590138095,1508.9959599735294
0.03223748878149028,1818.5731530468115
0.0335029934197723,2343.7213176101895
0.03481817630688963,3148.1473038087693
0.03618498759642746,3793.0091723389914
0.037605453996581675,4161.731332015382
0.03908168177536263,4386.330939649711
0.04061585988376978,4422.361722569004
0.04221026320156896,4212.458643143956
0.04386725591048496,3794.641817428016
0.0455892949998106,3203.9605884079515
0.047378933909631396,2499.996742883716
0.049238826317067365,1817.3044294723488
0.05117173007114603,1132.7857090399823
0.05318051128214196,576.1794229022405
0.05526814857144601,285.750993983465
0.057437737488265785,25.8440719348877
0.0596924950997073,2.6045092535869485
0.0620357647610427,27.51672072036081
0.06447102107323864,206.48638259816832
0.06700187503509585,199.72048179067897
0.06963207939763882,205.71486552010768
0.0723655342286965,141.99656229604176
0.07520629269592405,58.005223748707486
0.07815856707684081,6.080155224442442
0.08122673500479707,10.559417848520685
0.08441534596012978,158.20059493721737
0.0877291280161335,262.2183652342413
0.09117299484984914,402.7424427795335
0.09475205302806537,427.1610036730991
0.09847160957933764,351.8090159001195
0.1023371798632519,206.57699730714432
0.10635449574860109,72.31580406081838
0.11052951411260206,5.78667379389647
0.1148684256737553,4.987636271420865
0.1193776641714435,40.0228135988589
0.1240639159058831,35.71383461739807
0.12893412965257148,41.572826815432705
0.13399552696593373,0.0026052255224335206
0.1392556128874462,48.13285808317762
0.14472218707411338,91.84386033641763
0.15040335536380234,103.30966646636624
0.15630754179458153,64.86416457197294
0.16244350109588662,16.996481435507732
0.16882033167003618,0.7332793058287969
0.17544748908334581,8.974892452076666
0.1823348000868439,6.480711660326597
0.189492477187382,0.4432273552158335
0.19693113379074215,15.029704572878908
0.20466179993919872,31.409823444373373
0.21269593866686892,20.540979297704112
0.22104546299710207,2.5016050708011255
0.22972275360711503,0.6791872957579027
0.23874067718606454,1.4386092983993333
0.2481126055137766,1.113060113996913
0.25785243528842716,8.994449398539814
0.26797460873256895,8.86495993547188
0.27849413500806414,1.3556574220909468
0.28942661247167484,0.08875627899575811
0.3007882518043098,0.017020872973941524
0.31259590004822796,2.7220274859061875
0.324867065587837,3.678608081697285
0.3376199441111335,0.5629117188672838
0.35087344559027084,0.0023346325405577597
0.36464722232127456,0.5427649293121525
0.37896169806447155,1.7635968437718763
0.3938380983288488,0.5678405192015183
0.4092984818452433,0.07747894565519409
0.4253657732750382,0.4598824563062169
0.44206379720285277,1.3983904538236658
0.45941731346364734,1.6288822844031206
0.47745205385661277,1.0209656023227454
0.4961947603002895,0.4836967859583234
0.5156732244854959,0.24266901389859746
0.5359163290848509,0.15555975828174612
0.556954090580013,0.12253905496644922
0.5788177037701272,0.11193333605433915
0.6015395880274836,0.11188331964248759
0.6251534353689703,0.11547967046375376
0.6496942604146115,0.11634017111792141
0.6751984523072497,0.11186889546036093
0.7017038286703824,0.10358661210460436
0.7292496916841444,0.09329980238701333
0.7578768863625915,0.08256744044723296
0.7876278611187046,0.07251971877269484
0.8185467307069019,0.06381117249409009
0.850679341636415,0.05641260050533258
0.8840733401525058,0.05006804932355167
0.9187782428863317,0.04457584254188625
0.9548455102782278,0.03977791091010299
0.9923286228832539,0.035549793660518435
1.0312831606721837,0.03179580706695644
1.0717668854455022,0.02845200261311365
1.1138398264826193,0.02546829708827539
1.1575643695533022,0.022801580540350704
1.2030053494233226,0.02041464683924595
1.2502301459914542,0.018275302582757103
1.299308784200415,0.016356345716710713
1.3503140378698726,0.014635838101784884
1.4033215376054824,0.013094223551087737
1.4584098829439835,0.011713696666037707
1.5156607589006013,0.01047807476008671
1.575159057091621,0.00937267231641898
1.6369930016117014,0.008384016430163142
1.7012542798525885,0.007499711034335841
1.7680381784572046,0.006708664852428273
1.8374437246107238,0.006000981011145818
1.9095738328780953,0.005367826045508132
1.9845354578058014,0.004801314199695733
2.0624397525140905,0.004294417067550466
2.143402233514853,0.003840865262862606
2.227542951999554,0.0034350504115351226
2.314986671851158,0.0030719544999820215
2.405863054644063,0.0027470875151011
2.5003068519063225,0.0024564329764759823
2.598458104929248,0.002196409389442781
2.7004623524206774,0.0019638147303199
2.806470846309834,0.001755777629711623
2.916640776023701,0.0015697236925617988
3.031135501567576,0.001403345306531563
3.150124795755327,0.0012545726971495137
3.2737850959485697,0.00112154231568416
3.4022997656780634,0.0010025850470387553
3.5358593665351745,0.000896209794669977
3.6746619407366854,0.0008010843180339595
3.8189133047818515,0.0007160181525055686
3.968827354637162,0.0006399487927356476
4.1246263829013445,0.0005719304706840624
4.286541408420921,0.0005111168634841984
4.4548125188449825,0.0004567497241561526
4.629689226627261,0.00040814984011622866
4.811430839003257,0.0003647088979331042
5.000306842491082,0.00032588151970339363
5.196597302486189,0.0002911784507025853
5.400593278542364,0.0002601621538659755
5.612597255954967,0.00023244149753406726
5.8329235942862,0.0002076668298948748
6.06189899349756,0.00018552558013126613
6.29986297838068,0.0001657384083233476
6.547168402004727,0.0001480556593069359
6.804181968927091,0.00013225409996483204
7.071284778942991,0.00011813412217637299
7.348872892180382,0.00010551724772119985
7.637357916378006,9.424388562625357e-05
7.937167617217536,8.417121819180646e-05
8.248746552614573,7.517151569467714e-05
8.572556731909314,6.71306450284003e-05
8.909078300934132,5.994662057445379e-05
9.258810253973934,5.3528307994717546e-05
9.622271173675122,4.779432534662041e-05
9.999999999999984,4.2672303188787865e-05
