k [1/Mpc],P(k) [Mpc^3]
0.0001,36.56426338126307
0.00010392556829367125,38.21953708648818
0.00010800523745162529,39.94973202742961
0.00011224505680853065,41.758234921182634
0.00011665131316981963,43.64858515618269
0.00012123054013376525,45.624484330837376
0.00012598952777950273,47.68980284170842
0.00013093533273536104,49.848585353643124
0.00013607528864243335,52.105056972695714
0.00014141701702890234,54.46363306127111
0.00014696843861124463,56.92892920285697
0.00015273778503907136,59.505770345823585
0.00015873361110102093,62.199198883649956
0.00016496480740980205,65.01448232040914
0.0001714406135851971,67.95712475909737
0.00017817063195457305,71.03287832322651
0.00018516484179121546,74.24775435005972
0.000192433614111598,77.60803478266763
0.00019998772705352857,81.12028311880225
0.0002078383818579757,84.79135742341236
0.00021599721947827182,88.62842427952253
0.0002244763378413224,92.63897285656233
0.0002332883097864157,96.8308289034399
0.00024244620170823283,101.21216629547024
0.0002519635929317015,105.79152231765435
0.0002618545958474233,110.57781723554609
0.0002721338768375308,115.58037371303968
0.0002828166780230032,120.80893306440356
0.0002939188398646886,126.2736673888942
0.0003054568246515432,131.98519468137235
0.00031744774091091926,137.95460587556545
0.00032990936877709396,144.19348777921638
0.00034286018635565856,150.71394439073583
0.00035631939712285854,157.52861613486098
0.000370306958400514,164.65069844272912
0.00038484361094874304,172.09397100778307
0.0003999509097203664,179.8728178274205
0.00041565125582259895,188.00225339491323
0.00043196792973341727,196.49795535797097
0.0004489251258218605,205.37629389797763
0.0004665479882234472,214.65436107280286
0.000484862648123908,224.34998574120763
0.000503896262506515,234.48175532163287
0.0005236770544204653,245.06906807656225
0.0005442343548300266,256.1321745808976
0.0005655986461065005,267.69221166966133
0.0005878016072274912,279.7712215574275
0.0006108761607505036,292.3921642740072
0.0006348565216305217,305.57898449710547
0.0006597782479539537,319.35665866108303
0.0006856782936641739,333.751237613177
0.0007125950633568407,348.78988106476595
0.0007405684692262436,364.50087115242724
0.0007696399902471156,380.9136814061184
0.0007998527336796708,398.05901206659576
0.000831251498989063,415.9688272377808
0.0008638828442740447,434.6764259159548
0.000897795155303332,454.2164657805834
0.0009330387172620361,474.6250296577468
0.0009696657893145519,495.9396727125604
0.001007730682094461,518.1994459984464
0.0010472898382363582,541.4449864323053
0.0010884019160690055,565.7185163226732
0.0011311278765939214,591.0639063912525
0.001175531073878369,617.526759697921
0.0012216773489967915,645.1544003092403
0.0012696351276599736,673.9959886027466
0.0013194755216767058,704.1025212373172
0.0013712724343984,735.526853420426
0.0014251026703029975,768.3238299313475
0.0014810460488806749,802.5502240843869
0.0015391855229902056,838.2648577520482
0.001599607301861487,875.5286334532798
0.0016624009789266115,914.4044771737888
0.0017276596646690358,954.9575196844862
0.0017954801246878305,997.2549942856506
0.0018659629231817451,1041.366308270377
0.001939212572065829,1087.3631436946973
0.0020153376859417325,1135.3192934749927
0.002094451143151469,1185.3108664175961
0.002176670253153458,1237.4161470648244
0.002262116930469025,1291.7155317852566
0.002350917875457286,1348.291738307124
0.002443204762186487,1407.229486185695
0.0025391144336803463,1468.615682119929
0.002638789104828933,1532.5393723926504
0.002742376573264949,1599.0914899262564
0.0028500304385181063,1668.365105470941
0.0029619103297725525,1740.4549307563357
0.0030781821425650787,1815.4573538248383
0.003199018284775064,1893.4704824380433
0.0033245979322709396,1974.5934316604353
0.003455107294592217,2058.9267512000015
0.0035907398910610534,2146.571943956994
0.0037316968377327513,2237.6311568196616
0.0038781871456107214,2332.2073747035633
0.0040304280305680515,2430.4032195242958
0.00418864523543527,2532.3213061625574
0.004353073364731888,2638.063695710539
0.00452395623253805,2747.730805215802
0.004701547224022131,2861.4220796490226
0.004886109671160325,2979.2342597790675
0.005077917243205399,3101.2613249023298
0.005277254352483535,3227.5943150843173
0.005484416576121017,3358.3190272568563
0.005699711094326071,3493.517057194851
0.005923457145875801,3633.2628959132926
0.006155986501483508,3777.622578308735
0.006397643955748424,3926.6555848690973
0.0066487878384172625,4080.413722172564
0.0069097905457156435,4238.940688044771
0.007181039092537346,4402.263883782079
0.007462935686310132,4570.385825885407
0.007755898323389004,4743.294008784333
0.00806036140886134,4920.961351279883
0.008376776400682916,5103.345132959173
0.008705612479099857,5290.384060388291
0.009047357242349292,5481.992980754544
0.00940251742967013,5678.065100255465
0.009771619672696168,5878.45822729385
0.010155211276345676,6082.990962689308
0.010553861030365234,6291.450969459836
0.010968160052731372,6503.580802283367
0.011398722666160517,6719.085027262214
0.011846187309026826,6937.623298403292
0.012311217482038896,7158.79989842625
0.012794502732078732,7382.175491846033
0.013296759674662111,7607.246167808332
0.013818733056536317,7833.449846924163
0.014361196859990781,8060.16639932459
0.014924955450518284,8286.69220268463
0.015510844769528393,8512.265611620052
0.016119733573881575,8736.045514004194
0.01675252472408214,8957.110474767635
0.017410156523040152,9174.477427448315
0.018093604107387147,9387.064356413186
0.01880388089340914,9593.724118727285
0.019542040079740527,9793.23771954997
0.02030917620904734,9984.301316066765
0.021106426791015535,10165.566889685571
0.021934973989050584,10335.603078357435
0.02279604637318978,10492.928983794018
0.023690920741826323,10636.058076619272
0.02462092401494623,10763.513178105999
0.02558743520168586,10873.837214817506
0.02659188744512693,10965.485525617763
0.027635770147361564,11036.851479239289
0.028720631177978267,11086.538768469209
0.029848079169243254,11113.911217501845
0.03101978590138095,11118.649330161279
0.03223748878149028,11099.988126128892
0.0335029934197723,11056.432388548836
0.03481817630688963,10986.711311831405
0.03618498759642746,10890.748253932983
0.037605453996581675,10769.17533109465
0.03908168177536263,10623.201724125556
0.04061585988376978,10455.171561599554
0.04221026320156896,10267.61011805257
0.04386725591048496,10062.51799007946
0.0455892949998106,9841.462783891559
0.047378933909631396,9606.574497390333
0.049238826317067365,9361.607994850756
0.05117173007114603,9110.482226056525
0.05318051128214196,8857.347208374214
0.05526814857144601,8606.222688775917
0.057437737488265785,8360.999129791799
0.0596924950997073,8125.246548966288
0.0620357647610427,7901.888776300861
0.06447102107323864,7693.250657495904
0.06700187503509585,7500.800971913926
0.06963207939763882,7325.138275847848
0.0723655342286965,7165.811474711132
0.07520629269592405,7021.18184643297
0.07815856707684081,6888.4408660903455
0.08122673500479707,6763.4272141217525
0.08441534596012978,6640.681405321661
0.0877291280161335,6513.747856872619
0.09117299484984914,6375.665171817156
0.09475205302806537,6219.746557811575
0.09847160957933764,6040.586860896523
0.1023371798632519,5834.873861451584
0.10635449574860109,5602.1345144663865
0.11052951411260206,5345.266084220738
0.1148684256737553,5070.666971953997
0.1193776641714435,4787.957910556081
0.1240639159058831,4509.254973765625
0.12893412965257148,4247.409376701611
0.13399552696593373,4014.4848580192197
0.1392556128874462,3819.748272455961
0.14472218707411338,3665.561068770622
0.15040335536380234,3549.1082015151937
0.15630754179458153,3461.3343793755685
0.16244350109588662,3387.7169234525154
0.16882033167003618,3310.252099366742
0.17544748908334581,3211.1668829248356
0.1823348000868439,3077.8414930004797
0.189492477187382,2907.658150663228
0.19693113379074215,2710.7123127846935
0.20466179993919872,2507.9079057936015
0.21269593866686892,2323.629375442816
0.22104546299710207,2177.1062448933712
0.22972275360711503,2076.0300737320204
0.23874067718606454,2012.719134005998
0.2481126055137766,1964.7586200446751
0.25785243528842716,1903.592816707102
0.26797460873256895,1808.6688474146752
0.27849413500806414,1680.0064198490975
0.28942661247167484,1540.150749167175
0.3007882518043098,1420.0756549872328
0.31259590004822796,1338.9586238092495
0.324867065587837,1291.749346920176
0.3376199441111335,1252.1165711004774
0.35087344559027084,1191.4738001286548
0.36464722232127456,1102.9609840617734
0.37896169806447155,1008.5102490934545
0.3938380983288488,936.823996233415
0.4092984818452433,894.7065460099196
0.4253657732750382,860.5748347221331
0.44206379720285277,809.058351831714
0.45941731346364734,742.2121041828535
0.47745205385661277,685.0982310975813
0.4961947603002895,649.4220247156603
0.5156732244854959,618.5717700843196
0.5359163290848509,575.1160971873923
0.556954090580013,528.4371145694947
0.5788177037701272,495.2973116531105
0.6015395880274836,469.02312646560483
0.6251534353689703,435.4736120394222
0.6496942604146115,401.8366257768528
0.6751984523072497,377.3363678598604
0.7017038286703824,353.2442864078919
0.7292496916841444,326.09750746043983
0.7578768863625915,304.0750180738383
0.7876278611187046,284.21446293696255
0.8185467307069019,264.8069736595919
0.850679341636415,246.1606874976138
0.8840733401525058,228.43467554495277
0.9187782428863317,211.74220740278133
0.9548455102782278,196.1566059634327
0.9923286228832539,181.71573121713274
1.0312831606721837,168.3776136078281
1.0717668854455022,156.0347305781504
1.1138398264826193,144.58930728066213
1.1575643695533022,133.95592569402703
1.2030053494233226,124.05989487828285
1.2502301459914542,114.83656784138675
1.299308784200415,106.24052498134206
1.3503140378698726,98.23858555825814
1.4033215376054824,90.79830897420506
1.4584098829439835,83.88785008218062
1.5156607589006013,77.4761248737222
1.575159057091621,71.53269892512525
1.6369930016117014,66.02594446484231
1.7012542798525885,60.92488735142402
1.7680381784572046,56.200691448387516
1.8374437246107238,51.82652664780162
1.9095738328780953,47.77742945775496
1.9845354578058014,44.03024877076386
2.0624397525140905,40.56385934903302
2.143402233514853,37.35863825196228
2.227542951999554,34.39618861087005
2.314986671851158,31.659277190203937
2.405863054644063,29.13177404192094
2.5003068519063225,26.798569865809093
2.598458104929248,24.645461607048325
2.7004623524206774,22.659193900658916
2.806470846309834,20.827427030138896
2.916640776023701,19.138679109002894
3.031135501567576,17.582271437614498
3.150124795755327,16.1482803249221
3.2737850959485697,14.827492196005757
3.4022997656780634,13.611348019770737
3.5358593665351745,12.49189910032581
3.6746619407366854,11.461767045687182
3.8189133047818515,10.514106012435699
3.968827354637162,9.642565135468246
4.1246263829013445,8.841254474419948
4.286541408420921,8.104717626411992
4.4548125188449825,7.427902274431875
4.629689226627261,6.806132152183661
4.811430839003257,6.23508069117002
5.000306842491082,5.710743870367661
5.196597302486189,5.229417796273008
5.400593278542364,4.78768081381308
5.612597255954967,4.382373250890129
5.8329235942862,4.010578318787202
6.06189899349756,3.669604601960695
6.29986297838068,3.356973548073219
6.547168402004727,3.0704015043590833
6.804181968927091,2.8077812270756204
7.071284778942991,2.5671689292584103
7.348872892180382,2.346772318088825
7.637357916378006,2.1449379826628077
7.937167617217536,1.9601297429639781
8.248746552614573,1.790929702488263
8.572556731909314,1.636037400190486
8.909078300934132,1.4942601325147968
9.258810253973934,1.364503993498404
9.622271173675122,1.2457709053690504
9.999999999999984,1.137173854226919
