k [1/Mpc],P(k) [Mpc^3]
0.0001,119.66010809434073
0.00010392556829367125,124.71664544370786
0.00010800523745162529,129.98682194725848
0.00011224505680853065,135.4796582311629
0.00011665131316981963,141.20455518872913
0.00012123054013376525,147.1713100899379
0.00012598952777950273,153.3901345506242
0.00013093533273536104,159.8716734524132
0.00013607528864243335,166.62702075699417
0.00014141701702890234,173.66773195550925
0.00014696843861124463,181.00584483149277
0.00015273778503907136,188.65390549403327
0.00015873361110102093,196.6249941334258
0.00016496480740980205,204.93274329142088
0.0001714406135851971,213.5913581027972
0.00017817063195457305,222.6156401230602
0.00018516484179121546,232.02101298323728
0.000192433614111598,241.82354401746446
0.00019998772705352857,252.03997430961144
0.0002078383818579757,262.68774439655886
0.00021599721947827182,273.7850210302352
0.0002244763378413224,285.3507345704634
0.0002332883097864157,297.4046270073912
0.00024244620170823283,309.96727875599413
0.0002519635929317015,323.060122973166
0.0002618545958474233,336.7054630987317
0.0002721338768375308,350.9265311791732
0.0002828166780230032,365.7475264168318
0.0002939188398646886,381.193655802231
0.0003054568246515432,397.29118740991834
0.00031744774091091926,414.0675179778989
0.00032990936877709396,431.5511964564949
0.00034286018635565856,449.7719147272518
0.00035631939712285854,468.76054518316437
0.000370306958400514,488.54924384275375
0.00038484361094874304,509.17153964387524
0.0003999509097203664,530.6623676548928
0.00041565125582259895,553.0580980212433
0.00043196792973341727,576.3965830863172
0.0004489251258218605,600.7172315588572
0.0004665479882234472,626.0610173066362
0.000484862648123908,652.4705659552785
0.000503896262506515,679.990274731781
0.0005236770544204653,708.6664218377294
0.0005442343548300266,738.5471898933911
0.0005655986461065005,769.6826343870985
0.0005878016072274912,802.1247711427578
0.0006108761607505036,835.9277309304221
0.0006348565216305217,871.1478655059663
0.0006597782479539537,907.8438135542814
0.0006856782936641739,946.0765093177342
0.0007125950633568407,985.9092529353063
0.0007405684692262436,1027.4078733502517
0.0007696399902471156,1070.6408272519477
0.0007998527336796708,1115.679299317456
0.000831251498989063,1162.5972297537664
0.0008638828442740447,1211.4713572302694
0.000897795155303332,1262.3814185996102
0.0009330387172620361,1315.4102211993197
0.0009696657893145519,1370.6437735083548
0.001007730682094461,1428.1713650071667
0.0010472898382363582,1488.0855837496642
0.0010884019160690055,1550.4825384105286
0.0011311278765939214,1615.4618917579094
0.001175531073878369,1683.1269925436725
0.0012216773489967915,1753.584999311193
0.0012696351276599736,1826.946764334139
0.0013194755216767058,1903.3271531008356
0.0013712724343984,1982.8451283143627
0.0014251026703029975,2065.623843553346
0.0014810460488806749,2151.790816909244
0.0015391855229902056,2241.4777143225874
0.001599607301861487,2334.8206746260394
0.0016624009789266115,2431.960299357471
0.0017276596646690358,2533.0415302263336
0.0017954801246878305,2638.2140998498953
0.0018659629231817451,2747.632374658929
0.001939212572065829,2861.4555690949687
0.0020153376859417325,2979.847769763082
0.002094451143151469,3102.9775809985267
0.002176670253153458,3231.018654459622
0.002262116930469025,3364.1492647912187
0.002350917875457286,3502.5523918613417
0.002443204762186487,3646.4159982920983
0.0025391144336803463,3795.932321419203
0.002638789104828933,3951.2984830824275
0.002742376573264949,4112.716207230248
0.0028500304385181063,4280.391617005434
0.0029619103297725525,4454.535476481474
0.0030781821425650787,4635.36159980027
0.003199018284775064,4823.087626610827
0.0033245979322709396,5017.935207542226
0.003455107294592217,5220.1295383775605
0.0035907398910610534,5429.899474458991
0.0037316968377327513,5647.474982558447
0.0038781871456107214,5873.087601085365
0.0040304280305680515,6106.9710600914195
0.00418864523543527,6349.360064946463
0.004353073364731888,6600.490751226825
0.00452395623253805,6860.598026633252
0.004701547224022131,7129.915042993231
0.004886109671160325,7408.673963890666
0.005077917243205399,7697.103145431113
0.005277254352483535,7995.428170379603
0.005484416576121017,8303.86927493641
0.005699711094326071,8622.6393953009
0.005923457145875801,8951.94520703971
0.006155986501483508,9291.980846091485
0.006397643955748424,9642.929751130798
0.0066487878384172625,10004.968023078196
0.0069097905457156435,10378.265670560471
0.007181039092537346,10762.979691704744
0.007462935686310132,11159.224039963012
0.007755898323389004,11567.075144168244
0.00806036140886134,11986.594993047396
0.008376776400682916,12417.846971757808
0.008705612479099857,12860.876174456334
0.009047357242349292,13315.67413588612
0.00940251742967013,13782.174735639106
0.009771619672696168,14260.281317675493
0.010155211276345676,14749.88373235004
0.010553861030365234,15250.842885048634
0.010968160052731372,15762.960384930364
0.011398722666160517,16285.964600878193
0.011846187309026826,16819.53249640912
0.012311217482038896,17363.27674635622
0.012794502732078732,17916.749868242885
0.013296759674662111,18479.440034605464
0.013818733056536317,19050.759819950483
0.014361196859990781,19630.055627782585
0.014924955450518284,20216.595087921352
0.015510844769528393,20809.56861650989
0.016119733573881575,21408.08840178602
0.01675252472408214,22011.169949416875
0.017410156523040152,22617.748226432734
0.018093604107387147,23226.67128354047
0.01880388089340914,23836.699584004375
0.019542040079740527,24446.5145526811
0.02030917620904734,25054.714009473388
0.021106426791015535,25659.818958183045
0.021934973989050584,26260.284175921955
0.02279604637318978,26854.50473573921
0.023690920741826323,27440.816055278316
0.02462092401494623,28017.519579096457
0.02558743520168586,28582.87734583119
0.02659188744512693,29135.144211104314
0.027635770147361564,29672.620100706772
0.028720631177978267,30193.594909757907
0.029848079169243254,30696.365327387986
0.03101978590138095,31179.23754384408
0.03223748878149028,31640.618506412666
0.0335029934197723,32079.251925184362
0.03481817630688963,32493.987756108614
0.03618498759642746,32883.69623153808
0.037605453996581675,33247.27056927766
0.03908168177536263,33583.734814859345
0.04061585988376978,33892.562473424696
0.04221026320156896,34173.41976750797
0.04386725591048496,34425.38030621029
0.0455892949998106,34646.560214535704
0.047378933909631396,34835.283333169486
0.049238826317067365,34991.92342835348
0.05117173007114603,35117.924377724776
0.05318051128214196,35213.918331482084
0.05526814857144601,35278.52942995081
0.057437737488265785,35310.12142524515
0.0596924950997073,35306.499799946156
0.0620357647610427,35265.10580825515
0.06447102107323864,35183.57638361603
0.06700187503509585,35059.90527318099
0.06963207939763882,34892.4829956182
0.0723655342286965,34680.94045559373
0.07520629269592405,34425.51564048796
0.07815856707684081,34127.03088267321
0.08122673500479707,33786.68534082897
0.08441534596012978,33406.03256908803
0.0877291280161335,32987.22421555734
0.09117299484984914,32533.718589482916
0.09475205302806537,32050.095403707262
0.09847160957933764,31541.869273022716
0.1023371798632519,31013.96000099845
0.10635449574860109,30469.51915634909
0.11052951411260206,29909.154299080965
0.1148684256737553,29331.368879818645
0.1193776641714435,28733.959303515167
0.1240639159058831,28114.761736901288
0.12893412965257148,27471.936140118938
0.13399552696593373,26803.962793740957
0.1392556128874462,26111.029711363142
0.14472218707411338,25396.780842492117
0.15040335536380234,24669.35904490585
0.15630754179458153,23936.367518311436
0.16244350109588662,23211.91650966727
0.16882033167003618,22499.804704433045
0.17544748908334581,21791.543840932893
0.1823348000868439,21082.378459236133
0.189492477187382,20367.787618932085
0.19693113379074215,19647.46685395535
0.20466179993919872,18924.2396986101
0.21269593866686892,18203.63018106508
0.22104546299710207,17493.97284297207
0.22972275360711503,16801.172152776024
0.23874067718606454,16124.016807320924
0.2481126055137766,15458.837844143229
0.25785243528842716,14803.125666474209
0.26797460873256895,14156.568161167996
0.27849413500806414,13523.681524778522
0.28942661247167484,12909.067911190241
0.3007882518043098,12313.321366198114
0.31259590004822796,11734.176554734573
0.324867065587837,11169.27095673716
0.3376199441111335,10619.246263630206
0.35087344559027084,10086.983650530097
0.36464722232127456,9574.614199044025
0.37896169806447155,9080.866872206574
0.3938380983288488,8604.108548305527
0.4092984818452433,8144.5391653239185
0.4253657732750382,7703.639509737458
0.44206379720285277,7281.166737329398
0.45941731346364734,6875.329822725151
0.47745205385661277,6486.089187769472
0.4961947603002895,6114.639049105242
0.5156732244854959,5760.364635242974
0.5359163290848509,5421.73591372837
0.556954090580013,5099.067891417792
0.5788177037701272,4792.428116585625
0.6015395880274836,4500.459592235593
0.6251534353689703,4223.258114829733
0.6496942604146115,3960.7467385113255
0.6751984523072497,3711.521550588949
0.7017038286703824,3475.735051754602
0.7292496916841444,3252.741230357635
0.7578768863625915,3041.8550003380624
0.7876278611187046,2843.030674642929
0.8185467307069019,2655.2392723323387
0.850679341636415,2478.542784011325
0.8840733401525058,2312.1701592053646
0.9187782428863317,2155.597401245518
0.9548455102782278,2008.3933293264552
0.9923286228832539,1870.1305313494736
1.0312831606721837,1740.3871736202038
1.0717668854455022,1618.747891499197
1.1138398264826193,1504.7961061540464
1.1575643695533022,1398.1206977851318
1.2030053494233226,1298.3256477719654
1.2502301459914542,1205.030320874532
1.299308784200415,1117.8694348729957
1.3503140378698726,1036.4932411910115
1.4033215376054824,960.5683854399871
1.4584098829439835,889.7763690612607
1.5156607589006013,823.8128327559792
1.575159057091621,762.3873604859948
1.6369930016117014,705.2232356822002
1.7012542798525885,652.0567620519209
1.7680381784572046,602.6366710769922
1.8374437246107238,556.7247035756518
1.9095738328780953,514.095304842364
1.9845354578058014,474.535177641803
2.0624397525140905,437.84282049412406
2.143402233514853,403.82793369438315
2.227542951999554,372.3110232946941
2.314986671851158,343.12309582979185
2.405863054644063,316.10519383521614
2.5003068519063225,291.10793222813066
2.598458104929248,267.9910254264249
2.7004623524206774,246.62275540123804
2.806470846309834,226.87964068371372
2.916640776023701,208.64606156547708
3.031135501567576,191.8138414677461
3.150124795755327,176.28184261113503
3.2737850959485697,161.95554703420657
3.4022997656780634,148.74664949331486
3.5358593665351745,136.57278082977845
3.6746619407366854,125.3571717391446
3.8189133047818515,115.02831744261863
3.968827354637162,105.51965698231335
4.1246263829013445,96.76923952827998
4.286541408420921,88.71944421173258
4.4548125188449825,81.31674542436853
4.629689226627261,74.51145091059836
4.811430839003257,68.25745202187686
5.000306842491082,62.51198204674741
5.196597302486189,57.23535639465888
5.400593278542364,52.390802218395265
5.612597255954967,47.944285206461394
5.8329235942862,43.86431971486632
6.06189899349756,40.121790592366416
6.29986297838068,36.68980843854497
6.547168402004727,33.54358969857722
6.804181968927091,30.660235518296478
7.071284778942991,28.018584660049644
7.348872892180382,25.59909184901852
7.637357916378006,23.38371065321645
7.937167617217536,21.355670885482596
8.248746552614573,19.49938885086716
8.572556731909314,17.80055713785491
8.909078300934132,16.24605169670726
9.258810253973934,14.823833595624933
9.622271173675122,13.522895679106139
9.999999999999984,12.33349143216028
