k [1/Mpc],P(k) [Mpc^3]
0.0001,603.1665196219358
0.00010392556829367125,623.2181225136021
0.00010800523745162529,643.9349901668022
0.00011224505680853065,665.3390437373711
0.00011665131316981963,687.452921314748
0.00012123054013376525,710.2999947799634
0.00012598952777950273,733.904363367947
0.00013093533273536104,758.2908882347681
0.00013607528864243335,783.4852244468643
0.00014141701702890234,809.5138308557214
0.00014696843861124463,836.4040109750287
0.00015273778503907136,864.1839273049195
0.00015873361110102093,892.8826274640365
0.00016496480740980205,922.5300756706741
0.0001714406135851971,953.157145959125
0.00017817063195457305,984.7956751614887
0.00018516484179121546,1017.4784784864779
0.000192433614111598,1051.2393618471128
0.00019998772705352857,1086.1131722817624
0.0002078383818579757,1122.1357338048408
0.00021599721947827182,1159.3439150176605
0.0002244763378413224,1197.7757222961327
0.0002332883097864157,1237.470352632067
0.00024244620170823283,1278.468194595387
0.0002519635929317015,1320.8106749034027
0.0002618545958474233,1364.5402850779546
0.0002721338768375308,1409.7007606867724
0.0002828166780230032,1456.3371238873096
0.0002939188398646886,1504.4957095867073
0.0003054568246515432,1554.2240493965508
0.00031744774091091926,1605.570807807481
0.00032990936877709396,1658.5859757052606
0.00034286018635565856,1713.3207721845981
0.00035631939712285854,1769.8277306163886
0.000370306958400514,1828.1607389347894
0.00038484361094874304,1888.3749614315889
0.0003999509097203664,1950.5269665868968
0.00041565125582259895,2014.6745233087693
0.00043196792973341727,2080.8766223500497
0.0004489251258218605,2149.193638085449
0.0004665479882234472,2219.687138748625
0.000484862648123908,2292.420053946391
0.000503896262506515,2367.456477309482
0.0005236770544204653,2444.8615061338273
0.0005442343548300266,2524.7015624484525
0.0005655986461065005,2607.0442587278712
0.0005878016072274912,2691.958466212276
0.0006108761607505036,2779.514108843994
0.0006348565216305217,2869.781681831302
0.0006597782479539537,2962.832735107864
0.0006856782936641739,3058.7394923789825
0.0007125950633568407,3157.5748316893787
0.0007405684692262436,3259.412437327052
0.0007696399902471156,3364.3261605745683
0.0007998527336796708,3472.3904077805983
0.000831251498989063,3583.679544994562
0.0008638828442740447,3698.267414176428
0.000897795155303332,3816.227977436936
0.0009330387172620361,3937.6343220219915
0.0009696657893145519,4062.558972926364
0.001007730682094461,4191.073557025671
0.0010472898382363582,4323.247576858848
0.0010884019160690055,4459.14943874013
0.0011311278765939214,4598.845314495742
0.001175531073878369,4742.399014933002
0.0012216773489967915,4889.872285473557
0.0012696351276599736,5041.323160216257
0.0013194755216767058,5196.806817490976
0.0013712724343984,5356.374373353227
0.0014251026703029975,5520.071871627454
0.0014810460488806749,5687.941325233692
0.0015391855229902056,5860.018396036944
0.001599607301861487,6036.333036894214
0.0016624009789266115,6216.909359425616
0.0017276596646690358,6401.76405161397
0.0017954801246878305,6590.907286498359
0.0018659629231817451,6784.340148421507
0.001939212572065829,6982.054402523693
0.0020153376859417325,7184.033091047632
0.002094451143151469,7390.247498297471
0.002176670253153458,7600.658733384728
0.002262116930469025,7815.215806154989
0.002350917875457286,8033.854063562588
0.002443204762186487,8256.496713907029
0.0025391144336803463,8483.050618601628
0.002638789104828933,8713.40768169109
0.002742376573264949,8947.444355485399
0.0028500304385181063,9185.018515746506
0.0029619103297725525,9425.971868199322
0.0030781821425650787,9670.124191034924
0.003199018284775064,9917.27355327561
0.0033245979322709396,10167.19885722053
0.003455107294592217,10419.655188464503
0.0035907398910610534,10674.376748173183
0.0037316968377327513,10931.06300226667
0.0038781871456107214,11189.372062900024
0.0040304280305680515,11448.942830850005
0.00418864523543527,11709.431325638598
0.004353073364731888,11970.49214621786
0.00452395623253805,12231.69949425536
0.004701547224022131,12492.463476233967
0.004886109671160325,12752.147600126618
0.005077917243205399,13010.180937346226
0.005277254352483535,13266.044077458553
0.005484416576121017,13519.163860306415
0.005699711094326071,13768.799918306322
0.005923457145875801,14014.147466764496
0.006155986501483508,14254.421906058742
0.006397643955748424,14488.878812235296
0.0066487878384172625,14716.743840140869
0.0069097905457156435,14937.105039426013
0.007181039092537346,15148.97754925689
0.007462935686310132,15351.332248333401
0.007755898323389004,15543.068834834676
0.00806036140886134,15723.064521195953
0.008376776400682916,15890.137565589626
0.008705612479099857,16043.066166107223
0.009047357242349292,16180.610103896683
0.00940251742967013,16301.451582765403
0.009771619672696168,16404.271341785276
0.010155211276345676,16487.69736264181
0.010553861030365234,16550.29554368163
0.010968160052731372,16590.665247979992
0.011398722666160517,16607.35079369291
0.011846187309026826,16598.933824472566
0.012311217482038896,16564.03587019518
0.012794502732078732,16501.261991707706
0.013296759674662111,16409.347284652245
0.013818733056536317,16287.07061002705
0.014361196859990781,16133.324244820249
0.014924955450518284,15947.198043306737
0.015510844769528393,15727.894799152884
0.016119733573881575,15474.88563724252
0.01675252472408214,15187.897839429128
0.017410156523040152,14866.929526641092
0.018093604107387147,14512.36077787387
0.01880388089340914,14124.956822261258
0.019542040079740527,13705.892612806805
0.02030917620904734,13256.828083828355
0.021106426791015535,12779.954275623782
0.021934973989050584,12277.872884873397
0.02279604637318978,11753.867162323037
0.023690920741826323,11211.685787416453
0.02462092401494623,10655.43025536036
0.02558743520168586,10089.951741089953
0.02659188744512693,9520.100490337827
0.027635770147361564,8951.329993165022
0.028720631177978267,8389.512876769497
0.029848079169243254,7839.925186994081
0.03101978590138095,7308.086138126311
0.03223748878149028,6798.765832929697
0.0335029934197723,6316.539131847632
0.03481817630688963,5866.473963479292
0.03618498759642746,5452.27518539358
0.037605453996581675,5077.248700147065
0.03908168177536263,4743.721712136401
0.04061585988376978,4452.144717047668
0.04221026320156896,4201.70533810903
0.04386725591048496,3990.6828618446284
0.0455892949998106,3816.660118936421
0.047378933909631396,3676.285052281796
0.049238826317067365,3565.3846058094505
0.05117173007114603,3478.4952966120327
0.05318051128214196,3409.2428236186124
0.05526814857144601,3349.7996531835956
0.057437737488265785,3290.541851415506
0.0596924950997073,3220.472101795367
0.0620357647610427,3129.8210499581664
0.06447102107323864,3011.125607219123
0.06700187503509585,2860.275546345296
0.06963207939763882,2677.394004860805
0.0723655342286965,2466.903696916523
0.07520629269592405,2237.1018233774407
0.07815856707684081,1999.4872418890807
0.08122673500479707,1767.8785859381157
0.08441534596012978,1556.3559382126866
0.0877291280161335,1376.6916485426586
0.09117299484984914,1236.466666651377
0.09475205302806537,1138.1984291894134
0.09847160957933764,1079.4407835731308
0.1023371798632519,1053.20651806544
0.10635449574860109,1048.2392156660562
0.11052951411260206,1049.6968892327707
0.1148684256737553,1041.1103724485283
0.1193776641714435,1007.7888461839144
0.1240639159058831,941.5057700397866
0.12893412965257148,845.2914881730154
0.13399552696593373,734.1081186057705
0.1392556128874462,628.2530386525005
0.14472218707411338,544.4710523984332
0.15040335536380234,491.4501617567717
0.15630754179458153,468.8477244569884
0.16244350109588662,466.9861810441731
0.16882033167003618,469.1991757348849
0.17544748908334581,457.63419572578505
0.1823348000868439,422.26258385011437
0.189492477187382,368.54926726929875
0.19693113379074215,313.6114549476071
0.20466179993919872,273.96697145331984
0.21269593866686892,255.78887337782598
0.22104546299710207,252.395666684433
0.22972275360711503,249.1353995625633
0.23874067718606454,232.99341299557486
0.2481126055137766,204.283536285101
0.25785243528842716,175.87721328834368
0.26797460873256895,159.00508311667315
0.27849413500806414,153.25240424529463
0.28942661247167484,148.42502925023612
0.3007882518043098,135.86488153893734
0.31259590004822796,118.6928559143807
0.324867065587837,106.15623253398637
0.3376199441111335,100.47093055230218
0.35087344559027084,95.25540597394443
0.36464722232127456,85.8748493725549
0.37896169806447155,76.24625607548728
0.3938380983288488,70.5467287001464
0.4092984818452433,66.17931321467348
0.4253657732750382,59.90323275575739
0.44206379720285277,53.8906069785416
0.45941731346364734,49.92577406704829
0.47745205385661277,45.91593639562819
0.4961947603002895,41.42082256340009
0.5156732244854959,37.96343175587207
0.5359163290848509,34.827605472682265
0.556954090580013,31.654456428321232
0.5788177037701272,28.903133599582993
0.6015395880274836,26.424085600428047
0.6251534353689703,24.11862658583998
0.6496942604146115,21.97991318222107
0.6751984523072497,20.008293815313632
0.7017038286703824,18.200977630137412
0.7292496916841444,16.55273808392314
0.7578768863625915,15.056060750251957
0.7876278611187046,13.69771405437676
0.8185467307069019,12.462948543824867
0.850679341636415,11.338850582656635
0.8840733401525058,10.314123877666074
0.9187782428863317,9.378866779257706
0.9548455102782278,8.524803211513884
0.9923286228832539,7.745451658850931
1.0312831606721837,7.034890442562625
1.0717668854455022,6.387574075693224
1.1138398264826193,5.798322899450089
1.1575643695533022,5.262297192449441
1.2030053494233226,4.774857023105178
1.2502301459914542,4.331659615836625
1.299308784200415,3.9287464551408204
1.3503140378698726,3.5625108099874536
1.4033215376054824,3.229666439591974
1.4584098829439835,2.927229127866522
1.5156607589006013,2.6525004330631092
1.575159057091621,2.4030159350991407
1.6369930016117014,2.1765218106835094
1.7012542798525885,1.9709577991230294
1.7680381784572046,1.7844411430937495
1.8374437246107238,1.615248884505773
1.9095738328780953,1.461807004646266
1.9845354578058014,1.3226807354281107
2.0624397525140905,1.1965626770685496
2.143402233514853,1.0822618375421236
2.227542951999554,0.9786936904257243
2.314986671851158,0.8848710872954126
2.405863054644063,0.7998954750471645
2.5003068519063225,0.7229491297482794
2.598458104929248,0.6532881016738872
2.7004623524206774,0.5902357457609405
2.806470846309834,0.5331767132848729
2.916640776023701,0.4815516081734786
3.031135501567576,0.43485211998811674
3.150124795755327,0.3926164812369496
3.2737850959485697,0.35442531391262266
3.4022997656780634,0.3198978096371264
3.5358593665351745,0.2886882291673981
3.6746619407366854,0.2604828237338292
3.8189133047818515,0.2349969569769008
3.968827354637162,0.21197246339962514
4.1246263829013445,0.1911752404662215
4.286541408420921,0.17239305758683288
4.4548125188449825,0.15543355378885246
4.629689226627261,0.14012241252211893
4.811430839003257,0.1263017036392149
5.000306842491082,0.11382837410544668
5.196597302486189,0.10257285603107198
5.400593278542364,0.09241778679467931
5.612597255954967,0.08325693774431975
5.8329235942862,0.07499418836416695
6.06189899349756,0.06754257996220397
6.29986297838068,0.060823459492190896
6.547168402004727,0.05476574911928136
6.804181968927091,0.04930520622315102
7.071284778942991,0.044383726525541636
7.348872892180382,0.039948767809657316
7.637357916378006,0.03595282812444277
7.937167617217536,0.032352923921401225
8.248746552614573,0.029110067798518508
8.572556731909314,0.026189062307816202
8.909078300934132,0.02355817162964186
9.258810253973934,0.021188780574976772
9.622271173675122,0.01905510021825015
9.999999999999984,0.017134124705370724
