k [1/Mpc],P(k) [Mpc^3]
0.0001,116.58876533739867
0.00010392556829367125,121.16510632940287
0.00010800523745162529,125.921044314237
0.00011224505680853065,130.86361396228543
0.00011665131316981963,136.0001318166701
0.00012123054013376525,141.33821106175228
0.00012598952777950273,146.88576319874264
0.00013093533273536104,152.65099804729218
0.00013607528864243335,158.64244053312177
0.00014141701702890234,164.86895268234932
0.00014696843861124463,171.33975333117849
0.00015273778503907136,178.0644237551511
0.00015873361110102093,185.0529141695629
0.00016496480740980205,192.3155587648582
0.0001714406135851971,199.8630946362132
0.00017817063195457305,207.70667544195882
0.00018516484179121546,215.8578894480869
0.000192433614111598,224.32878167456354
0.00019998772705352857,233.13187365694978
0.0002078383818579757,242.28017430138453
0.00021599721947827182,251.78718200896907
0.0002244763378413224,261.6669120198746
0.0002332883097864157,271.9339315243493
0.00024244620170823283,282.60339113000094
0.0002519635929317015,293.6910331412605
0.0002618545958474233,305.2131948494597
0.0002721338768375308,317.1868342413486
0.0002828166780230032,329.6295677083143
0.0002939188398646886,342.5597004816321
0.0003054568246515432,355.99624872695665
0.00031744774091091926,369.95896024004196
0.00032990936877709396,384.46834069477404
0.00034286018635565856,399.5456833060417
0.00035631939712285854,415.21307127436114
0.000370306958400514,431.4934231444467
0.00038484361094874304,448.41054954828974
0.0003999509097203664,465.9892023762885
0.00041565125582259895,484.25508609606453
0.00043196792973341727,503.2348539899869
0.0004489251258218605,522.9561515506706
0.0004665479882234472,543.4476713787911
0.000484862648123908,564.7391767955725
0.000503896262506515,586.8615553950463
0.0005236770544204653,609.846858266842
0.0005442343548300266,633.7283411222849
0.0005655986461065005,658.5405089602186
0.0005878016072274912,684.3191320092562
0.0006108761607505036,711.1013090944797
0.0006348565216305217,738.9254992457994
0.0006597782479539537,767.83154203464
0.0006856782936641739,797.8607465087902
0.0007125950633568407,829.0559293312061
0.0007405684692262436,861.4614725985923
0.0007696399902471156,895.1233692758094
0.0007998527336796708,930.0892306890972
0.000831251498989063,966.4083857482397
0.0008638828442740447,1004.1318991118195
0.000897795155303332,1043.3126199186086
0.0009330387172620361,1084.00527246718
0.0009696657893145519,1126.2664389136473
0.001007730682094461,1170.1546700938663
0.0010472898382363582,1215.7305243073167
0.0010884019160690055,1263.0565828140618
0.0011311278765939214,1312.1975737702792
0.001175531073878369,1363.2203047716503
0.0012216773489967915,1416.193768488116
0.0012696351276599736,1471.1892267542012
0.0013194755216767058,1528.2801483945684
0.0013712724343984,1587.54238732447
0.0014251026703029975,1649.0540636722483
0.0014810460488806749,1712.8955976154693
0.0015391855229902056,1779.1498994115414
0.001599607301861487,1847.9022089294742
0.0016624009789266115,1919.2402958542298
0.0017276596646690358,1993.2543524201512
0.0017954801246878305,2070.0368570683963
0.0018659629231817451,2149.6828897595306
0.001939212572065829,2232.289865744024
0.0020153376859417325,2317.95768737158
0.002094451143151469,2406.7887550046325
0.002176670253153458,2498.8876110204446
0.002262116930469025,2594.361321064242
0.002350917875457286,2693.3190549825044
0.002443204762186487,2795.872055905278
0.0025391144336803463,2902.1338777755423
0.002638789104828933,3012.2197078389363
0.002742376573264949,3126.246791460428
0.0028500304385181063,3244.3341390882215
0.0029619103297725525,3366.602158871192
0.0030781821425650787,3493.1730122817635
0.003199018284775064,3624.169446319412
0.0033245979322709396,3759.7151212482777
0.003455107294592217,3899.9345705744768
0.0035907398910610534,4044.9522464756164
0.0037316968377327513,4194.893143666116
0.0038781871456107214,4349.881362061278
0.0040304280305680515,4510.039893527772
0.00418864523543527,4675.490991888389
0.004353073364731888,4846.354263952586
0.00452395623253805,5022.747549437976
0.004701547224022131,5204.785475654755
0.004886109671160325,5392.57817988407
0.005077917243205399,5586.232333442083
0.005277254352483535,5785.847843045665
0.005484416576121017,5991.51865003682
0.005699711094326071,6203.331926511363
0.005923457145875801,6421.364977879813
0.006155986501483508,6645.687153018982
0.006397643955748424,6876.354280077982
0.0066487878384172625,7113.408309725473
0.0069097905457156435,7356.880077106879
0.007181039092537346,7606.787511948581
0.007462935686310132,7863.13524300634
0.007755898323389004,8125.89931937934
0.00806036140886134,8395.019519687372
0.008376776400682916,8670.414313022588
0.008705612479099857,8951.981131292028
0.009047357242349292,9239.595063336426
0.00940251742967013,9533.10341351629
0.009771619672696168,9832.319031687748
0.010155211276345676,10137.024424431978
0.010553861030365234,10446.949694015755
0.010968160052731372,10761.774564881689
0.011398722666160517,11081.136351771516
0.011846187309026826,11404.611765723199
0.012311217482038896,11731.730199605216
0.012794502732078732,12061.959587817551
0.013296759674662111,12394.699504369064
0.013818733056536317,12729.294559686556
0.014361196859990781,13065.005870226953
0.014924955450518284,13401.02748080039
0.015510844769528393,13736.47809679959
0.016119733573881575,14070.37787001298
0.01675252472408214,14401.680873848056
0.017410156523040152,14729.244306602233
0.018093604107387147,15051.84020463296
0.01880388089340914,15368.168286406995
0.019542040079740527,15676.820229666751
0.02030917620904734,15976.32324416752
0.021106426791015535,16265.12523133932
0.021934973989050584,16541.595975877848
0.02279604637318978,16804.06197539475
0.023690920741826323,17050.77547656758
0.02462092401494623,17279.956046109648
0.02558743520168586,17489.840494090113
0.02659188744512693,17678.714142315242
0.027635770147361564,17844.887740661412
0.028720631177978267,17986.59648214182
0.029848079169243254,18102.059702793646
0.03101978590138095,18189.838088085446
0.03223748878149028,18249.424102319572
0.0335029934197723,18280.57059310988
0.03481817630688963,18282.387503835955
0.03618498759642746,18253.31807380935
0.037605453996581675,18192.179006159837
0.03908168177536263,18099.351648129836
0.04061585988376978,17975.86393515584
0.04221026320156896,17823.450833577223
0.04386725591048496,17644.909720668944
0.0455892949998106,17443.109012063338
0.047378933909631396,17220.308401399474
0.049238826317067365,16978.42346648391
0.05117173007114603,16720.115267538942
0.05318051128214196,16449.506684727057
0.05526814857144601,16170.767665421952
0.057437737488265785,15888.040494521594
0.0596924950997073,15605.221497690192
0.0620357647610427,15325.688322491455
0.06447102107323864,15052.28866377908
0.06700187503509585,14786.761932596886
0.06963207939763882,14530.017291912247
0.0723655342286965,14281.76776123408
0.07520629269592405,14040.539880099783
0.07815856707684081,13803.632520636998
0.08122673500479707,13567.035474127411
0.08441534596012978,13325.631535854094
0.0877291280161335,13073.311733755989
0.09117299484984914,12803.399779000858
0.09475205302806537,12509.4167960743
0.09847160957933764,12186.160763867121
0.1023371798632519,11830.530361323456
0.10635449574860109,11442.773331374601
0.11052951411260206,11026.736538581044
0.1148684256737553,10589.857855995868
0.1193776641714435,10142.770990786003
0.1240639159058831,9698.410111596857
0.12893412965257148,9270.674371274501
0.13399552696593373,8872.652777019139
0.1392556128874462,8514.33652353452
0.14472218707411338,8200.19725792896
0.15040335536380234,7927.655903469603
0.15630754179458153,7686.279675505203
0.16244350109588662,7461.392721240747
0.16882033167003618,7234.166355930323
0.17544748908334581,6983.936174223355
0.1823348000868439,6697.889093109404
0.189492477187382,6374.043626978952
0.19693113379074215,6023.63616916467
0.20466179993919872,5669.071959101505
0.21269593866686892,5337.602121936948
0.22104546299710207,5051.438068677528
0.22972275360711503,4818.421581521185
0.23874067718606454,4628.479658272205
0.2481126055137766,4457.063661845734
0.25785243528842716,4274.05636673112
0.26797460873256895,4058.5655767507933
0.27849413500806414,3812.0353766236494
0.28942661247167484,3557.8601114006674
0.3007882518043098,3327.7344349213026
0.31259590004822796,3142.112234468791
0.324867065587837,2996.0721304142617
0.3376199441111335,2862.368402922646
0.35087344559027084,2711.4689828653727
0.36464722232127456,2536.2226298911287
0.37896169806447155,2357.597999126552
0.3938380983288488,2204.326007535472
0.4092984818452433,2084.354067735882
0.4253657732750382,1977.3278368202677
0.44206379720285277,1858.2296344978738
0.45941731346364734,1727.1450502758546
0.47745205385661277,1607.172055412388
0.4961947603002895,1511.0724138335338
0.5156732244854959,1424.1595234293488
0.5359163290848509,1328.9850210367572
0.556954090580013,1232.9793906055252
0.5788177037701272,1151.8000183588742
0.6015395880274836,1080.4808965498444
0.6251534353689703,1006.2010973911421
0.6496942604146115,933.6657731935455
0.6751984523072497,871.1727874208409
0.7017038286703824,812.460804397348
0.7292496916841444,753.5468718770361
0.7578768863625915,700.5245261718983
0.7876278611187046,651.9449915999237
0.8185467307069019,604.2611228479742
0.850679341636415,560.85018196189
0.8840733401525058,520.4223952121639
0.9187782428863317,482.48628477478775
0.9548455102782278,446.9736183746599
0.9923286228832539,413.8040823774507
1.0312831606721837,382.8879094587014
1.0717668854455022,354.1248557937002
1.1138398264826193,327.3862479654456
1.1575643695533022,302.5379442248899
1.2030053494233226,279.45424537546046
1.2502301459914542,258.0174374979446
1.299308784200415,238.11729200025295
1.3503140378698726,219.65153666755435
1.4033215376054824,202.52695202103803
1.4584098829439835,186.6558884912404
1.5156607589006013,171.95542011611295
1.575159057091621,158.3471923805644
1.6369930016117014,145.75725678111172
1.7012542798525885,134.11561280423496
1.7680381784572046,123.35604694907266
1.8374437246107238,113.41644118334986
1.9095738328780953,104.23859970946468
1.9845354578058014,95.7680437482029
2.0624397525140905,87.9538171362355
2.143402233514853,80.74833386403252
2.227542951999554,74.10716159936298
2.314986671851158,67.9888122020392
2.405863054644063,62.35457537041728
2.5003068519063225,57.16835938148708
2.598458104929248,52.396527152886556
2.7004623524206774,48.00771752985635
2.806470846309834,43.97275566030492
2.916640776023701,40.264532607340904
3.031135501567576,36.85787424216657
3.150124795755327,33.72941697739465
3.2737850959485697,30.85748696808672
3.4022997656780634,28.221987433438795
3.5358593665351745,25.804300691781968
3.6746619407366854,23.587189366722257
3.8189133047818515,21.554702514157793
3.968827354637162,19.692087124159183
4.1246263829013445,17.98570198552189
4.286541408420921,16.422941499974293
4.4548125188449825,14.992166033089356
4.629689226627261,13.682633095838101
4.811430839003257,12.484432815739181
5.000306842491082,11.388426010055712
5.196597302486189,10.386180172101929
5.400593278542364,9.469926251420267
5.612597255954967,8.632513688518198
5.8329235942862,7.8673636622100505
6.06189899349756,7.168425627001868
6.29986297838068,6.530141470099065
6.547168402004727,5.947413450069949
6.804181968927091,5.415555853435819
7.071284778942991,4.930261439394969
7.348872892180382,4.487572671964046
7.637357916378006,4.083854329234396
7.937167617217536,3.7157490290901807
8.248746552614573,3.3801584898426476
8.572556731909314,3.0742508554643626
8.909078300934132,2.795439356662203
9.258810253973934,2.5413610473962325
9.622271173675122,2.3098636822411627
9.999999999999984,2.099037410631745
