k [1/Mpc],P(k) [Mpc^3]
0.0001,2411.598568271813
0.00010392556829367125,2491.802279838959
0.00010800523745162529,2574.6708840670904
0.00011224505680853065,2660.292603256694
0.00011665131316981963,2748.7585510801587
0.00012123054013376525,2840.1627995628482
0.00012598952777950273,2934.6024962942793
0.00013093533273536104,3032.1779656935746
0.00013607528864243335,3132.9928052598166
0.00014141701702890234,3237.1540011032
0.00014696843861124463,3344.7720156280748
0.00015273778503907136,3455.960908663193
0.00015873361110102093,3570.8384405084807
0.00016496480740980205,3689.5261450724242
0.0001714406135851971,3812.1494920895793
0.00017817063195457305,3938.837850055673
0.00018516484179121546,4069.7246093518193
0.000192433614111598,4204.947477064559
0.00019998772705352857,4344.648713332926
0.0002078383818579757,4488.975197187479
0.00021599721947827182,4638.078291364961
0.0002244763378413224,4792.113836414596
0.0002332883097864157,4951.24261062922
0.00024244620170823283,5115.630611752539
0.0002519635929317015,5285.4491689556935
0.0002618545958474233,5460.874816417076
0.0002721338768375308,5642.089080849097
0.0002828166780230032,5829.279068268569
0.0002939188398646886,6022.63769798261
0.0003054568246515432,6222.363873230719
0.00031744774091091926,6428.6624752397765
0.00032990936877709396,6641.7439082557885
0.00034286018635565856,6861.824761813779
0.00035631939712285854,7089.128218706231
0.000370306958400514,7323.8842576411
0.00038484361094874304,7566.329611937731
0.0003999509097203664,7816.706790287669
0.00041565125582259895,8075.264807225641
0.00043196792973341727,8342.259901638276
0.0004489251258218605,8617.955740420448
0.0004665479882234472,8902.623489248632
0.000484862648123908,9196.540856371757
0.000503896262506515,9499.99241025053
0.0005236770544204653,9813.270350517803
0.0005442343548300266,10136.674153792515
0.0005655986461065005,10470.511155299864
0.0005878016072274912,10815.095971153805
0.0006108761607505036,11170.750322564321
0.0006348565216305217,11537.803892070286
0.0006597782479539537,11916.59331022168
0.0006856782936641739,12307.462913567877
0.0007125950633568407,12710.764653628497
0.0007405684692262436,13126.857369988633
0.0007696399902471156,13556.10780286075
0.0007998527336796708,13998.888711813299
0.000831251498989063,14455.579340746563
0.0008638828442740447,14926.565940282522
0.000897795155303332,15412.239567080695
0.0009330387172620361,15912.997962017223
0.0009696657893145519,16429.244086585735
0.001007730682094461,16961.385520415333
0.0010472898382363582,17509.835403024266
0.0010884019160690055,18075.007888503085
0.0011311278765939214,18657.32055601524
0.001175531073878369,19257.193545626003
0.0012216773489967915,19875.04692919951
0.0012696351276599736,20511.30319882325
0.0013194755216767058,21166.381228240018
0.0013712724343984,21840.697407850592
0.0014251026703029975,22534.66705916333
0.0014810460488806749,23248.700134808252
0.0015391855229902056,23983.20378557782
0.001599607301861487,24738.575005198367
0.0016624009789266115,25515.1985779975
0.0017276596646690358,26313.451609109834
0.0017954801246878305,27133.696781983635
0.0018659629231817451,27976.285051589948
0.001939212572065829,28841.549889934042
0.0020153376859417325,29729.800449206214
0.002094451143151469,30641.328415629952
0.002176670253153458,31576.399618307983
0.002262116930469025,32535.25505720328
0.002350917875457286,33518.10863142381
0.002443204762186487,34525.13566457107
0.0025391144336803463,35556.4804489535
0.002638789104828933,36612.24537654057
0.002742376573264949,37692.48810905598
0.0028500304385181063,38797.22548193271
0.0029619103297725525,39926.418503866546
0.0030781821425650787,41079.97891812997
0.003199018284775064,42257.75581723004
0.0033245979322709396,43459.522872924375
0.003455107294592217,44684.99275042649
0.0035907398910610534,45933.79764094994
0.0037316968377327513,47205.49399522775
0.0038781871456107214,48499.55527667251
0.0040304280305680515,49815.345425891916
0.00418864523543527,51152.14150308752
0.004353073364731888,52509.113093609645
0.00452395623253805,53885.320302788656
0.004701547224022131,55279.710972154266
0.004886109671160325,56691.05341538297
0.005077917243205399,58117.98547623895
0.005277254352483535,59559.06261887903
0.005484416576121017,61012.77137535815
0.005699711094326071,62477.44979682917
0.005923457145875801,63950.984344059565
0.006155986501483508,65430.95414785834
0.006397643955748424,66914.82677395332
0.0066487878384172625,68400.0312186777
0.0069097905457156435,69883.86695186517
0.007181039092537346,71363.47265267106
0.007462935686310132,72835.831656923
0.007755898323389004,74297.71143120129
0.00806036140886134,75745.42728677255
0.008376776400682916,77175.05694794287
0.008705612479099857,78582.41376372603
0.009047357242349292,79963.01783172997
0.00940251742967013,81312.20651580005
0.009771619672696168,82625.00149989761
0.010155211276345676,83896.21663998174
0.010553861030365234,85120.45401983762
0.010968160052731372,86292.01322935389
0.011398722666160517,87405.06630448466
0.011846187309026826,88453.44761301625
0.012311217482038896,89430.75575431246
0.012794502732078732,90330.51453175863
0.013296759674662111,91146.03739877223
0.013818733056536317,91870.65401699499
0.014361196859990781,92497.62952500378
0.014924955450518284,93020.18474468502
0.015510844769528393,93431.74169047801
0.016119733573881575,93725.87629683722
0.01675252472408214,93896.47564686077
0.017410156523040152,93937.86268556536
0.018093604107387147,93844.86524151868
0.01880388089340914,93612.92134971246
0.019542040079740527,93238.4542759572
0.02030917620904734,92718.81299304732
0.021106426791015535,92052.33960260364
0.021934973989050584,91238.90719150013
0.02279604637318978,90279.40143619485
0.023690920741826323,89176.95322743763
0.02462092401494623,87936.92981439501
0.02558743520168586,86565.55462289562
0.02659188744512693,85070.44798556743
0.027635770147361564,83460.02680885907
0.028720631177978267,81747.66919749191
0.029848079169243254,79954.42815310713
0.03101978590138095,78100.42991668389
0.03223748878149028,76197.44299393559
0.0335029934197723,74252.55457596853
0.03481817630688963,72277.5315298335
0.03618498759642746,70297.28608390082
0.037605453996581675,68336.81320394843
0.03908168177536263,66417.20680618579
0.04061585988376978,64555.98532588284
0.04221026320156896,62767.06727592266
0.04386725591048496,61057.37731219896
0.0455892949998106,59430.70613691751
0.047378933909631396,57882.145077161455
0.049238826317067365,56402.70980294434
0.05117173007114603,54977.83137941501
0.05318051128214196,53589.876293978756
0.05526814857144601,52217.09816904839
0.057437737488265785,50835.824482453325
0.0596924950997073,49419.13560977337
0.0620357647610427,47939.69044912183
0.06447102107323864,46370.677202506486
0.06700187503509585,44691.38828227056
0.06963207939763882,42891.99642756423
0.0723655342286965,40978.74911908761
0.07520629269592405,38976.083774908366
0.07815856707684081,36926.385088163974
0.08122673500479707,34884.902924020585
0.08441534596012978,32908.6988197404
0.0877291280161335,31045.385555754536
0.09117299484984914,29335.62701964993
0.09475205302806537,27812.62577653214
0.09847160957933764,26489.125415780145
0.1023371798632519,25350.102038048237
0.10635449574860109,24351.097391982188
0.11052951411260206,23424.436274355896
0.1148684256737553,22493.87105493622
0.1193776641714435,21492.59285728743
0.1240639159058831,20380.822424587364
0.12893412965257148,19159.80119152106
0.13399552696593373,17874.752844780698
0.1392556128874462,16601.907048633886
0.14472218707411338,15425.647690125848
0.15040335536380234,14412.962578105395
0.15630754179458153,13586.188864044014
0.16244350109588662,12907.725244339563
0.16882033167003618,12298.690399158666
0.17544748908334581,11676.142655715514
0.1823348000868439,10982.096804902083
0.189492477187382,10212.939638369944
0.19693113379074215,9430.068325566786
0.20466179993919872,8716.537947744664
0.21269593866686892,8124.872628206321
0.22104546299710207,7647.7458735650725
0.22972275360711503,7220.66616358594
0.23874067718606454,6773.479828138805
0.2481126055137766,6283.933776718563
0.25785243528842716,5792.189253609209
0.26797460873256895,5355.405168666365
0.27849413500806414,4994.85202692578
0.28942661247167484,4677.883502564747
0.3007882518043098,4355.781041574041
0.31259590004822796,4021.608271360298
0.324867065587837,3708.7281288977465
0.3376199441111335,3439.9094885440113
0.35087344559027084,3200.2243369909193
0.36464722232127456,2963.366610334767
0.37896169806447155,2730.8053482207993
0.3938380983288488,2521.6376772121303
0.4092984818452433,2334.9650883422933
0.4253657732750382,2156.9553188015075
0.44206379720285277,1986.434267166849
0.45941731346364734,1832.0372246981447
0.47745205385661277,1690.3864001231066
0.4961947603002895,1556.3250817173248
0.5156732244854959,1432.267992893795
0.5359163290848509,1318.7647912572975
0.556954090580013,1212.731220115975
0.5788177037701272,1114.6612877841567
0.6015395880274836,1024.4861468282916
0.6251534353689703,940.8006645106827
0.6496942604146115,863.6209268257606
0.6751984523072497,792.4738449614975
0.7017038286703824,726.8723917655778
0.7292496916841444,666.3920181356996
0.7578768863625915,610.6673715105758
0.7876278611187046,559.3572501530789
0.8185467307069019,512.14125768345
0.850679341636415,468.71893909161594
0.8840733401525058,428.80866346010583
0.9187782428863317,392.14495516538136
0.9548455102782278,358.47937001768196
0.9923286228832539,327.58089514015177
1.0312831606721837,299.2348924588688
1.0717668854455022,273.2420781967818
1.1138398264826193,249.41760160771835
1.1575643695533022,227.5901989819753
1.2030053494233226,207.60115670305993
1.2502301459914542,189.30346262933105
1.299308784200415,172.56103667557656
1.3503140378698726,157.24800067482352
1.4033215376054824,143.24793725608012
1.4584098829439835,130.45325546527627
1.5156607589006013,118.7646520423643
1.575159057091621,108.09053083600782
1.6369930016117014,98.34645349777706
1.7012542798525885,89.4546187597876
1.7680381784572046,81.34334868442984
1.8374437246107238,73.94667347025539
1.9095738328780953,67.20392788611146
1.9845354578058014,61.05935286202012
2.0624397525140905,55.46172405004142
2.143402233514853,50.363999251823415
2.227542951999554,45.722989981008084
2.314986671851158,41.4990809985297
2.405863054644063,37.65595367508342
2.5003068519063225,34.16032625894881
2.598458104929248,30.981712836666134
2.7004623524206774,28.092194997522224
2.806470846309834,25.46621805403761
2.916640776023701,23.080406359479696
3.031135501567576,20.913386135420716
3.150124795755327,18.94562159267226
3.2737850959485697,17.159262630787424
3.4022997656780634,15.53800093537206
3.5358593665351745,14.066947341979835
3.6746619407366854,12.732515514235327
3.8189133047818515,11.52231217350319
3.968827354637162,10.425036134266682
4.1246263829013445,9.43038534178437
4.286541408420921,8.52897150710435
4.4548125188449825,7.7122421312148965
4.629689226627261,6.972408610248147
4.811430839003257,6.302380223859501
5.000306842491082,5.69570338273268
5.196597302486189,5.146503220250953
5.400593278542364,4.649434758770768
5.612597255954967,4.199639276630791
5.8329235942862,3.7927012773586384
6.06189899349756,3.4246090692909763
6.29986297838068,3.0917197470224878
6.547168402004727,2.7907293851580612
6.804181968927091,2.5186381100187565
7.071284778942991,2.272721428926886
7.348872892180382,2.050505724036171
7.637357916378006,1.8497457686845886
7.937167617217536,1.6683986003359152
8.248746552614573,1.504603632941589
8.572556731909314,1.3566769215469705
8.909078300934132,1.2230954124021678
9.258810253973934,1.102481556482349
9.622271173675122,0.9935910044327076
9.999999999999984,0.8953162778147199
