k [1/Mpc],P(k) [Mpc^3]
0.0001,116.58878857558732
0.00010392556829367125,121.16512668762404
0.00010800523745162529,125.92105626468361
0.00011224505680853065,130.8636184538789
0.00011665131316981963,136.0001330334731
0.00012123054013376525,141.33821031737244
0.00012598952777950273,146.88575831067268
0.00013093533273536104,152.65098747750932
0.00013607528864243335,158.64242631069047
0.00014141701702890234,164.8689402131132
0.00014696843861124463,171.3397487529623
0.00015273778503907136,178.06443287105358
0.00015873361110102093,185.05293762360495
0.00016496480740980205,192.31558878357367
0.0001714406135851971,199.863117334245
0.00017817063195457305,207.7066826454521
0.00018516484179121546,215.85788231168544
0.000192433614111598,224.3287653168635
0.00019998772705352857,233.13184917412258
0.0002078383818579757,242.2801385878878
0.00021599721947827182,251.7871367816976
0.0002244763378413224,261.6668695643416
0.0002332883097864157,271.93390693918303
0.00024244620170823283,282.60338271266426
0.0002519635929317015,293.69101939824935
0.0002618545958474233,305.21316062847717
0.0002721338768375308,317.1867922898256
0.0002828166780230032,329.6295508364803
0.0002939188398646886,342.5597249158017
0.0003054568246515432,355.9963040577041
0.00031744774091091926,369.9590197828365
0.00032990936877709396,384.46837488178517
0.00034286018635565856,399.54566376540424
0.00035631939712285854,415.21299667233325
0.000370306958400514,431.49333433183926
0.00038484361094874304,448.41050382533297
0.0003999509097203664,465.9892177669545
0.00041565125582259895,484.25513256980287
0.00043196792973341727,503.23489306119217
0.0004489251258218605,522.9561669488459
0.0004665479882234472,543.4476681044816
0.000484862648123908,564.7391750610811
0.000503896262506515,586.8615908539897
0.0005236770544204653,609.8469563420973
0.0005442343548300266,633.7284915839206
0.0005655986461065005,658.540668707292
0.0005878016072274912,684.3192716847769
0.0006108761607505036,711.101432921561
0.0006348565216305217,738.9256201131373
0.0006597782479539537,767.8316506969463
0.0006856782936641739,797.8608123762018
0.0007125950633568407,829.0559453159154
0.0007405684692262436,861.4614857664808
0.0007696399902471156,895.1234575460647
0.0007998527336796708,930.0894469789779
0.000831251498989063,966.4087477170402
0.0008638828442740447,1004.1323959524981
0.000897795155303332,1043.3132318778285
0.0009330387172620361,1084.0059683315585
0.0009696657893145519,1126.2671884479732
0.001007730682094461,1170.1554568768004
0.0010472898382363582,1215.7313569455584
0.0010884019160690055,1263.0575348672385
0.0011311278765939214,1312.1987777244585
0.001175531073878369,1363.2218511563976
0.0012216773489967915,1416.195674346487
0.0012696351276599736,1471.19144162233
0.0013194755216767058,1528.2826318780947
0.0013712724343984,1587.5451248840159
0.0014251026703029975,1649.057047844867
0.0014810460488806749,1712.898870670856
0.0015391855229902056,1779.1535251116313
0.001599607301861487,1847.906206482756
0.0016624009789266115,1919.2446400119984
0.0017276596646690358,1993.258983166159
0.0017954801246878305,2070.0418042520846
0.0018659629231817451,2149.6882625508806
0.001939212572065829,2232.295693416977
0.0020153376859417325,2317.963898997361
0.002094451143151469,2406.7951677439737
0.002176670253153458,2498.8940865644813
0.002262116930469025,2594.367797534468
0.002350917875457286,2693.3254385423816
0.002443204762186487,2795.8782816378284
0.0025391144336803463,2902.139839390689
0.002638789104828933,3012.2252390453277
0.002742376573264949,3126.251722627797
0.0028500304385181063,3244.338185927575
0.0029619103297725525,3366.605003365488
0.0030781821425650787,3493.1742452193866
0.003199018284775064,3624.1685188987867
0.0033245979322709396,3759.711519246856
0.003455107294592217,3899.92760755595
0.0035907398910610534,4044.941054043058
0.0037316968377327513,4194.876650484437
0.0038781871456107214,4349.858145460769
0.0040304280305680515,4510.008468497127
0.00418864523543527,4675.449553244591
0.004353073364731888,4846.300536665698
0.00452395623253805,5022.6788618803985
0.004701547224022131,5204.698389213958
0.004886109671160325,5392.468829318866
0.005077917243205399,5586.096180695498
0.005277254352483535,5785.6793006091975
0.005484416576121017,5991.311407176834
0.005699711094326071,6203.07822431124
0.005923457145875801,6421.055761262795
0.006155986501483508,6645.311841174731
0.006397643955748424,6875.899778877505
0.0066487878384172625,7112.859859430748
0.0069097905457156435,7356.220962982443
0.007181039092537346,7605.998752221205
0.007462935686310132,7862.194831718529
0.007755898323389004,8124.77800836099
0.00806036140886134,8393.683377615427
0.008376776400682916,8668.824967567536
0.008705612479099857,8950.094581030415
0.009047357242349292,9237.360832315158
0.00940251742967013,9530.4622792238
0.009771619672696168,9829.203132526123
0.010155211276345676,10133.355306312758
0.010553861030365234,10442.632922348635
0.010968160052731372,10756.70254640098
0.011398722666160517,11075.183907255563
0.011846187309026826,11397.634793422634
0.012311217482038896,11723.565420350125
0.012794502732078732,12052.415943767472
0.013296759674662111,12383.558703038329
0.013818733056536317,12716.305679869485
0.014361196859990781,13049.879152086474
0.014924955450518284,13383.43593095899
0.015510844769528393,13716.043197824976
0.016119733573881575,14046.667473882495
0.01675252472408214,14374.204940902215
0.017410156523040152,14697.44014280312
0.018093604107387147,15015.075154334072
0.01880388089340914,15325.72269004612
0.019542040079740527,15627.875275491637
0.02030917620904734,15919.959910065752
0.021106426791015535,16200.300881694076
0.021934973989050584,16467.14256505614
0.02279604637318978,16718.673091708315
0.023690920741826323,16952.978079275905
0.02462092401494623,17168.11524748724
0.02558743520168586,17362.150069356354
0.02659188744512693,17533.174483469335
0.027635770147361564,17679.289438829415
0.028720631177978267,17798.44888176165
0.029848079169243254,17888.61460333225
0.03101978590138095,17948.282335457294
0.03223748878149028,17976.86049617734
0.0335029934197723,17973.891500272228
0.03481817630688963,17937.921577629746
0.03618498759642746,17866.971766832336
0.037605453996581675,17759.74493464209
0.03908168177536263,17616.59510526121
0.04061585988376978,17438.40253564607
0.04221026320156896,17227.111091565548
0.04386725591048496,16985.659088612436
0.0455892949998106,16716.96977975666
0.047378933909631396,16423.379651585255
0.049238826317067365,16107.10222616557
0.05117173007114603,15771.423993118635
0.05318051128214196,15420.766895666506
0.05526814857144601,15059.768986275014
0.057437737488265785,14693.644664336256
0.0596924950997073,14327.413754335597
0.0620357647610427,13965.918207683144
0.06447102107323864,13613.454250407443
0.06700187503509585,13273.561400309258
0.06963207939763882,12948.901170996842
0.0723655342286965,12641.116486012314
0.07520629269592405,12350.512374310727
0.07815856707684081,12076.175563780014
0.08122673500479707,11815.708644275222
0.08441534596012978,11565.223771346935
0.0877291280161335,11319.396576272005
0.09117299484984914,11071.548095541815
0.09475205302806537,10814.105586289035
0.09847160957933764,10539.37127315859
0.1023371798632519,10240.519913479999
0.10635449574860109,9912.643126365263
0.11052951411260206,9553.846050855003
0.1148684256737553,9165.818706001319
0.1193776641714435,8754.14475228471
0.1240639159058831,8328.221041331699
0.12893412965257148,7900.765029551484
0.13399552696593373,7486.376102597305
0.1392556128874462,7099.90918122883
0.14472218707411338,6753.697404465827
0.15040335536380234,6455.307952907574
0.15630754179458153,6205.268229908908
0.16244350109588662,5997.773970950586
0.16882033167003618,5819.143099798421
0.17544748908334581,5648.804129463462
0.1823348000868439,5464.9779134974
0.189492477187382,5249.526333336293
0.19693113379074215,4993.648704612729
0.20466179993919872,4702.0398912482715
0.21269593866686892,4393.362273071426
0.22104546299710207,4095.0499406036092
0.22972275360711503,3833.522904838096
0.23874067718606454,3624.3753341912034
0.2481126055137766,3466.8095639030507
0.25785243528842716,3342.6241516340374
0.26797460873256895,3221.448191593024
0.27849413500806414,3074.4085607154043
0.28942661247167484,2889.758659577892
0.3007882518043098,2680.4418762639934
0.31259590004822796,2477.9179947530592
0.324867065587837,2312.639846572342
0.3376199441111335,2194.1206771971592
0.35087344559027084,2103.950715813874
0.36464722232127456,2007.9624751730669
0.37896169806447155,1883.1203769565436
0.3938380983288488,1737.9311897617615
0.4092984818452433,1604.6241992225441
0.4253657732750382,1506.4158727922372
0.44206379720285277,1434.2151651456916
0.45941731346364734,1357.3029264923869
0.47745205385661277,1260.0093511118546
0.4961947603002895,1160.188144654857
0.5156732244854959,1082.514223472041
0.5359163290848509,1023.6677453956518
0.556954090580013,960.0655542453421
0.5788177037701272,886.0061184528961
0.6015395880274836,820.2781534350565
0.6251534353689703,770.2516870716113
0.6496942604146115,720.1832423376944
0.6751984523072497,664.5142257615261
0.7017038286703824,616.6589699370289
0.7292496916841444,576.7433849237827
0.7578768863625915,534.2565103183263
0.7876278611187046,493.9384425878807
0.8185467307069019,459.98044876182917
0.850679341636415,426.1321547446811
0.8840733401525058,394.33388410504585
0.9187782428863317,365.0183733148851
0.9548455102782278,337.895296126445
0.9923286228832539,312.7175907956172
1.0312831606721837,289.2751820277026
1.0717668854455022,267.40386436507197
1.1138398264826193,247.01778716157727
1.1575643695533022,228.0473596901227
1.2030053494233226,210.42162656479883
1.2502301459914542,194.0691178051436
1.299308784200415,178.91854058120745
1.3503140378698726,164.8948192770963
1.4033215376054824,151.91752213001095
1.4584098829439835,139.9109519941617
1.5156607589006013,128.80488517006515
1.575159057091621,118.53416119577851
1.6369930016117014,109.03837729150348
1.7012542798525885,100.26277964170887
1.7680381784572046,92.1573187911456
1.8374437246107238,84.67497374650162
1.9095738328780953,77.77157239029553
1.9845354578058014,71.40566660147769
2.0624397525140905,65.53836199462053
2.143402233514853,60.132948628101055
2.227542951999554,55.15505883238531
2.314986671851158,50.57269030832372
2.405863054644063,46.35606186373457
2.5003068519063225,42.47747565684122
2.598458104929248,38.91119618780299
2.7004623524206774,35.63334166857805
2.806470846309834,32.62173461824134
2.916640776023701,29.855786523724117
3.031135501567576,27.316395457072456
3.150124795755327,24.985848930497923
3.2737850959485697,22.84772065540202
3.4022997656780634,20.886783957287705
3.5358593665351745,19.088949880587066
3.6746619407366854,17.441190042832435
3.8189133047818515,15.931462632027301
3.968827354637162,14.548643230377122
4.1246263829013445,13.28246222615186
4.286541408420921,12.123442053330365
4.4548125188449825,11.06283806131468
4.629689226627261,10.092585536228746
4.811430839003257,9.205250228374725
5.000306842491082,8.393980273259682
5.196597302486189,7.652456367837313
5.400593278542364,6.974861073911396
5.612597255954967,6.3558443455809055
5.8329235942862,5.790487720514222
6.06189899349756,5.2742711003117515
6.29986297838068,4.803045890182283
6.547168402004727,4.373009718961093
6.804181968927091,3.9806695979114943
7.071284778942991,3.6228167553560495
7.348872892180382,3.2965048061712765
7.637357916378006,2.9990288888012877
7.937167617217536,2.72789210389206
8.248746552614573,2.480792958368371
8.572556731909314,2.255629046702237
8.909078300934132,2.05048075151143
9.258810253973934,1.8635953115097221
9.622271173675122,1.6933771230721368
9.999999999999984,1.5384098119395164
