k [1/Mpc],P(k) [Mpc^3]
0.0001,239.89473386462765
0.00010392556829367125,250.0265560044914
0.00010800523745162529,260.58573494148453
0.00011224505680853065,271.5902298449891
0.00011665131316981963,283.0587705320827
0.00012123054013376525,295.0108643321348
0.00012598952777950273,307.4667941345689
0.00013093533273536104,320.4476731940174
0.00013607528864243335,333.97549914393596
0.00014141701702890234,348.07319635411665
0.00014696843861124463,362.7646396099644
0.00015273778503907136,378.0746649272708
0.00015873361110102093,394.0291190531766
0.00016496480740980205,410.65491155880954
0.0001714406135851971,427.9800529668701
0.00017817063195457305,446.03370352703774
0.00018516484179121546,464.8462038905018
0.000192433614111598,484.4491225972841
0.00019998772705352857,504.8753089576915
0.0002078383818579757,526.1589123681727
0.00021599721947827182,548.3354572159684
0.0002244763378413224,571.4418904702563
0.0002332883097864157,595.5166287502548
0.00024244620170823283,620.5996268313758
0.0002519635929317015,646.7323904779972
0.0002618545958474233,673.9580578048341
0.0002721338768375308,702.321449971017
0.0002828166780230032,731.8690875635709
0.0002939188398646886,762.6493084247671
0.0003054568246515432,794.7123154181293
0.00031744774091091926,828.1102480213884
0.00032990936877709396,862.897227705024
0.00034286018635565856,899.129296343212
0.00035631939712285854,936.8645923141054
0.000370306958400514,976.1634313868706
0.00038484361094874304,1017.0883708748547
0.0003999509097203664,1059.7042850482733
0.00041565125582259895,1104.0782761587805
0.00043196792973341727,1150.2798356494832
0.0004489251258218605,1198.380899900684
0.0004665479882234472,1248.455825128206
0.000484862648123908,1300.58158598844
0.000503896262506515,1354.837762108608
0.0005236770544204653,1411.30663549725
0.0005442343548300266,1470.0732372969753
0.0005655986461065005,1531.2251849501931
0.0005878016072274912,1594.8529536498127
0.0006108761607505036,1661.0498183002023
0.0006348565216305217,1729.911876012698
0.0006597782479539537,1801.5382108011495
0.0006856782936641739,1876.0306280559914
0.0007125950633568407,1953.4939022273693
0.0007405684692262436,2034.0356725241722
0.0007696399902471156,2117.7662356704277
0.0007998527336796708,2204.7989010745937
0.000831251498989063,2295.2495787167536
0.0008638828442740447,2389.2369347173367
0.000897795155303332,2486.8823517781107
0.0009330387172620361,2588.3092832654033
0.0009696657893145519,2693.643822214325
0.001007730682094461,2803.0142018479864
0.0010472898382363582,2916.550680871853
0.0010884019160690055,3034.385734077952
0.0011311278765939214,3156.6529756004634
0.001175531073878369,3283.4877091463773
0.0012216773489967915,3415.0264471633805
0.0012696351276599736,3551.4062841512014
0.0013194755216767058,3692.7653956601357
0.0013712724343984,3839.241691692046
0.0014251026703029975,3990.9730391968874
0.0014810460488806749,4148.096904786118
0.0015391855229902056,4310.7488862467235
0.001599607301861487,4479.06355969392
0.0016624009789266115,4653.173041817848
0.0017276596646690358,4833.206608118862
0.0017954801246878305,5019.290792266975
0.0018659629231817451,5211.547412429723
0.001939212572065829,5410.094152918131
0.0020153376859417325,5615.042820093528
0.002094451143151469,5826.497912026489
0.002176670253153458,6044.557566457218
0.002262116930469025,6269.311553536208
0.002350917875457286,6500.841226383871
0.002443204762186487,6739.217882281798
0.0025391144336803463,6984.499880895805
0.002638789104828933,7236.734180421255
0.002742376573264949,7495.95413511762
0.0028500304385181063,7762.178804848945
0.0029619103297725525,8035.412197432105
0.0030781821425650787,8315.639531265268
0.003199018284775064,8602.82845004174
0.0033245979322709396,8896.925524446646
0.003455107294592217,9197.854128815301
0.0035907398910610534,9505.516104692657
0.0037316968377327513,9819.788077011377
0.0038781871456107214,10140.521864873917
0.0040304280305680515,10467.535690418561
0.00418864523543527,10800.603646195234
0.004353073364731888,11139.470120946906
0.00452395623253805,11483.875100367644
0.004701547224022131,11833.54724720847
0.004886109671160325,12188.155770698428
0.005077917243205399,12547.233688441236
0.005277254352483535,12910.250270964707
0.005484416576121017,13276.67260068747
0.005699711094326071,13645.972347754585
0.005923457145875801,14017.58724978944
0.006155986501483508,14390.929216934395
0.006397643955748424,14765.377315106798
0.0066487878384172625,15140.236190903239
0.0069097905457156435,15514.706070478296
0.007181039092537346,15887.934569893792
0.007462935686310132,16259.00608205899
0.007755898323389004,16626.94988481977
0.00806036140886134,16990.74814852459
0.008376776400682916,17349.33103365078
0.008705612479099857,17701.58698588459
0.009047357242349292,18046.347800294017
0.00940251742967013,18382.392731642158
0.009771619672696168,18708.462531888425
0.010155211276345676,19023.234387704695
0.010553861030365234,19325.352241225817
0.010968160052731372,19613.428935708158
0.011398722666160517,19886.04533251687
0.011846187309026826,20141.777055328614
0.012311217482038896,20379.193688251515
0.012794502732078732,20596.87428995422
0.013296759674662111,20793.423865758825
0.013818733056536317,20967.484282617166
0.014361196859990781,21117.747347390625
0.014924955450518284,21243.0004694626
0.015510844769528393,21342.131618220526
0.016119733573881575,21414.136129158556
0.01675252472408214,21458.20030199646
0.017410156523040152,21473.641902188767
0.018093604107387147,21460.008212727138
0.01880388089340914,21417.115594389208
0.019542040079740527,21344.94712879598
0.02030917620904734,21243.86104470141
0.021106426791015535,21114.441713134223
0.021934973989050584,20957.572531231563
0.02279604637318978,20774.626048399758
0.023690920741826323,20567.109810795206
0.02462092401494623,20336.764434244433
0.02558743520168586,20085.487597762643
0.02659188744512693,19815.475536321148
0.027635770147361564,19529.891795342854
0.028720631177978267,19231.96150178751
0.029848079169243254,18923.166960110357
0.03101978590138095,18603.152110313677
0.03223748878149028,18272.34628562
0.0335029934197723,17935.973494072034
0.03481817630688963,17600.654107493712
0.03618498759642746,17269.11674718261
0.037605453996581675,16937.71417324024
0.03908168177536263,16602.479731046595
0.04061585988376978,16260.290394118569
0.04221026320156896,15908.63810914447
0.04386725591048496,15545.597109609482
0.0455892949998106,15170.137462095483
0.047378933909631396,14781.36458942262
0.049238826317067365,14377.828488954388
0.05117173007114603,13958.503095362168
0.05318051128214196,13524.473282576535
0.05526814857144601,13077.151407120802
0.057437737488265785,12616.02192626194
0.0596924950997073,12142.762384223943
0.0620357647610427,11665.095458842738
0.06447102107323864,11191.965987788572
0.06700187503509585,10732.091454141371
0.06963207939763882,10291.679471336854
0.0723655342286965,9874.30642516895
0.07520629269592405,9481.047932755288
0.07815856707684081,9110.91543194532
0.08122673500479707,8759.930350106155
0.08441534596012978,8420.292668479276
0.0877291280161335,8082.027410074686
0.09117299484984914,7737.028453713132
0.09475205302806537,7382.357180766828
0.09847160957933764,7020.732865445347
0.1023371798632519,6658.828279568074
0.10635449574860109,6305.454893343864
0.11052951411260206,5969.242723834504
0.1148684256737553,5655.682781813062
0.1193776641714435,5366.136053220746
0.1240639159058831,5098.411358812246
0.12893412965257148,4845.557723369322
0.13399552696593373,4597.020760941064
0.1392556128874462,4347.480953521458
0.14472218707411338,4100.262347198614
0.15040335536380234,3859.7493577936516
0.15630754179458153,3630.745285277579
0.16244350109588662,3419.016041160197
0.16882033167003618,3223.1768696880745
0.17544748908334581,3037.17186777197
0.1823348000868439,2857.2653325522765
0.189492477187382,2682.777599872306
0.19693113379074215,2515.480881255465
0.20466179993919872,2357.465660466836
0.21269593866686892,2210.447215683571
0.22104546299710207,2071.7926668283817
0.22972275360711503,1939.6036017998258
0.23874067718606454,1813.854663994417
0.2481126055137766,1694.9169907935825
0.25785243528842716,1583.4321900573984
0.26797460873256895,1478.5533787184577
0.27849413500806414,1379.5020328536825
0.28942661247167484,1286.1466581826
0.3007882518043098,1198.4856241926248
0.31259590004822796,1116.2493349054705
0.324867065587837,1039.0169000625217
0.3376199441111335,966.5341429960848
0.35087344559027084,898.7008838110834
0.36464722232127456,835.1367956022082
0.37896169806447155,775.6846048856931
0.3938380983288488,720.0912164570557
0.4092984818452433,668.1203404283059
0.4253657732750382,619.5991804687159
0.44206379720285277,574.3204725342923
0.45941731346364734,532.079314908038
0.47745205385661277,492.70637599949276
0.4961947603002895,456.04183053502993
0.5156732244854959,421.9220529475868
0.5359163290848509,390.1874107787353
0.556954090580013,360.6896346413769
0.5788177037701272,333.2686486015478
0.6015395880274836,307.7985192241392
0.6251534353689703,284.15700334647124
0.6496942604146115,262.2249140069401
0.6751984523072497,241.88963877624883
0.7017038286703824,223.0448933000523
0.7292496916841444,205.59044467126827
0.7578768863625915,189.43155171608672
0.7876278611187046,174.47893856810936
0.8185467307069019,160.64882302298076
0.850679341636415,147.86264480484536
0.8840733401525058,136.04679574423014
0.9187782428863317,125.13236705413885
0.9548455102782278,115.0549136589902
0.9923286228832539,105.75418111341588
1.0312831606721837,97.17386663599119
1.0717668854455022,89.26139695190648
1.1138398264826193,81.96771394781783
1.1575643695533022,75.24704084559255
1.2030053494233226,69.0566956696488
1.2502301459914542,63.356944228220435
1.299308784200415,58.11082050301564
1.3503140378698726,53.283953898394586
1.4033215376054824,48.844402934477046
1.4584098829439835,44.76248974782025
1.5156607589006013,41.01066635426921
1.575159057091621,37.56338082498579
1.6369930016117014,34.396944890390074
1.7012542798525885,31.489409046406923
1.7680381784572046,28.82043605017228
1.8374437246107238,26.371187546762947
1.9095738328780953,24.124238332594395
1.9845354578058014,22.063479133773694
2.0624397525140905,20.174023622436493
2.143402233514853,18.44212150194783
2.227542951999554,16.8550780082021
2.314986671851158,15.401177049251633
2.405863054644063,14.069609497831031
2.5003068519063225,12.850406992948574
2.598458104929248,11.734380191340007
2.7004623524206774,10.713059081650087
2.806470846309834,9.778636518307925
2.916640776023701,8.923924856565465
3.031135501567576,8.14231020368509
3.150124795755327,7.427708662077994
3.2737850959485697,6.774525683474107
3.4022997656780634,6.1776178556994195
3.5358593665351745,5.632258230535031
3.6746619407366854,5.1341045443768545
3.8189133047818515,4.679169160371885
3.968827354637162,4.2637912176437744
4.1246263829013445,3.884610755188856
4.286541408420921,3.53854454695881
4.4548125188449825,3.2227645589075875
4.629689226627261,2.9346777159251856
4.811430839003257,2.6719070400326403
5.000306842491082,2.432274223087544
5.196597302486189,2.2137828259512498
5.400593278542364,2.01460344556429
5.612597255954967,1.8330613144508567
5.8329235942862,1.667623675850007
6.06189899349756,1.5168880599713153
6.29986297838068,1.3795717144164155
6.547168402004727,1.2545030665656522
6.804181968927091,1.1406111001164392
7.071284778942991,1.0369160724072426
7.348872892180382,0.9425219870361082
7.637357916378006,0.8566096604790415
7.937167617217536,0.7784284777862616
8.248746552614573,0.7072889457192718
8.572556731909314,0.6425622264245513
8.909078300934132,0.5836754650475873
9.258810253973934,0.5301067922796455
9.622271173675122,0.48138130187023326
9.999999999999984,0.437073820861924
