k [1/Mpc],P(k) [Mpc^3]
0.0001,26.69977854165666
0.00010392556829367125,27.828045472428514
0.00010800523745162529,29.003982471713112
0.00011224505680853065,30.229600479934565
0.00011665131316981963,31.506996716532985
0.00012123054013376525,32.83835920181897
0.00012598952777950273,34.225968296606894
0.00013093533273536104,35.67219786694388
0.00013607528864243335,37.17952039245431
0.00014141701702890234,38.75051337641563
0.00014696843861124463,40.38786531725188
0.00015273778503907136,42.094378442994696
0.00015873361110102093,43.872971686990944
0.00016496480740980205,45.72668573156654
0.0001714406135851971,47.65868905445047
0.00017817063195457305,49.67228280560606
0.00018516484179121546,51.770906805999516
0.000192433614111598,53.95814662188573
0.00019998772705352857,56.23774017071528
0.0002078383818579757,58.613582270228
0.00021599721947827182,61.089727130760544
0.0002244763378413224,63.670397009452245
0.0002332883097864157,66.35999289176827
0.00024244620170823283,69.16310444740203
0.0002519635929317015,72.08451444715531
0.0002618545958474233,75.12920200665815
0.0002721338768375308,78.30235139858739
0.0002828166780230032,81.6093639664829
0.0002939188398646886,85.05586841575463
0.0003054568246515432,88.64772918145113
0.00031744774091091926,92.39105456586522
0.00032990936877709396,96.29220638096449
0.00034286018635565856,100.35781058797689
0.00035631939712285854,104.59476123615252
0.000370306958400514,109.01023528120933
0.00038484361094874304,113.61171051476207
0.0003999509097203664,118.40698184852258
0.00041565125582259895,123.40416820060342
0.00043196792973341727,128.61171561063898
0.0004489251258218605,134.0384124589098
0.0004665479882234472,139.6934078689157
0.000484862648123908,145.58622232504433
0.000503896262506515,151.7267661738641
0.0005236770544204653,158.1253546886232
0.0005442343548300266,164.79272384554193
0.0005655986461065005,171.74004725073004
0.0005878016072274912,178.97894580032724
0.0006108761607505036,186.5215098977041
0.0006348565216305217,194.38031365090697
0.0006597782479539537,202.56842628921316
0.0006856782936641739,211.0994418724809
0.0007125950633568407,219.98749598110075
0.0007405684692262436,229.247287872781
0.0007696399902471156,238.8940996569666
0.0007998527336796708,248.9438055825683
0.000831251498989063,259.41290604326747
0.0008638828442740447,270.3185402845897
0.000897795155303332,281.67850751259436
0.0009330387172620361,293.51129965440253
0.0009696657893145519,305.8361052899288
0.001007730682094461,318.6728484657365
0.0010472898382363582,332.04220842826226
0.0010884019160690055,345.9656332374322
0.0011311278765939214,360.4653833193587
0.001175531073878369,375.5645229596406
0.0012216773489967915,391.28695938121126
0.0012696351276599736,407.6574764397957
0.0013194755216767058,424.7017281625971
0.0013712724343984,442.4462990401851
0.0014251026703029975,460.9186822599747
0.0014810460488806749,480.14730026467396
0.0015391855229902056,500.16156947564207
0.001599607301861487,520.9918672167712
0.0016624009789266115,542.6695999337345
0.0017276596646690358,565.2271853003566
0.0017954801246878305,588.6980256303483
0.0018659629231817451,613.1166095329064
0.001939212572065829,638.5184488807438
0.0020153376859417325,664.9401344839191
0.002094451143151469,692.4193520821837
0.002176670253153458,720.9947926320938
0.002262116930469025,750.706274248235
0.002350917875457286,781.5946339006019
0.002443204762186487,813.7017300745804
0.0025391144336803463,847.0705237213328
0.002638789104828933,881.7448926504798
0.002742376573264949,917.769766192058
0.0028500304385181063,955.1910507507532
0.0029619103297725525,994.0555320040929
0.0030781821425650787,1034.4109894003682
0.003199018284775064,1076.305860128773
0.0033245979322709396,1119.7893425834288
0.003455107294592217,1164.9113917117763
0.0035907398910610534,1211.722440242981
0.0037316968377327513,1260.2735892165317
0.0038781871456107214,1310.616180741047
0.0040304280305680515,1362.8017331614028
0.00418864523543527,1416.8820518456523
0.004353073364731888,1472.9086492672643
0.00452395623253805,1530.933005065323
0.004701547224022131,1591.0061198955514
0.004886109671160325,1653.1781129759554
0.005077917243205399,1717.4985203899819
0.005277254352483535,1784.015265833114
0.005484416576121017,1852.7748807878631
0.005699711094326071,1923.822231579736
0.005923457145875801,1997.1995285377398
0.006155986501483508,2072.946880176728
0.006397643955748424,2151.1005191810837
0.0066487878384172625,2231.692631619899
0.0069097905457156435,2314.7521649658343
0.007181039092537346,2400.3042143309794
0.007462935686310132,2488.369839726558
0.007755898323389004,2578.961157104671
0.00806036140886134,2672.078759901039
0.008376776400682916,2767.7163277257782
0.008705612479099857,2865.860614106302
0.009047357242349292,2966.490928173621
0.00940251742967013,3069.5772766121495
0.009771619672696168,3175.0780775472635
0.010155211276345676,3282.9413274974845
0.010553861030365234,3393.0972894400793
0.010968160052731372,3505.4589013728896
0.011398722666160517,3619.9241351425753
0.011846187309026826,3736.369827126182
0.012311217482038896,3854.6557468220735
0.012794502732078732,3974.6197013639226
0.013296759674662111,4096.0749492322475
0.013818733056536317,4218.814299293427
0.014361196859990781,4342.600348031549
0.014924955450518284,4467.170534626756
0.015510844769528393,4592.234033308059
0.016119733573881575,4717.463583643348
0.01675252472408214,4842.505907820083
0.017410156523040152,4966.970976656896
0.018093604107387147,5090.435469036694
0.01880388089340914,5212.446679370441
0.019542040079740527,5332.509976704539
0.02030917620904734,5450.103100292936
0.021106426791015535,5564.670723823912
0.021934973989050584,5675.624429304549
0.02279604637318978,5782.354259399297
0.023690920741826323,5884.217768794346
0.02462092401494623,5980.553992138463
0.02558743520168586,6070.7005572326325
0.02659188744512693,6154.004603357364
0.027635770147361564,6229.814914117481
0.028720631177978267,6297.446637564255
0.029848079169243254,6356.20181510711
0.03101978590138095,6405.49503655684
0.03223748878149028,6445.063643152726
0.0335029934197723,6474.734642039925
0.03481817630688963,6494.105164839688
0.03618498759642746,6502.530677301906
0.037605453996581675,6499.493135323791
0.03908168177536263,6485.029667428204
0.04061585988376978,6459.410750957378
0.04221026320156896,6423.165362628118
0.04386725591048496,6377.2131323369285
0.0455892949998106,6322.510607605416
0.047378933909631396,6259.804606267816
0.049238826317067365,6189.725567345056
0.05117173007114603,6113.1841809507805
0.05318051128214196,6031.638049844859
0.05526814857144601,5946.579263926312
0.057437737488265785,5859.507215175165
0.0596924950997073,5771.847836616666
0.0620357647610427,5684.851252590206
0.06447102107323864,5599.584922554467
0.06700187503509585,5516.715128551639
0.06963207939763882,5436.6051159108165
0.0723655342286965,5359.173355307802
0.07520629269592405,5283.890718153021
0.07815856707684081,5209.7584668149175
0.08122673500479707,5135.270693059541
0.08441534596012978,5058.483780895847
0.0877291280161335,4977.054071449427
0.09117299484984914,4888.394297875508
0.09475205302806537,4789.963079956411
0.09847160957933764,4679.680325543674
0.1023371798632519,4556.251396529746
0.10635449574860109,4419.660806807074
0.11052951411260206,4271.287686128357
0.1148684256737553,4113.922792853994
0.1193776641714435,3951.634847458818
0.1240639159058831,3789.438928824558
0.12893412965257148,3632.7864990567004
0.13399552696593373,3486.8736828134665
0.1392556128874462,3355.735486443317
0.14472218707411338,3241.2713416938
0.15040335536380234,3142.60691562858
0.15630754179458153,3055.7346143393393
0.16244350109588662,2974.90793930093
0.16882033167003618,2892.6527634203694
0.17544748908334581,2800.67203212043
0.1823348000868439,2693.7303866865723
0.189492477187382,2570.9011920478342
0.19693113379074215,2436.5945413903332
0.20466179993919872,2299.803257705373
0.21269593866686892,2171.596300127958
0.22104546299710207,2061.1144556195004
0.22972275360711503,1971.7236803592855
0.23874067718606454,1899.4759404493384
0.2481126055137766,1834.4186432926417
0.25785243528842716,1764.184671020465
0.26797460873256895,1680.0822630580874
0.27849413500806414,1582.5924237964055
0.28942661247167484,1481.3415654134756
0.3007882518043098,1389.5340131598298
0.31259590004822796,1315.8197342829078
0.324867065587837,1258.2911648362544
0.3376199441111335,1205.6148596167511
0.35087344559027084,1145.3596636306168
0.36464722232127456,1074.4316610219698
0.37896169806447155,1001.6485324663064
0.3938380983288488,939.237902651529
0.4092984818452433,890.6877107801645
0.4253657732750382,847.3968143626548
0.44206379720285277,798.6595865839331
0.45941731346364734,744.4667747496271
0.47745205385661277,694.7572076020402
0.4961947603002895,655.1038415926172
0.5156732244854959,619.209610148414
0.5359163290848509,579.4998345053498
0.556954090580013,539.1917371189193
0.5788177037701272,505.14804035281156
0.6015395880274836,475.2398660209821
0.6251534353689703,443.84848239284617
0.6496942604146115,413.0432903974444
0.6751984523072497,386.5116732918528
0.7017038286703824,361.5055031590591
0.7292496916841444,336.2613454765895
0.7578768863625915,313.50480439127733
0.7876278611187046,292.6078611122932
0.8185467307069019,271.9905844342748
0.850679341636415,253.18050545416352
0.8840733401525058,235.60991100597667
0.9187782428863317,219.06688414678263
0.9548455102782278,203.5297175379037
0.9923286228832539,188.97088227889634
1.0312831606721837,175.35814923864467
1.0717668854455022,162.65405385118882
1.1138398264826193,150.80755341660412
1.1575643695533022,139.76444161485296
1.2030053494233226,129.4737522953027
1.2502301459914542,119.887598603215
1.299308784200415,110.96098899477688
1.3503140378698726,102.65209343570673
1.4033215376054824,94.92280690906975
1.4584098829439835,87.73716984648254
1.5156607589006013,81.06100353851578
1.575159057091621,74.86186709996278
1.6369930016117014,69.10900715279831
1.7012542798525885,63.77316727350131
1.7680381784572046,58.82653556164219
1.8374437246107238,54.242915608142276
1.9095738328780953,49.99766919355243
1.9845354578058014,46.06764239085212
2.0624397525140905,42.43109539423176
2.143402233514853,39.06765122333707
2.227542951999554,35.958212287427465
2.314986671851158,33.08487872200608
2.405863054644063,30.430886187311042
2.5003068519063225,27.98054589957477
2.598458104929248,25.719181174039885
2.7004623524206774,23.633055450149232
2.806470846309834,21.709342915803244
2.916640776023701,19.936083265240683
3.031135501567576,18.302130227823096
3.150124795755327,16.79710249520639
3.2737850959485697,15.411335420809804
3.4022997656780634,14.135835847113933
3.5358593665351745,12.962243444954124
3.6746619407366854,11.88279087534505
3.8189133047818515,10.89026566237165
3.968827354637162,9.977974049375634
4.1246263829013445,9.139705355117183
4.286541408420921,8.369700713461008
4.4548125188449825,7.662624547656447
4.629689226627261,7.013535915636309
4.811430839003257,6.41786150727312
5.000306842491082,5.871369462415567
5.196597302486189,5.3701416070110755
5.400593278542364,4.91055594485103
5.612597255954967,4.48926789634915
5.8329235942862,4.103190240457699
6.06189899349756,3.749474392798088
6.29986297838068,3.4254953219771975
6.547168402004727,3.1288381621637926
6.804181968927091,2.8572759733936373
7.071284778942991,2.6087549131583225
7.348872892180382,2.381381666409759
7.637357916378006,2.1734113675201767
7.937167617217536,1.9832261734157433
8.248746552614573,1.8093272206979532
8.572556731909314,1.650340418578128
8.909078300934132,1.5050068944085748
9.258810253973934,1.3721732977610677
9.622271173675122,1.25078632937196
9.999999999999984,1.1399114997220734
