k [1/Mpc],P(k) [Mpc^3]
0.0001,1501.2410003997538
0.00010392556829367125,1555.6546571943084
0.00010800523745162529,1612.0389744805152
0.00011224505680853065,1670.4651276931697
0.00011665131316981963,1731.0068284346294
0.00012123054013376525,1793.7403980293889
0.00012598952777950273,1858.744895664383
0.00013093533273536104,1926.1022644489592
0.00013607528864243335,1995.8974157458292
0.00014141701702890234,2068.2182725667494
0.00014696843861124463,2143.1558146439947
0.00015273778503907136,2220.804250668748
0.00015873361110102093,2301.2610333216626
0.00016496480740980205,2384.626983185962
0.0001714406135851971,2471.006561757095
0.00017817063195457305,2560.508219867109
0.00018516484179121546,2653.24434226962
0.000192433614111598,2749.3309676763474
0.00019998772705352857,2848.8878015550504
0.0002078383818579757,2952.0387752311212
0.00021599721947827182,3058.9125473176096
0.0002244763378413224,3169.6424644613994
0.0002332883097864157,3284.366298903207
0.00024244620170823283,3403.226130774071
0.0002519635929317015,3526.36892865708
0.0002618545958474233,3653.9469048729584
0.0002721338768375308,3786.1176433353053
0.0002828166780230032,3923.0440658994726
0.0002939188398646886,4064.8943597233697
0.0003054568246515432,4211.842409078638
0.00031744774091091926,4364.067922091694
0.00032990936877709396,4521.756619551638
0.00034286018635565856,4685.100416772583
0.00035631939712285854,4854.297260671895
0.000370306958400514,5029.551595979425
0.00038484361094874304,5211.074458636356
0.0003999509097203664,5399.0835794883105
0.00041565125582259895,5593.803776547605
0.00043196792973341727,5795.466842929691
0.0004489251258218605,6004.311930596945
0.0004665479882234472,6220.585598834723
0.000484862648123908,6444.541673949272
0.000503896262506515,6676.441897934083
0.0005236770544204653,6916.555755227551
0.0005442343548300266,7165.160795284814
0.0005655986461065005,7422.542785801761
0.0005878016072274912,7688.995179741333
0.0006108761607505036,7964.82000793851
0.0006348565216305217,8250.327789239498
0.0006597782479539537,8545.837679154762
0.0006856782936641739,8851.677733944809
0.0007125950633568407,9168.18378594112
0.0007405684692262436,9495.700521263607
0.0007696399902471156,9834.581338776392
0.0007998527336796708,10185.188061492505
0.000831251498989063,10547.891691836785
0.0008638828442740447,10923.070798575194
0.000897795155303332,11311.112427731365
0.0009330387172620361,11712.412052623005
0.0009696657893145519,12127.372324927837
0.001007730682094461,12556.404476334263
0.0010472898382363582,12999.925592420208
0.0010884019160690055,13458.359066006164
0.0011311278765939214,13932.135561105952
0.001175531073878369,14421.690578966685
0.0012216773489967915,14927.466228226418
0.0012696351276599736,15449.907605376296
0.0013194755216767058,15989.46169062364
0.0013712724343984,16546.58012845744
0.0014251026703029975,17121.716392263697
0.0014810460488806749,17715.326960454036
0.0015391855229902056,18327.867472539707
0.001599607301861487,18959.788960385304
0.0016624009789266115,19611.542021227182
0.0017276596646690358,20283.571606192763
0.0017954801246878305,20976.318110272427
0.0018659629231817451,21690.2155079399
0.001939212572065829,22425.684893160687
0.0020153376859417325,23183.139007234495
0.002094451143151469,23962.974991189447
0.002176670253153458,24765.573673009963
0.002262116930469025,25591.300186333898
0.002350917875457286,26440.493728992693
0.002443204762186487,27313.472861130937
0.0025391144336803463,28210.528439776554
0.002638789104828933,29131.91929182993
0.002742376573264949,30077.874976137027
0.0028500304385181063,31048.579778719508
0.0029619103297725525,32044.178616037145
0.0030781821425650787,33064.771430662935
0.003199018284775064,34110.40286037672
0.0033245979322709396,35181.0690771857
0.003455107294592217,36276.694638665336
0.0035907398910610534,37397.13670788504
0.0037316968377327513,38542.18349262108
0.0038781871456107214,39711.53224985698
0.0040304280305680515,40904.80457489977
0.00418864523543527,42121.52160838806
0.004353073364731888,43361.101133714605
0.00452395623253805,44622.854958838565
0.004701547224022131,45905.92220099887
0.004886109671160325,47209.317142093474
0.005077917243205399,48531.982546418985
0.005277254352483535,49872.80179778613
0.005484416576121017,51230.497901912655
0.005699711094326071,52603.2952800158
0.005923457145875801,53989.102474987296
0.006155986501483508,55385.774115200125
0.006397643955748424,56791.23745674572
0.0066487878384172625,58203.26670506504
0.0069097905457156435,59619.085388757725
0.007181039092537346,61035.47786269213
0.007462935686310132,62449.07766458024
0.007755898323389004,63856.494643142854
0.00806036140886134,65254.17535985198
0.008376776400682916,66638.02020694841
0.008705612479099857,68003.38166980082
0.009047357242349292,69345.31862014212
0.00940251742967013,70658.35950445427
0.009771619672696168,71936.72489166823
0.010155211276345676,73174.26272237391
0.010553861030365234,74364.39070724369
0.010968160052731372,75500.27228404918
0.011398722666160517,76574.37913335736
0.011846187309026826,77578.8120879551
0.012311217482038896,78505.30138650128
0.012794502732078732,79344.92603008397
0.013296759674662111,80088.65633269255
0.013818733056536317,80726.8650233046
0.014361196859990781,81249.62656644016
0.014924955450518284,81646.97943669396
0.015510844769528393,81908.35045604141
0.016119733573881575,82023.46349969479
0.01675252472408214,81981.87911208194
0.017410156523040152,81773.16191834759
0.018093604107387147,81387.65456387892
0.01880388089340914,80815.62537634835
0.019542040079740527,80048.4626584595
0.02030917620904734,79078.56835345065
0.021106426791015535,77899.23669443693
0.021934973989050584,76505.92170024395
0.02279604637318978,74895.29753476087
0.023690920741826323,73066.3842693223
0.02462092401494623,71021.30349680425
0.02558743520168586,68765.17342323439
0.02659188744512693,66306.60143059578
0.027635770147361564,63655.871777209664
0.028720631177978267,60825.83969466741
0.029848079169243254,57835.69928874924
0.03101978590138095,54715.51215868561
0.03223748878149028,51498.112965505956
0.0335029934197723,48211.46417060086
0.03481817630688963,44879.259946823586
0.03618498759642746,41529.1339135399
0.037605453996581675,38199.919347237264
0.03908168177536263,34930.77054031168
0.04061585988376978,31762.073510466416
0.04221026320156896,28733.74264647359
0.04386725591048496,25879.700715722058
0.0455892949998106,23231.820213862462
0.047378933909631396,20812.395195351823
0.049238826317067365,18638.904822405417
0.05117173007114603,16719.50904192404
0.05318051128214196,15057.111724110599
0.05526814857144601,13647.423219808043
0.057437737488265785,12481.786907277981
0.0596924950997073,11547.015055953536
0.0620357647610427,10827.167669913353
0.06447102107323864,10302.186642502835
0.06700187503509585,9947.898638044016
0.06963207939763882,9735.563806903805
0.0723655342286965,9629.84571379264
0.07520629269592405,9588.718048561086
0.07815856707684081,9564.83779597707
0.08122673500479707,9508.063989860522
0.08441534596012978,9368.145889115494
0.0877291280161335,9099.316424652863
0.09117299484984914,8668.859640828912
0.09475205302806537,8066.289277359123
0.09847160957933764,7308.810435296999
0.1023371798632519,6442.448120700749
0.10635449574860109,5534.912072383346
0.11052951411260206,4661.6604880157465
0.1148684256737553,3890.166355194961
0.1193776641714435,3268.4298722321755
0.1240639159058831,2820.9266331156714
0.12893412965257148,2551.06049189844
0.13399552696593373,2446.1641341646064
0.1392556128874462,2479.813730866068
0.14472218707411338,2608.199808761407
0.15040335536380234,2764.2195845285364
0.15630754179458153,2861.5363253775577
0.16244350109588662,2819.6514495292813
0.16882033167003618,2601.8370426009938
0.17544748908334581,2237.6647167317133
0.1823348000868439,1813.2205216784264
0.189492477187382,1431.903454601403
0.19693113379074215,1168.6699178657805
0.20466179993919872,1049.525545487809
0.21269593866686892,1061.1150276599499
0.22104546299710207,1156.211661069482
0.22972275360711503,1249.8623371235171
0.23874067718606454,1246.247061534267
0.2481126055137766,1104.85872869314
0.25785243528842716,881.8325846333755
0.26797460873256895,682.9992450184805
0.27849413500806414,580.5129048648446
0.28942661247167484,582.3388381471943
0.3007882518043098,640.1349314810152
0.31259590004822796,665.7922780141383
0.324867065587837,596.9323201350244
0.3376199441111335,470.69652923508085
0.35087344559027084,377.11551990596405
0.36464722232127456,359.00570951899056
0.37896169806447155,387.0133911820737
0.3938380983288488,387.6708816060794
0.4092984818452433,327.41116105654896
0.4253657732750382,261.0403982351436
0.44206379720285277,241.78941729946288
0.45941731346364734,253.5129726771613
0.47745205385661277,240.43615107237255
0.4961947603002895,197.3802468166171
0.5156732244854959,172.6195210712732
0.5359163290848509,174.39377701036454
0.556954090580013,164.4724938188104
0.5788177037701272,137.87185154034424
0.6015395880274836,126.45523439944601
0.6251534353689703,123.75088278060547
0.6496942604146115,109.46252245515355
0.6751984523072497,94.02062946058356
0.7017038286703824,83.60320616750037
0.7292496916841444,76.38344352448625
0.7578768863625915,71.04105387543308
0.7876278611187046,66.63628218724597
0.8185467307069019,62.45405802969602
0.850679341636415,58.020757994050626
0.8840733401525058,53.40528877137256
0.9187782428863317,48.814191126689124
0.9548455102782278,44.407184291807404
0.9923286228832539,40.298607244148556
1.0312831606721837,36.562875027876665
1.0717668854455022,33.220307312897106
1.1138398264826193,30.22194962536117
1.1575643695533022,27.5178663715938
1.2030053494233226,25.066771955379874
1.2502301459914542,22.83449228817808
1.299308784200415,20.792843778431656
1.3503140378698726,18.922533272437818
1.4033215376054824,17.211642776592967
1.4584098829439835,15.648979748678439
1.5156607589006013,14.223726428884273
1.575159057091621,12.925501711593837
1.6369930016117014,11.74433741003447
1.7012542798525885,10.670047340190985
1.7680381784572046,9.692820021368494
1.8374437246107238,8.803772780495649
1.9095738328780953,7.994867556653702
1.9845354578058014,7.258826097648531
2.0624397525140905,6.589084127364439
2.143402233514853,5.979821940368256
2.227542951999554,5.425755575347574
2.314986671851158,4.922040774556317
2.405863054644063,4.464238957340938
2.5003068519063225,4.048285518962253
2.598458104929248,3.670451673526142
2.7004623524206774,3.327310239971766
2.806470846309834,3.0157328954922376
2.916640776023701,2.7328677784028526
3.031135501567576,2.4761156032975906
3.150124795755327,2.2431078352383627
3.2737850959485697,2.0316879628693307
3.4022997656780634,1.839892746533253
3.5358593665351745,1.6659336333388075
3.6746619407366854,1.5081815336810236
3.8189133047818515,1.3651529758474332
3.968827354637162,1.2354973999454795
4.1246263829013445,1.117985349047585
4.286541408420921,1.011498032998846
4.4548125188449825,0.915017750418919
4.629689226627261,0.8276189648702559
4.811430839003257,0.748460145476136
5.000306842491082,0.6767762501650193
5.196597302486189,0.6118717488188916
5.400593278542364,0.5531146762215574
5.612597255954967,0.4999310127428063
5.8329235942862,0.45179947122275743
6.06189899349756,0.4082467438308371
6.29986297838068,0.3688433496084347
6.547168402004727,0.33319978171115644
6.804181968927091,0.3009624734524687
7.071284778942991,0.27181050691297903
7.348872892180382,0.2454526655252635
7.637357916378006,0.221624712775125
7.937167617217536,0.20008622944064436
8.248746552614573,0.18061870042872769
8.572556731909314,0.1630243801686797
8.909078300934132,0.1471243532041819
9.258810253973934,0.13275673804289476
9.622271173675122,0.11977530408206186
9.999999999999984,0.10804964468118146
