k [1/Mpc],P(k) [Mpc^3]
0.0001,94.35522927779472
0.00010392556829367125,98.05871863295329
0.00010800523745162529,101.90753105171022
0.00011224505680853065,105.90736164123022
0.00011665131316981963,110.06412916591738
0.00012123054013376525,114.3839878722196
0.00012598952777950273,118.87333400490448
0.00013093533273536104,123.53881004577634
0.00013607528864243335,128.38731282602035
0.00014141701702890234,133.42600880199964
0.00014696843861124463,138.66234940570982
0.00015273778503907136,144.1040794944984
0.00015873361110102093,149.75924295378283
0.00016496480740980205,155.63619032250162
0.0001714406135851971,161.74359698164014
0.00017817063195457305,168.09048049500876
0.00018516484179121546,174.68621272603403
0.000192433614111598,181.54053022504954
0.00019998772705352857,188.66354630032868
0.0002078383818579757,196.0657673222954
0.00021599721947827182,203.75810140960093
0.0002244763378413224,211.75187336616827
0.0002332883097864157,220.0588472985361
0.00024244620170823283,228.69124613881414
0.0002519635929317015,237.66176747944345
0.0002618545958474233,246.98359811879433
0.0002721338768375308,256.6704310785331
0.0002828166780230032,266.73648752568175
0.0002939188398646886,277.196530291771
0.0003054568246515432,288.0658875998157
0.00031744774091091926,299.3604729365074
0.00032990936877709396,311.0968001268957
0.00034286018635565856,323.29201411612286
0.00035631939712285854,335.96390952076484
0.000370306958400514,349.1309558820089
0.00038484361094874304,362.81232684855985
0.0003999509097203664,377.02792463102367
0.00041565125582259895,391.79840791494763
0.00043196792973341727,407.1451949205217
0.0004489251258218605,423.090484032712
0.0004665479882234472,439.6573064161499
0.000484862648123908,456.86955004068454
0.000503896262506515,474.75199525837166
0.0005236770544204653,493.3303445900356
0.0005442343548300266,512.6312508572339
0.0005655986461065005,532.6823514324407
0.0005878016072274912,553.5122326123924
0.0006108761607505036,575.1504854886025
0.0006348565216305217,597.6277946566488
0.0006597782479539537,620.9760023272013
0.0006856782936641739,645.2281166483298
0.0007125950633568407,670.4182575807314
0.0007405684692262436,696.5816911083693
0.0007696399902471156,723.7549391439748
0.0007998527336796708,751.9758222197698
0.000831251498989063,781.2835008350747
0.0008638828442740447,811.7184445123816
0.000897795155303332,843.32243303684
0.0009330387172620361,876.1386742314501
0.0009696657893145519,910.211788289587
0.001007730682094461,945.5878809634381
0.0010472898382363582,982.3145809071343
0.0010884019160690055,1020.4410350652436
0.0011311278765939214,1060.0179961705794
0.001175531073878369,1101.0976736832815
0.0012216773489967915,1143.733805494982
0.0012696351276599736,1187.981803286748
0.0013194755216767058,1233.8987226139475
0.0013712724343984,1281.5433564206437
0.0014251026703029975,1330.9760605509778
0.0014810460488806749,1382.2587290878869
0.0015391855229902056,1435.454993581683
0.001599607301861487,1490.6300220617638
0.0016624009789266115,1547.8506869828511
0.0017276596646690358,1607.1854999671157
0.0017954801246878305,1668.7044785934982
0.0018659629231817451,1732.4793529076194
0.001939212572065829,1798.5832157090529
0.0020153376859417325,1867.090650532439
0.002094451143151469,1938.0777455097866
0.002176670253153458,2011.6217386572748
0.002262116930469025,2087.80132552685
0.002350917875457286,2166.6961728657934
0.002443204762186487,2248.3868748310815
0.0025391144336803463,2332.955187846899
0.002638789104828933,2420.483533882438
0.002742376573264949,2511.055253364419
0.0028500304385181063,2604.7540355944584
0.0029619103297725525,2701.663517974074
0.0030781821425650787,2801.867755514952
0.003199018284775064,2905.450458811597
0.0033245979322709396,3012.495185788579
0.003455107294592217,3123.084848641012
0.0035907398910610534,3237.3007561256964
0.0037316968377327513,3355.223324036913
0.0038781871456107214,3476.930917765249
0.0040304280305680515,3602.4998243532286
0.00418864523543527,3732.0041333733966
0.004353073364731888,3865.514118131728
0.00452395623253805,4003.0970625934888
0.004701547224022131,4144.815453200422
0.004886109671160325,4290.726261315494
0.005077917243205399,4440.881749549168
0.005277254352483535,4595.327135934082
0.005484416576121017,4754.101369270031
0.005699711094326071,4917.23449152125
0.005923457145875801,5084.744927647869
0.006155986501483508,5256.642910464124
0.006397643955748424,5432.932581870949
0.0066487878384172625,5613.610548668543
0.0069097905457156435,5798.654945615281
0.007181039092537346,5988.009347628091
0.007462935686310132,6181.599651284991
0.007755898323389004,6379.347953155327
0.00806036140886134,6581.171253706764
0.008376776400682916,6786.965130211746
0.008705612479099857,6996.579808379775
0.009047357242349292,7209.837883497608
0.00940251742967013,7426.548281163436
0.009771619672696168,7646.5087763223055
0.010155211276345676,7869.492338816975
0.010553861030365234,8095.220517898404
0.010968160052731372,8323.376702222286
0.011398722666160517,8553.609227825751
0.011846187309026826,8785.523173935404
0.012311217482038896,9018.690413918646
0.012794502732078732,9252.642018882465
0.013296759674662111,9486.870745106382
0.013818733056536317,9720.829241996225
0.014361196859990781,9953.913574174017
0.014924955450518284,10185.480521966914
0.015510844769528393,10414.838477256275
0.016119733573881575,10641.247667654412
0.01675252472408214,10863.931701132075
0.017410156523040152,11082.065576284762
0.018093604107387147,11294.7894897515
0.01880388089340914,11501.210298258111
0.019542040079740527,11700.401008178866
0.02030917620904734,11891.415290437813
0.021106426791015535,12073.296260063
0.021934973989050584,12245.080692663885
0.02279604637318978,12405.812027651804
0.023690920741826323,12554.5589583501
0.02462092401494623,12690.41063367728
0.02558743520168586,12812.548511951376
0.02659188744512693,12920.2398159712
0.027635770147361564,13012.799337901315
0.028720631177978267,13089.617823888833
0.029848079169243254,13150.154480003528
0.03101978590138095,13194.266778671925
0.03223748878149028,13222.28127686697
0.0335029934197723,13234.54807824709
0.03481817630688963,13231.076285239955
0.03618498759642746,13211.782155960896
0.037605453996581675,13177.08168695536
0.03908168177536263,13128.248529715363
0.04061585988376978,13066.657144838038
0.04221026320156896,12993.532057014147
0.04386725591048496,12910.006660555508
0.0455892949998106,12817.37002000774
0.047378933909631396,12717.345793930741
0.049238826317067365,12611.670233091383
0.05117173007114603,12501.596063570898
0.05318051128214196,12388.023782978902
0.05526814857144601,12271.320223455074
0.057437737488265785,12151.146374799777
0.0596924950997073,12026.688308762743
0.0620357647610427,11896.41161051847
0.06447102107323864,11758.450812439987
0.06700187503509585,11610.561372014194
0.06963207939763882,11450.299153033817
0.0723655342286965,11275.12087556976
0.07520629269592405,11082.512206707734
0.07815856707684081,10870.284564107675
0.08122673500479707,10636.877296551333
0.08441534596012978,10382.01232630252
0.0877291280161335,10107.153244540765
0.09117299484984914,9815.805223158599
0.09475205302806537,9513.472723874656
0.09847160957933764,9207.06225628753
0.1023371798632519,8903.680102432607
0.10635449574860109,8609.947313752113
0.11052951411260206,8330.998940743008
0.1148684256737553,8069.824817342759
0.1193776641714435,7826.585167086404
0.1240639159058831,7597.875060035237
0.12893412965257148,7376.619850662615
0.13399552696593373,7154.192082088357
0.1392556128874462,6922.755833049674
0.14472218707411338,6674.749046290908
0.15040335536380234,6408.251938031624
0.15630754179458153,6127.9049991558295
0.16244350109588662,5843.453633958361
0.16882033167003618,5567.231366275369
0.17544748908334581,5310.227612896427
0.1823348000868439,5078.44056685766
0.189492477187382,4870.291917215299
0.19693113379074215,4675.999740266498
0.20466179993919872,4481.536509184752
0.21269593866686892,4276.623329795907
0.22104546299710207,4060.047551832442
0.22972275360711503,3839.678998351032
0.23874067718606454,3629.009718836366
0.2481126055137766,3438.796581986108
0.25785243528842716,3269.2704040948242
0.26797460873256895,3111.2856280441283
0.27849413500806414,2953.0611897229373
0.28942661247167484,2789.1919382137157
0.3007882518043098,2625.0024549908176
0.31259590004822796,2470.8276445066576
0.324867065587837,2331.9023662447635
0.3376199441111335,2203.6999766918407
0.35087344559027084,2078.2181130335985
0.36464722232127456,1952.5334667446464
0.37896169806447155,1831.4862637145968
0.3938380983288488,1720.1340154251748
0.4092984818452433,1617.1939701608069
0.4253657732750382,1517.59710572553
0.44206379720285277,1420.4517315034311
0.45941731346364734,1329.298885748724
0.47745205385661277,1245.1206007988687
0.4961947603002895,1164.8353677588038
0.5156732244854959,1087.711705485994
0.5359163290848509,1015.6516189530308
0.556954090580013,948.2289257391799
0.5788177037701272,884.2072875627222
0.6015395880274836,823.9539698083257
0.6251534353689703,767.51891568649
0.6496942604146115,714.4360514327259
0.6751984523072497,664.5344888421881
0.7017038286703824,617.8941287476114
0.7292496916841444,574.0732367560776
0.7578768863625915,533.0916641158276
0.7876278611187046,494.7579833141172
0.8185467307069019,458.93077743131767
0.850679341636415,425.46436228378013
0.8840733401525058,394.2201008968818
0.9187782428863317,365.07363109157797
0.9548455102782278,337.90517732990395
0.9923286228832539,312.5996316834902
1.0312831606721837,289.04659982476403
1.0717668854455022,267.1398240303383
1.1138398264826193,246.7766697613427
1.1575643695533022,227.85956380965027
1.2030053494233226,210.29605663267267
1.2502301459914542,193.99864980598977
1.299308784200415,178.88462411297186
1.3503140378698726,164.875976789412
1.4033215376054824,151.89921264800518
1.4584098829439835,139.88500629082804
1.5156607589006013,128.76802763434574
1.575159057091621,118.48677625682649
1.6369930016117014,108.9834046157049
1.7012542798525885,100.20345894055461
1.7680381784572046,92.09580181305756
1.8374437246107238,84.61252404892329
1.9095738328780953,77.70877883382822
1.9845354578058014,71.34261988746631
2.0624397525140905,65.47484167786038
2.143402233514853,60.06881893542207
2.227542951999554,55.090375486586474
2.314986671851158,50.50764809712029
2.405863054644063,46.29095110804715
2.5003068519063225,42.41264687969882
2.598458104929248,38.8470112106257
2.7004623524206774,35.570108143668804
2.806470846309834,32.5597036967094
2.916640776023701,29.79516053105032
3.031135501567576,27.257334630327506
3.150124795755327,24.928477320652377
3.2737850959485697,22.792136963397557
3.4022997656780634,20.833073933195347
3.5358593665351745,19.037186242777945
3.6746619407366854,17.391431734672068
3.8189133047818515,15.883754571331325
3.968827354637162,14.50301593012132
4.1246263829013445,13.238927056149532
4.286541408420921,12.081990786520514
4.4548125188449825,11.023446345785715
4.629689226627261,10.05521595550466
4.811430839003257,9.169854936080545
5.000306842491082,8.360503220593166
5.196597302486189,7.620836982638176
5.400593278542364,6.945036292664194
5.612597255954967,6.327749185574728
5.8329235942862,5.764055812780387
6.06189899349756,5.2494352006086675
6.29986297838068,4.779738629308349
6.547168402004727,4.351163201165036
6.804181968927091,3.9602156581982744
7.071284778942991,3.6036875115444302
7.348872892180382,3.278633124172013
7.637357916378006,2.9823486257718423
7.937167617217536,2.7123378855037115
8.248746552614573,2.4663016400417512
8.572556731909314,2.242139952460226
8.909078300934132,2.0379356677508267
9.258810253973934,1.8519384720228769
9.622271173675122,1.6825554773376243
9.999999999999984,1.528372685755977
