k [1/Mpc],P(k) [Mpc^3]
0.0001,584.1543612072147
0.00010392556829367125,605.330525684915
0.00010800523745162529,627.2739503496476
0.00011224505680853065,650.0124252399139
0.00011665131316981963,673.5747376415898
0.00012123054013376525,697.9906557064826
0.00012598952777950273,723.2909970153387
0.00013093533273536104,749.507706838522
0.00013607528864243335,776.6739152781065
0.00014141701702890234,804.8239490095343
0.00014696843861124463,833.9933614587138
0.00015273778503907136,864.2189805456807
0.00015873361110102093,895.5389359056574
0.00016496480740980205,927.9926665050301
0.0001714406135851971,961.6210140728577
0.00017817063195457305,996.4663202570337
0.00018516484179121546,1032.5724765571395
0.000192433614111598,1069.984936193931
0.00019998772705352857,1108.7507264483068
0.0002078383818579757,1148.9185391395988
0.00021599721947827182,1190.5387881519314
0.0002244763378413224,1233.6636653945743
0.0002332883097864157,1278.347208361137
0.00024244620170823283,1324.6453177323187
0.0002519635929317015,1372.6158500785882
0.0002618545958474233,1422.3187084518527
0.0002721338768375308,1473.8159163572327
0.0002828166780230032,1527.1716800158565
0.0002939188398646886,1582.452404232253
0.0003054568246515432,1639.7267864003447
0.00031744774091091926,1699.065896411478
0.00032990936877709396,1760.5431938036493
0.00034286018635565856,1824.234671974785
0.00035631939712285854,1890.218902038595
0.000370306958400514,1958.577117654591
0.00038484361094874304,2029.3933405074174
0.0003999509097203664,2102.7544438817886
0.00041565125582259895,2178.750264106476
0.00043196792973341727,2257.473507007504
0.0004489251258218605,2339.0197442290328
0.0004665479882234472,2423.4877543122793
0.000484862648123908,2510.979780156781
0.000503896262506515,2601.601563480987
0.0005236770544204653,2695.462119363773
0.0005442343548300266,2792.673515382192
0.0005655986461065005,2893.3514060674615
0.0005878016072274912,2997.615291220614
0.0006108761607505036,3105.5886060722114
0.0006348565216305217,3217.3986159790247
0.0006597782479539537,3333.1761518666963
0.0006856782936641739,3453.0560593707996
0.0007125950633568407,3577.1772604481657
0.0007405684692262436,3705.682843716374
0.0007696399902471156,3838.72017439836
0.0007998527336796708,3976.4404978793305
0.000831251498989063,4118.999382323406
0.0008638828442740447,4266.556764715091
0.000897795155303332,4419.276902654685
0.0009330387172620361,4577.328677453097
0.0009696657893145519,4740.885173326183
0.001007730682094461,4910.123994267978
0.0010472898382363582,5085.227113542275
0.0010884019160690055,5266.380237306318
0.0011311278765939214,5453.773672967999
0.001175531073878369,5647.602032159487
0.0012216773489967915,5848.064345902725
0.0012696351276599736,6055.363949277753
0.0013194755216767058,6269.707164625601
0.0013712724343984,6491.3044234144245
0.0014251026703029975,6720.36953418049
0.0014810460488806749,6957.119378169033
0.0015391855229902056,7201.774626140532
0.001599607301861487,7454.558449319248
0.0016624009789266115,7715.697197783426
0.0017276596646690358,7985.419562974996
0.0017954801246878305,8263.955452929265
0.0018659629231817451,8551.53713331929
0.001939212572065829,8848.396699207638
0.0020153376859417325,9154.766729815103
0.002094451143151469,9470.88051079407
0.002176670253153458,9796.970327131277
0.002262116930469025,10133.268473272248
0.002350917875457286,10480.004211943831
0.002443204762186487,10837.403481680125
0.0025391144336803463,11205.689752004328
0.002638789104828933,11585.080771819386
0.002742376573264949,11975.790123086774
0.0028500304385181063,12378.024173724501
0.0029619103297725525,12791.980178028376
0.0030781821425650787,13217.848196744004
0.003199018284775064,13655.806579315122
0.0033245979322709396,14106.023256665769
0.003455107294592217,14568.653230750715
0.0035907398910610534,15043.834377227737
0.0037316968377327513,15531.690519259502
0.0038781871456107214,16032.325482532222
0.0040304280305680515,16545.82349382355
0.00418864523543527,17072.247996797687
0.004353073364731888,17611.63416250188
0.00452395623253805,18163.993557110658
0.004701547224022131,18729.30907940987
0.004886109671160325,19307.533289739218
0.005077917243205399,19898.58619354889
0.005277254352483535,20502.335912512524
0.005484416576121017,21118.610684274627
0.005699711094326071,21747.216804024723
0.005923457145875801,22387.944050204245
0.006155986501483508,23040.53321627578
0.006397643955748424,23704.577475992366
0.0066487878384172625,24379.56910365711
0.0069097905457156435,25064.982091985206
0.007181039092537346,25760.32030672841
0.007462935686310132,26465.04054500464
0.007755898323389004,27178.443290816675
0.00806036140886134,27899.69426794235
0.008376776400682916,28627.914057221595
0.008705612479099857,29362.242774607897
0.009047357242349292,30101.77324020306
0.00940251742967013,30845.45402943615
0.009771619672696168,31592.079766246537
0.010155211276345676,32340.356107657088
0.010553861030365234,33088.86843027904
0.010968160052731372,33836.10794886872
0.011398722666160517,34580.48462359191
0.011846187309026826,35320.328596839274
0.012311217482038896,36053.88740928718
0.012794502732078732,36779.27966821654
0.013296759674662111,37494.52287182152
0.013818733056536317,38197.54574596577
0.014361196859990781,38886.16912441584
0.014924955450518284,39558.14481061735
0.015510844769528393,40211.1559506497
0.016119733573881575,40842.8283561704
0.01675252472408214,41450.74604254217
0.017410156523040152,42032.452428173514
0.018093604107387147,42585.472417966484
0.01880388089340914,43107.35249016332
0.019542040079740527,43595.67830419678
0.02030917620904734,44048.07852017203
0.021106426791015535,44462.311956951795
0.021934973989050584,44836.229168656886
0.02279604637318978,45167.84255328789
0.023690920741826323,45455.40159181087
0.02462092401494623,45697.30353225619
0.02558743520168586,45892.31018196306
0.02659188744512693,46039.4515364887
0.027635770147361564,46138.02249653585
0.028720631177978267,46187.77295827632
0.029848079169243254,46188.67655985464
0.03101978590138095,46141.20365446874
0.03223748878149028,46046.25488865336
0.0335029934197723,45904.992968812956
0.03481817630688963,45719.158846255494
0.03618498759642746,45490.680679793826
0.037605453996581675,45220.37081494444
0.03908168177536263,44907.67925129281
0.04061585988376978,44552.707643066846
0.04221026320156896,44159.441502441616
0.04386725591048496,43733.30608545392
0.0455892949998106,43277.36673309349
0.047378933909631396,42790.50345058443
0.049238826317067365,42271.19263031519
0.05117173007114603,41716.87116137898
0.05318051128214196,41124.52219306539
0.05526814857144601,40491.71502062989
0.057437737488265785,39816.898614369544
0.0596924950997073,39099.295999197384
0.0620357647610427,38340.02686457872
0.06447102107323864,37540.90495887411
0.06700187503509585,36704.04200727236
0.06963207939763882,35831.90610240459
0.0723655342286965,34927.741926914496
0.07520629269592405,33996.230855760725
0.07815856707684081,33044.91966628399
0.08122673500479707,32083.25953693894
0.08441534596012978,31121.680575939943
0.0877291280161335,30168.582718546193
0.09117299484984914,29228.438781619276
0.09475205302806537,28301.587130182186
0.09847160957933764,27386.192875602945
0.1023371798632519,26476.932193914578
0.10635449574860109,25572.080269500137
0.11052951411260206,24672.983214430686
0.1148684256737553,23767.080168573484
0.1193776641714435,22847.491536798534
0.1240639159058831,21918.51463859309
0.12893412965257148,20990.93600494075
0.13399552696593373,20079.190233484733
0.1392556128874462,19195.83302312893
0.14472218707411338,18347.504528934205
0.15040335536380234,17533.040812562558
0.15630754179458153,16745.310143957548
0.16244350109588662,15976.227809941034
0.16882033167003618,15219.641380164023
0.17544748908334581,14472.36449436599
0.1823348000868439,13738.672060275694
0.189492477187382,13029.873599461354
0.19693113379074215,12353.021031604225
0.20466179993919872,11706.826755419117
0.21269593866686892,11087.144687182088
0.22104546299710207,10487.946292271048
0.22972275360711503,9906.679993983224
0.23874067718606454,9347.189103414776
0.2481126055137766,8812.496457647705
0.25785243528842716,8302.960163288222
0.26797460873256895,7816.803504820539
0.27849413500806414,7352.7828913517715
0.28942661247167484,6909.809142006214
0.3007882518043098,6487.552941804667
0.31259590004822796,6085.7134298784
0.324867065587837,5704.697631134049
0.3376199441111335,5343.927024080187
0.35087344559027084,5001.568492969305
0.36464722232127456,4677.117827532304
0.37896169806447155,4371.051144638209
0.3938380983288488,4081.9621069059576
0.4092984818452433,3808.7880786471083
0.4253657732750382,3551.7838397522237
0.44206379720285277,3309.7398520210586
0.45941731346364734,3081.825305915049
0.47745205385661277,2867.9247759185964
0.4961947603002895,2666.828419668405
0.5156732244854959,2478.3868436930998
0.5359163290848509,2301.6917010463867
0.556954090580013,2136.275443724253
0.5788177037701272,1981.557581689762
0.6015395880274836,1836.9224297503324
0.6251534353689703,1701.8456886519346
0.6496942604146115,1575.7858011836402
0.6751984523072497,1458.1771100839621
0.7017038286703824,1348.6110741065297
0.7292496916841444,1246.5923306264744
0.7578768863625915,1151.69155359764
0.7876278611187046,1063.4368922046808
0.8185467307069019,981.4255833794545
0.850679341636415,905.2727344779896
0.8840733401525058,834.6112235593927
0.9187782428863317,769.0910849819943
0.9548455102782278,708.3766989704421
0.9923286228832539,652.1491659644579
1.0312831606721837,600.1074963439975
1.0717668854455022,551.9679232594766
1.1138398264826193,507.46320239445413
1.1575643695533022,466.34209107628953
1.2030053494233226,428.3687686459965
1.2502301459914542,393.32172507838163
1.299308784200415,360.99305662371427
1.3503140378698726,331.1878281792334
1.4033215376054824,303.72341520694414
1.4584098829439835,278.4285850339895
1.5156607589006013,255.14313738868802
1.575159057091621,233.71757353886298
1.6369930016117014,214.0124961746213
1.7012542798525885,195.89802751760698
1.7680381784572046,179.25325106852264
1.8374437246107238,163.96567705460993
1.9095738328780953,149.93073158416496
1.9845354578058014,137.0512691814575
2.0624397525140905,125.23710843413336
2.143402233514853,114.4045871110646
2.227542951999554,104.47608421552988
2.314986671851158,95.37965217769825
2.405863054644063,87.04870752626002
2.5003068519063225,79.4216694772244
2.598458104929248,72.44161682799486
2.7004623524206774,66.0559608089877
2.806470846309834,60.2161293411293
2.916640776023701,54.877301741362295
3.031135501567576,49.99814634279799
3.150124795755327,45.540568367184356
3.2737850959485697,41.46947380965201
3.4022997656780634,37.75253917205762
3.5358593665351745,34.36000701343441
3.6746619407366854,31.26450922386316
3.8189133047818515,28.440887381792614
3.968827354637162,25.866024507003676
4.1246263829013445,23.51868808607099
4.286541408420921,21.379382143069172
4.4548125188449825,19.430215375667487
4.629689226627261,17.65477725214829
4.811430839003257,16.038021466082288
5.000306842491082,14.566157896549917
5.196597302486189,13.226547214714971
5.400593278542364,12.007606380473565
5.612597255954967,10.898734600285731
5.8329235942862,9.890234373999697
6.06189899349756,8.973237377195268
6.29986297838068,8.139637355529862
6.547168402004727,7.382037203447989
6.804181968927091,6.693681423410583
7.071284778942991,6.068395140281272
7.348872892180382,5.500536317722388
7.637357916378006,4.984951746067992
7.937167617217536,4.5169237227654895
8.248746552614573,4.092118439615023
8.572556731909314,3.7065892746252134
8.909078300934132,3.3567481329915783
9.258810253973934,3.0393328192342675
9.622271173675122,2.7513809181236413
9.999999999999984,2.4902536428789603
