k [1/Mpc],P(k) [Mpc^3]
0.0001,45.18014809046503
0.00010392556829367125,47.225530858311295
0.00010800523745162529,49.363495858448054
0.00011224505680853065,51.598234322332914
0.00011665131316981963,53.93412522273036
0.00012123054013376525,56.37574433409336
0.00012598952777950273,58.92787399818722
0.00013093533273536104,61.595512076801405
0.00013607528864243335,64.38388208938895
0.00014141701702890234,67.29844417168222
0.00014696843861124463,70.34490577472457
0.00015273778503907136,73.5292321835407
0.00015873361110102093,76.85765785220143
0.00016496480740980205,80.3366987260183
0.0001714406135851971,83.97316410011277
0.00017817063195457305,87.77416935998411
0.00018516484179121546,91.74715040580384
0.000192433614111598,95.89987558313018
0.00019998772705352857,100.2404618561701
0.0002078383818579757,104.77739435482006
0.00021599721947827182,109.51954637980928
0.0002244763378413224,114.4761917133365
0.0002332883097864157,119.65701323354892
0.00024244620170823283,125.07212294391891
0.0002519635929317015,130.73208873094308
0.0002618545958474233,136.64795975095478
0.0002721338768375308,142.83128334825594
0.0002828166780230032,149.2941220760809
0.0002939188398646886,156.04907597181693
0.0003054568246515432,163.10930884431355
0.00031744774091091926,170.48856738444323
0.00032990936877709396,178.20121106356808
0.00034286018635565856,186.26224328732766
0.00035631939712285854,194.68734128932698
0.000370306958400514,203.4928825512482
0.00038484361094874304,212.6959667315312
0.0003999509097203664,222.31445098014734
0.00041565125582259895,232.3669843690501
0.00043196792973341727,242.87303729813556
0.0004489251258218605,253.8529435414581
0.0004665479882234472,265.3279386815997
0.000484862648123908,277.3201995614978
0.000503896262506515,289.8528772733011
0.0005236770544204653,302.950113877638
0.0005442343548300266,316.6371062381453
0.0005655986461065005,330.940167837637
0.0005878016072274912,345.8867801135287
0.0006108761607505036,361.5056265875075
0.0006348565216305217,377.8266078379281
0.0006597782479539537,394.8809133257234
0.0006856782936641739,412.7010794866918
0.0007125950633568407,431.3210359320145
0.0007405684692262436,450.7761787121203
0.0007696399902471156,471.10342859421314
0.0007998527336796708,492.3412959893867
0.000831251498989063,514.5299233140984
0.0008638828442740447,537.7110989810974
0.000897795155303332,561.9283768269164
0.0009330387172620361,587.2271473645021
0.0009696657893145519,613.6547110275874
0.001007730682094461,641.2603490397843
0.0010472898382363582,670.0953447078274
0.0010884019160690055,700.2131028188426
0.0011311278765939214,731.6692105252408
0.001175531073878369,764.5215000393154
0.0012216773489967915,798.830161944783
0.0012696351276599736,834.6577190213692
0.0013194755216767058,872.0691678492486
0.0013712724343984,911.1320717169432
0.0014251026703029975,951.9165879422623
0.0014810460488806749,994.4956301384494
0.0015391855229902056,1038.9448491879311
0.001599607301861487,1085.3427486672888
0.0016624009789266115,1133.770782920862
0.0017276596646690358,1184.3132566026336
0.0017954801246878305,1237.0575826064323
0.0018659629231817451,1292.094288687353
0.001939212572065829,1349.5170805340808
0.0020153376859417325,1409.4229895298738
0.002094451143151469,1471.9121650181046
0.002176670253153458,1537.088141467657
0.002262116930469025,1605.0578273936512
0.002350917875457286,1675.931428738326
0.002443204762186487,1749.8227177910103
0.0025391144336803463,1826.8486857142584
0.002638789104828933,1907.1297563269902
0.002742376573264949,1990.789883153702
0.0028500304385181063,2077.956305995038
0.0029619103297725525,2168.7598513899516
0.0030781821425650787,2263.334387185713
0.003199018284775064,2361.816855090098
0.0033245979322709396,2464.3475139843076
0.003455107294592217,2571.0693169842502
0.0035907398910610534,2682.1283254076156
0.0037316968377327513,2797.673211755889
0.0038781871456107214,2917.8549446440256
0.0040304280305680515,3042.8271220715624
0.00418864523543527,3172.744902982714
0.004353073364731888,3307.765362430959
0.00452395623253805,3448.0468091643475
0.004701547224022131,3593.7476535016276
0.004886109671160325,3745.0272454491615
0.005077917243205399,3902.0441678234033
0.005277254352483535,4064.956305047071
0.005484416576121017,4233.920566117761
0.005699711094326071,4409.090838738821
0.005923457145875801,4590.6189049216655
0.006155986501483508,4778.651062522099
0.006397643955748424,4973.327246560297
0.0066487878384172625,5174.783226150581
0.0069097905457156435,5383.151100221417
0.007181039092537346,5598.55758005919
0.007462935686310132,5821.1116074302
0.007755898323389004,6050.8969417877115
0.00806036140886134,6287.985158801127
0.008376776400682916,6532.445031609051
0.008705612479099857,6784.3371185708875
0.009047357242349292,7043.697487967517
0.00940251742967013,7310.522018399519
0.009771619672696168,7584.782990003721
0.010155211276345676,7866.438173975628
0.010553861030365234,8155.428068043266
0.010968160052731372,8451.661345323339
0.011398722666160517,8754.992771980447
0.011846187309026826,9065.239021923822
0.012311217482038896,9382.171864412345
0.012794502732078732,9705.51427388929
0.013296759674662111,10034.946011385347
0.013818733056536317,10370.093090483433
0.014361196859990781,10710.531960845588
0.014924955450518284,11055.778043822578
0.015510844769528393,11405.274283489889
0.016119733573881575,11758.40546819898
0.01675252472408214,12114.482873304367
0.017410156523040152,12472.750005195481
0.018093604107387147,12832.383226843209
0.01880388089340914,13192.479655211455
0.019542040079740527,13552.071402665484
0.02030917620904734,13910.11930069739
0.021106426791015535,14265.515698210642
0.021934973989050584,14617.094207079848
0.02279604637318978,14963.631749700295
0.023690920741826323,15303.854602303685
0.02462092401494623,15636.470435328829
0.02558743520168586,15960.18231373074
0.02659188744512693,16273.665934388997
0.027635770147361564,16575.575674534717
0.028720631177978267,16864.55289391223
0.029848079169243254,17139.422639163644
0.03101978590138095,17399.37750661632
0.03223748878149028,17643.661726723643
0.0335029934197723,17871.282174097414
0.03481817630688963,18081.108882613607
0.03618498759642746,18272.291109246635
0.037605453996581675,18444.7453839327
0.03908168177536263,18598.60094385834
0.04061585988376978,18734.170939286047
0.04221026320156896,18851.9424244072
0.04386725591048496,18952.5029407768
0.0455892949998106,19036.60994435244
0.047378933909631396,19105.117822571265
0.049238826317067365,19159.15444499665
0.05117173007114603,19200.199751849148
0.05318051128214196,19229.707061651297
0.05526814857144601,19248.667970636703
0.057437737488265785,19257.862176911265
0.0596924950997073,19257.210889071208
0.0620357647610427,19245.997063711482
0.06447102107323864,19222.670472736118
0.06700187503509585,19184.950200938314
0.06963207939763882,19129.98045070535
0.0723655342286965,19054.499277506726
0.07520629269592405,18954.936770881854
0.07815856707684081,18827.667055153976
0.08122673500479707,18669.161982230657
0.08441534596012978,18476.404438910824
0.0877291280161335,18247.303203973453
0.09117299484984914,17981.46321124504
0.09475205302806537,17680.977869136
0.09847160957933764,17350.706195998286
0.1023371798632519,16998.2366635541
0.10635449574860109,16633.115179722005
0.11052951411260206,16265.15189579909
0.1148684256737553,15903.269315181897
0.1193776641714435,15554.124244280958
0.1240639159058831,15221.058320743263
0.12893412965257148,14903.173986331502
0.13399552696593373,14594.557294098582
0.1392556128874462,14284.42600639982
0.14472218707411338,13959.261329131648
0.15040335536380234,13606.806446932122
0.15630754179458153,13220.391320686083
0.16244350109588662,12803.578941259886
0.16882033167003618,12367.989435520665
0.17544748908334581,11926.1790950317
0.1823348000868439,11495.731625242412
0.189492477187382,11090.441520047973
0.19693113379074215,10715.928378856517
0.20466179993919872,10366.758002133774
0.21269593866686892,10026.761328129822
0.22104546299710207,9676.010269437658
0.22972275360711503,9302.751961384563
0.23874067718606454,8910.160465242947
0.2481126055137766,8513.8940795694
0.25785243528842716,8135.140534987605
0.26797460873256895,7787.796396176018
0.27849413500806414,7468.0865179118855
0.28942661247167484,7159.110003119055
0.3007882518043098,6843.591763397944
0.31259590004822796,6517.476603728154
0.324867065587837,6193.745963279746
0.3376199441111335,5889.577843714957
0.35087344559027084,5609.601370185175
0.36464722232127456,5342.143335980049
0.37896169806447155,5074.343421702579
0.3938380983288488,4806.504243447136
0.4092984818452433,4550.740486708296
0.4253657732750382,4313.386972896862
0.44206379720285277,4087.4481449824
0.45941731346364734,3864.5511618168625
0.47745205385661277,3647.852088762663
0.4961947603002895,3444.1291877418985
0.5156732244854959,3251.5734452406846
0.5359163290848509,3064.9651484508827
0.556954090580013,2886.047175569723
0.5788177037701272,2717.50986079317
0.6015395880274836,2556.735516672
0.6251534353689703,2402.728964502939
0.6496942604146115,2257.160083883677
0.6751984523072497,2119.097062372898
0.7017038286703824,1987.8983928915134
0.7292496916841444,1863.7129358444997
0.7578768863625915,1746.0781518912406
0.7876278611187046,1634.9351898730956
0.8185467307069019,1529.8771901157984
0.850679341636415,1430.77733994033
0.8840733401525058,1337.17832823365
0.9187782428863317,1249.0032595329244
0.9548455102782278,1166.0078533372648
0.9923286228832539,1087.9370629106318
1.0312831606721837,1014.544716180705
1.0717668854455022,945.5934836067798
1.1138398264826193,880.8555687045721
1.1575643695533022,820.1169262056422
1.2030053494233226,763.1727134485811
1.2502301459914542,709.8245859160551
1.299308784200415,659.880877050016
1.3503140378698726,613.1567379786403
1.4033215376054824,569.4736386700312
1.4584098829439835,528.6588634607574
1.5156607589006013,490.5470178834083
1.575159057091621,454.9801474897885
1.6369930016117014,421.8075955780763
1.7012542798525885,390.88584147141586
1.7680381784572046,362.07829193296277
1.8374437246107238,335.25511319800364
1.9095738328780953,310.2930699113441
1.9845354578058014,287.07531797969136
2.0624397525140905,265.4911902414084
2.143402233514853,245.43595420087027
2.227542951999554,226.8105167358122
2.314986671851158,209.52130747234568
2.405863054644063,193.48008652253512
2.5003068519063225,178.60371463451946
2.598458104929248,164.8139250171885
2.7004623524206774,152.0370291157653
2.806470846309834,140.20368574254832
2.916640776023701,129.24881400705718
3.031135501567576,119.11138618838686
3.150124795755327,109.73421562948023
3.2737850959485697,101.0637502520949
3.4022997656780634,93.04986115894022
3.5358593665351745,85.64566570152166
3.6746619407366854,78.8073558320185
3.8189133047818515,72.49402217870914
3.968827354637162,66.66748568547702
4.1246263829013445,61.29212945465078
4.286541408420921,56.33473418897247
4.4548125188449825,51.76435590336795
4.629689226627261,47.552190282998325
4.811430839003257,43.671439061970034
5.000306842491082,40.0971823795661
5.196597302486189,36.80623484700815
5.400593278542364,33.777040615636636
5.612597255954967,30.989597196806237
5.8329235942862,28.425352847225376
6.06189899349756,26.067108578857255
6.29986297838068,23.8989338257939
6.547168402004727,21.906114280556473
6.804181968927091,20.075027905171204
7.071284778942991,18.393051353429684
7.348872892180382,16.848492811399762
7.637357916378006,15.430528338548703
7.937167617217536,14.12908379285967
8.248746552614573,12.934747618439934
8.572556731909314,11.838849774048171
8.909078300934132,10.833417740516719
9.258810253973934,9.911120078211294
9.622271173675122,9.065231999032282
9.999999999999984,8.289789040451543
