k [1/Mpc],P(k) [Mpc^3]
0.0001,1547.1394195032924
0.00010392556829367125,1598.6015431114115
0.00010800523745162529,1651.7745464125535
0.00011224505680853065,1706.7151357205505
0.00011665131316981963,1763.4818526474269
0.00012123054013376525,1822.1352157003691
0.00012598952777950273,1882.7378112401077
0.00013093533273536104,1945.3542958326614
0.00013607528864243335,2010.0514210309361
0.00014141701702890234,2076.898120025586
0.00014696843861124463,2145.96557881393
0.00015273778503907136,2217.327280123244
0.00015873361110102093,2291.059111448503
0.00016496480740980205,2367.239409285736
0.0001714406135851971,2445.949041271481
0.00017817063195457305,2527.271546315038
0.00018516484179121546,2611.293316456349
0.000192433614111598,2698.1036101901877
0.00019998772705352857,2787.7944269317227
0.0002078383818579757,2880.4604970981122
0.00021599721947827182,2976.199622268079
0.0002244763378413224,3075.1129858099353
0.0002332883097864157,3177.3051689486147
0.00024244620170823283,3282.8840296856383
0.0002519635929317015,3391.9606018212307
0.0002618545958474233,3504.649442743616
0.0002721338768375308,3621.068815125002
0.0002828166780230032,3741.3408002262618
0.0002939188398646886,3865.591345207193
0.0003054568246515432,3993.950209785349
0.00031744774091091926,4126.55121925332
0.00032990936877709396,4263.532394537642
0.00034286018635565856,4405.036055002498
0.00035631939712285854,4551.208951872655
0.000370306958400514,4702.202024668695
0.00038484361094874304,4858.170702935736
0.0003999509097203664,5019.275270018487
0.00041565125582259895,5185.681075203568
0.00043196792973341727,5357.558560777208
0.0004489251258218605,5535.082844985275
0.0004665479882234472,5718.433893559029
0.000484862648123908,5907.797017525474
0.000503896262506515,6103.362835418396
0.0005236770544204653,6305.3275653793935
0.0005442343548300266,6513.893031904099
0.0005655986461065005,6729.266708278853
0.0005878016072274912,6951.6619790553095
0.0006108761607505036,7181.297443168018
0.0006348565216305217,7418.397441586303
0.0006597782479539537,7663.192631106997
0.0006856782936641739,7915.920160775518
0.0007125950633568407,8176.823696746269
0.0007405684692262436,8446.152190802897
0.0007696399902471156,8724.160085035548
0.0007998527336796708,9011.108396318154
0.000831251498989063,9307.264658507596
0.0008638828442740447,9612.903180303632
0.000897795155303332,9928.30428038687
0.0009330387172620361,10253.753892743034
0.0009696657893145519,10589.544464932795
0.001007730682094461,10935.97312915956
0.0010472898382363582,11293.342650566969
0.0010884019160690055,11661.962173174386
0.0011311278765939214,12042.14688274665
0.001175531073878369,12434.218226894682
0.0012216773489967915,12838.500241941794
0.0012696351276599736,13255.319731181484
0.0013194755216767058,13685.008721680206
0.0013712724343984,14127.903534461286
0.0014251026703029975,14584.345292740845
0.0014810460488806749,15054.676276045324
0.0015391855229902056,15539.23775405086
0.001599607301861487,16038.373963901036
0.0016624009789266115,16552.431274040187
0.0017276596646690358,17081.758274346063
0.0017954801246878305,17626.702505405792
0.0018659629231817451,18187.60495856808
0.001939212572065829,18764.805311007603
0.0020153376859417325,19358.638767469874
0.002094451143151469,19969.435699133424
0.002176670253153458,20597.522136996613
0.002262116930469025,21243.213728657185
0.002350917875457286,21906.81901072328
0.002443204762186487,22588.634422438998
0.0025391144336803463,23288.940414985853
0.002638789104828933,24008.006040459873
0.002742376573264949,24746.081328370372
0.0028500304385181063,25503.39929757375
0.0029619103297725525,26280.173039751684
0.0030781821425650787,27076.586882547228
0.003199018284775064,27892.803080243495
0.0033245979322709396,28728.951109073627
0.003455107294592217,29585.126788138718
0.0035907398910610534,30461.394279248147
0.0037316968377327513,31357.770188161332
0.0038781871456107214,32274.232560644934
0.0040304280305680515,33210.710960845725
0.00418864523543527,34167.07826435252
0.004353073364731888,35143.158945442636
0.00452395623253805,36138.70299496757
0.004701547224022131,37153.39517296102
0.004886109671160325,38186.85137896902
0.005077917243205399,39238.59691332875
0.005277254352483535,40308.08443978217
0.005484416576121017,41394.65299231101
0.005699711094326071,42497.52910739488
0.005923457145875801,43615.853551682856
0.006155986501483508,44748.67130989477
0.006397643955748424,45894.933309801556
0.0066487878384172625,47053.37951199205
0.0069097905457156435,48222.4807989324
0.007181039092537346,49400.573045129706
0.007462935686310132,50585.86134550604
0.007755898323389004,51776.42121578693
0.00806036140886134,52970.1799529937
0.008376776400682916,54164.88728413198
0.008705612479099857,55358.14061135864
0.009047357242349292,56547.19873732212
0.00940251742967013,57729.007248081754
0.009771619672696168,58900.30458782522
0.010155211276345676,60057.479750825805
0.010553861030365234,61196.705476241565
0.010968160052731372,62313.85053777541
0.011398722666160517,63404.428688619744
0.011846187309026826,64463.74893132236
0.012311217482038896,65486.68754109989
0.012794502732078732,66467.84860577248
0.013296759674662111,67401.54049700362
0.013818733056536317,68281.56035817938
0.014361196859990781,69101.54415654832
0.014924955450518284,69854.70595432693
0.015510844769528393,70533.95003872908
0.016119733573881575,71132.0689777557
0.01675252472408214,71641.35583093074
0.017410156523040152,72054.09950282256
0.018093604107387147,72362.41287969843
0.01880388089340914,72558.18117038689
0.019542040079740527,72633.59572147434
0.02030917620904734,72580.73623419467
0.021106426791015535,72392.05451582845
0.021934973989050584,72060.44290438338
0.02279604637318978,71578.91343819837
0.023690920741826323,70941.49885254976
0.02462092401494623,70143.5026844608
0.02558743520168586,69181.65823657224
0.02659188744512693,68053.71039556932
0.027635770147361564,66756.83310893335
0.028720631177978267,65289.8059095031
0.029848079169243254,63658.26667239205
0.03101978590138095,61875.62686327725
0.03223748878149028,59954.97775195666
0.0335029934197723,57897.399008500615
0.03481817630688963,55701.11310106346
0.03618498759642746,53377.50904336712
0.037605453996581675,50960.49729859523
0.03908168177536263,48484.07643892151
0.04061585988376978,45969.71702752718
0.04221026320156896,43430.70481259949
0.04386725591048496,40885.946777546116
0.0455892949998106,38367.42040911298
0.047378933909631396,35905.320180282266
0.049238826317067365,33528.60934535196
0.05117173007114603,31261.981594147488
0.05318051128214196,29128.57078668571
0.05526814857144601,27146.997232623096
0.057437737488265785,25331.372101358793
0.0596924950997073,23690.733985902705
0.0620357647610427,22229.54334018563
0.06447102107323864,20947.213106367875
0.06700187503509585,19838.517601576194
0.06963207939763882,18892.97034333142
0.0723655342286965,18095.233307172217
0.07520629269592405,17424.285911998857
0.07815856707684081,16852.802092296548
0.08122673500479707,16348.191744707343
0.08441534596012978,15873.377836174619
0.0877291280161335,15389.436363750585
0.09117299484984914,14858.920858213343
0.09475205302806537,14249.92759707863
0.09847160957933764,13540.065126187714
0.1023371798632519,12720.405451432323
0.10635449574860109,11799.515778544494
0.11052951411260206,10804.47584377881
0.1148684256737553,9777.267449551922
0.1193776641714435,8769.827671798817
0.1240639159058831,7837.348437738011
0.12893412965257148,7027.624003028804
0.13399552696593373,6373.882689534482
0.1392556128874462,5890.838515703614
0.14472218707411338,5573.219699280779
0.15040335536380234,5395.272004113808
0.15630754179458153,5311.110330156705
0.16244350109588662,5257.526812188399
0.16882033167003618,5162.50066231358
0.17544748908334581,4962.639126821795
0.1823348000868439,4626.840185406372
0.189492477187382,4173.31984090183
0.19693113379074215,3664.5733795485858
0.20466179993919872,3183.4266698274664
0.21269593866686892,2803.175855136641
0.22104546299710207,2563.5841696919697
0.22972275360711503,2459.502526032088
0.23874067718606454,2443.0453784702213
0.2481126055137766,2434.0672563699136
0.25785243528842716,2348.610621170826
0.26797460873256895,2148.420252845228
0.27849413500806414,1871.484676373605
0.28942661247167484,1606.356287852
0.3007882518043098,1429.2324551965119
0.31259590004822796,1359.2241292028868
0.324867065587837,1352.4779900628168
0.3376199441111335,1325.6652346093701
0.35087344559027084,1218.9875908653248
0.36464722232127456,1055.1934486269163
0.37896169806447155,914.3643133788675
0.3938380983288488,848.0086261806422
0.4092984818452433,834.3584061913311
0.4253657732750382,803.7957658116271
0.44206379720285277,718.5897214518438
0.45941731346364734,621.4578090148981
0.47745205385661277,568.8368877065188
0.4961947603002895,552.6774171037697
0.5156732244854959,519.5481454739983
0.5359163290848509,456.7388070344954
0.556954090580013,408.22637052139225
0.5788177037701272,389.1717984393811
0.6015395880274836,364.0939955017714
0.6251534353689703,322.1455715885278
0.6496942604146115,293.53346297458495
0.6751984523072497,277.55595733583175
0.7017038286703824,251.58226957448554
0.7292496916841444,224.35294957698477
0.7578768863625915,202.90212862745253
0.7876278611187046,185.69247059614182
0.8185467307069019,171.21494307191645
0.850679341636415,158.34907311529312
0.8840733401525058,146.2522996130982
0.9187782428863317,134.4438504685134
0.9548455102782278,123.04969375735227
0.9923286228832539,112.26182906732528
1.0312831606721837,102.21303818069777
1.0717668854455022,92.98517511467666
1.1138398264826193,84.61654318529375
1.1575643695533022,77.06318492204343
1.2030053494233226,70.22319103532035
1.2502301459914542,64.00742250117187
1.299308784200415,58.34055139871316
1.3503140378698726,53.15882485658411
1.4033215376054824,48.4101614234393
1.4584098829439835,44.06065709316355
1.5156607589006013,40.082518764853326
1.575159057091621,36.44894982163586
1.6369930016117014,33.13426945695942
1.7012542798525885,30.113994893387325
1.7680381784572046,27.36399548981422
1.8374437246107238,24.86027677677551
1.9095738328780953,22.580840178944232
1.9845354578058014,20.505685833477408
2.0624397525140905,18.6166246750039
2.143402233514853,16.897134564894536
2.227542951999554,15.332420168921384
2.314986671851158,13.909073265700664
2.405863054644063,12.614785586987844
2.5003068519063225,11.438263844947858
2.598458104929248,10.369152635024621
2.7004623524206774,9.397943568430591
2.806470846309834,8.515883781443915
2.916640776023701,7.714972741276413
3.031135501567576,6.987909836532736
3.150124795755327,6.328034903072464
3.2737850959485697,5.729274038070829
3.4022997656780634,5.186096704528603
3.5358593665351745,4.6934658377800424
3.6746619407366854,4.246787411143946
3.8189133047818515,3.8418726591952335
3.968827354637162,3.4749036671616476
4.1246263829013445,3.142400896383483
4.286541408420921,2.8411915281089812
4.4548125188449825,2.5683868569963484
4.629689226627261,2.321358841036934
4.811430839003257,2.097717206166636
5.000306842491082,1.8952885020926873
5.196597302486189,1.7120971685987871
5.400593278542364,1.5463480103581342
5.612597255954967,1.3964097868873675
5.8329235942862,1.2608005940014542
6.06189899349756,1.1381745379565622
6.29986297838068,1.0273096588076975
6.547168402004727,0.9270974208599797
6.804181968927091,0.8365318812373648
7.071284778942991,0.7547000385071091
7.348872892180382,0.6807734753274435
7.637357916378006,0.6140007251155842
7.937167617217536,0.5536989564704765
8.248746552614573,0.4992465376025289
8.572556731909314,0.4500808565004345
8.909078300934132,0.4056932029130323
9.258810253973934,0.36562359933418204
9.622271173675122,0.32945652403728315
9.999999999999984,0.2968218124390336
