k [1/Mpc],P(k) [Mpc^3]
0.0001,373.2207264226956
0.00010392556829367125,388.990580539887
0.00010800523745162529,405.42654590001507
0.00011224505680853065,422.55669423996807
0.00011665131316981963,440.41028671836693
0.00012123054013376525,459.0178624885461
0.00012598952777950273,478.411260177955
0.00013093533273536104,498.6236236422297
0.00013607528864243335,519.6894441725409
0.00014141701702890234,541.6446618514555
0.00014696843861124463,564.5267599368459
0.00015273778503907136,588.3748107536942
0.00015873361110102093,613.2295269196125
0.00016496480740980205,639.1333273588167
0.0001714406135851971,666.1304066637598
0.00017817063195457305,694.2667537076719
0.00018516484179121546,723.5902456396486
0.000192433614111598,754.1507853146632
0.00019998772705352857,786.0004358653994
0.0002078383818579757,819.1934512482761
0.00021599721947827182,853.7862820580388
0.0002244763378413224,889.8376704509575
0.0002332883097864157,927.4088044673275
0.00024244620170823283,966.5634324196509
0.0002519635929317015,1007.3679578709334
0.0002618545958474233,1049.8915326276717
0.0002721338768375308,1094.2061651988531
0.0002828166780230032,1140.386839923699
0.0002939188398646886,1188.51158156369
0.0003054568246515432,1238.6616123213041
0.00031744774091091926,1290.9214850460826
0.00032990936877709396,1345.3792006183887
0.00034286018635565856,1402.1263684007345
0.00035631939712285854,1461.2583084288444
0.000370306958400514,1522.8742153602836
0.00038484361094874304,1587.0772921210323
0.0003999509097203664,1653.9748277776582
0.00041565125582259895,1723.6784454038427
0.00043196792973341727,1796.304277810946
0.0004489251258218605,1871.973144559508
0.0004665479882234472,1950.8106690448221
0.000484862648123908,2032.947228245428
0.000503896262506515,2118.5183266824924
0.0005236770544204653,2207.664945885157
0.0005442343548300266,2300.5337832866167
0.0005655986461065005,2397.2772911807256
0.0005878016072274912,2498.053417875821
0.0006108761607505036,2603.0260787837724
0.0006348565216305217,2712.365537445224
0.0006597782479539537,2826.248615202875
0.0006856782936641739,2944.8589392387357
0.0007125950633568407,3068.387039209819
0.0007405684692262436,3197.0306389715765
0.0007696399902471156,3330.994779222295
0.0007998527336796708,3470.4916903618914
0.000831251498989063,3615.741414885921
0.0008638828442740447,3766.9718158721557
0.000897795155303332,3924.418839437541
0.0009330387172620361,4088.3268859868886
0.0009696657893145519,4258.948644654257
0.001007730682094461,4436.5456735784255
0.0010472898382363582,4621.388295258089
0.0010884019160690055,4813.755664857622
0.0011311278765939214,5013.9363494766485
0.001175531073878369,5222.2276693478225
0.0012216773489967915,5438.936438373656
0.0012696351276599736,5664.3789855520945
0.0013194755216767058,5898.88082059237
0.0013712724343984,6142.77746141763
0.0014251026703029975,6396.4130854270925
0.0014810460488806749,6660.141181828446
0.0015391855229902056,6934.325220305707
0.001599607301861487,7219.338117892617
0.0016624009789266115,7515.5628917308895
0.0017276596646690358,7823.390556212016
0.0017954801246878305,8143.220157482192
0.0018659629231817451,8475.459963599165
0.001939212572065829,8820.525704339349
0.0020153376859417325,9178.841781457584
0.002094451143151469,9550.840128988693
0.002176670253153458,9936.959430496143
0.002262116930469025,10337.645626905267
0.002350917875457286,10753.347270030428
0.002443204762186487,11184.51749918509
0.0025391144336803463,11631.614298310751
0.002638789104828933,12095.09897341202
0.002742376573264949,12575.436336069244
0.0028500304385181063,13073.088123085332
0.0029619103297725525,13588.513964759468
0.0030781821425650787,14122.171924929147
0.003199018284775064,14674.514040444798
0.0033245979322709396,15245.988313604028
0.003455107294592217,15837.031890120252
0.0035907398910610534,16448.069632585997
0.0037316968377327513,17079.515108295458
0.0038781871456107214,17731.761694036617
0.0040304280305680515,18405.18606724811
0.00418864523543527,19100.140042588257
0.004353073364731888,19816.945049834638
0.00452395623253805,20555.89620168561
0.004701547224022131,21317.248576322356
0.004886109671160325,22101.220663626405
0.005077917243205399,22907.9803339479
0.005277254352483535,23737.62611868173
0.005484416576121017,24590.207870910755
0.005699711094326071,25465.742592370843
0.005923457145875801,26364.205909127177
0.006155986501483508,27285.464924942586
0.006397643955748424,28229.171645742066
0.0066487878384172625,29194.86729547081
0.0069097905457156435,30182.069445429755
0.007181039092537346,31190.267102105307
0.007462935686310132,32218.81924071453
0.007755898323389004,33266.8042935255
0.00806036140886134,34333.12869025481
0.008376776400682916,35416.60370945187
0.008705612479099857,36515.95669348006
0.009047357242349292,37629.75589795826
0.00940251742967013,38756.23940263262
0.009771619672696168,39893.40409346049
0.010155211276345676,41039.00974004991
0.010553861030365234,42190.51857599384
0.010968160052731372,43345.17384872718
0.011398722666160517,44499.916882133795
0.011846187309026826,45651.4207319125
0.012311217482038896,46796.069893429565
0.012794502732078732,47929.82063509893
0.013296759674662111,49048.36130485387
0.013818733056536317,50146.98859059355
0.014361196859990781,51220.63197973882
0.014924955450518284,52263.9462523642
0.015510844769528393,53271.12600959898
0.016119733573881575,54236.11396144471
0.01675252472408214,55152.51286740818
0.017410156523040152,56013.5651491188
0.018093604107387147,56812.37456859926
0.01880388089340914,57541.7232792296
0.019542040079740527,58194.30228734978
0.02030917620904734,58762.78353572421
0.021106426791015535,59239.800243836
0.021934973989050584,59618.203372188786
0.02279604637318978,59891.012613567655
0.023690920741826323,60051.59090078106
0.02462092401494623,60094.03950774805
0.02558743520168586,60013.6202299855
0.02659188744512693,59806.41048415437
0.027635770147361564,59468.860463297984
0.028720631177978267,58997.95859414145
0.029848079169243254,58393.160757664475
0.03101978590138095,57660.89319130494
0.03223748878149028,56809.69937205138
0.0335029934197723,55844.08598750711
0.03481817630688963,54763.71167388696
0.03618498759642746,53571.235265287934
0.037605453996581675,52283.959879981376
0.03908168177536263,50924.04180819837
0.04061585988376978,49510.42588679499
0.04221026320156896,48057.2525708408
0.04386725591048496,46578.64832275246
0.0455892949998106,45096.70169743472
0.047378933909631396,43635.167165705025
0.049238826317067365,42215.34790100329
0.05117173007114603,40856.100237446095
0.05318051128214196,39572.95371918973
0.05526814857144601,38378.28795580061
0.057437737488265785,37279.809211336054
0.0596924950997073,36280.95334105516
0.0620357647610427,35379.1551755914
0.06447102107323864,34567.15271549759
0.06700187503509585,33831.179547059975
0.06963207939763882,33151.42491981683
0.0723655342286965,32501.706791881857
0.07520629269592405,31849.361658619793
0.07815856707684081,31157.918658378883
0.08122673500479707,30390.19557982038
0.08441534596012978,29513.14163009792
0.0877291280161335,28503.554732416644
0.09117299484984914,27352.405907916534
0.09475205302806537,26067.45681035604
0.09847160957933764,24675.023602534722
0.1023371798632519,23217.413160837335
0.10635449574860109,21753.70193968299
0.11052951411260206,20351.747648625802
0.1148684256737553,19073.792097162564
0.1193776641714435,17970.60621008127
0.1240639159058831,17072.553237827156
0.12893412965257148,16382.134571358296
0.13399552696593373,15871.472096584941
0.1392556128874462,15483.29927471729
0.14472218707411338,15136.223252501697
0.15040335536380234,14737.50690532092
0.15630754179458153,14204.75235145882
0.16244350109588662,13491.545957631013
0.16882033167003618,12608.569064577658
0.17544748908334581,11629.877195170031
0.1823348000868439,10672.489729865732
0.189492477187382,9851.852658683989
0.19693113379074215,9239.218579934193
0.20466179993919872,8840.119890095513
0.21269593866686892,8587.991768382833
0.22104546299710207,8360.414583157273
0.22972275360711503,8031.8466650693335
0.23874067718606454,7540.087236410944
0.2481126055137766,6923.99063719966
0.25785243528842716,6306.156110010098
0.26797460873256895,5815.693104290118
0.27849413500806414,5505.771119095738
0.28942661247167484,5318.702106378209
0.3007882518043098,5122.55142840628
0.31259590004822796,4813.1069100687
0.324867065587837,4405.086882270518
0.3376199441111335,4016.9680810791847
0.35087344559027084,3748.216215191762
0.36464722232127456,3584.577800406687
0.37896169806447155,3418.4712714736347
0.3938380983288488,3172.893179768455
0.4092984818452433,2894.1903928351026
0.4253657732750382,2680.7605028326834
0.44206379720285277,2542.469857835673
0.45941731346364734,2397.988970819023
0.47745205385661277,2207.376174758339
0.4961947603002895,2028.3928994911405
0.5156732244854959,1903.6928556406099
0.5359163290848509,1787.5688182464423
0.556954090580013,1646.6690219217878
0.5788177037701272,1520.4248945752947
0.6015395880274836,1423.695208313723
0.6251534353689703,1321.281636986466
0.6496942604146115,1217.2365904533317
0.6751984523072497,1133.025245773924
0.7017038286703824,1049.9993086841382
0.7292496916841444,971.6864991106312
0.7578768863625915,901.3653115673128
0.7876278611187046,834.3567377636926
0.8185467307069019,771.1267657310201
0.850679341636415,711.9830260082654
0.8840733401525058,657.0980263988848
0.9187782428863317,606.4954349172056
0.9548455102782278,559.8671179550943
0.9923286228832539,516.8175053501118
1.0312831606721837,477.00030440600625
1.0717668854455022,440.11243693778476
1.1138398264826193,405.888471409549
1.1575643695533022,374.1188904050898
1.2030053494233226,344.65899234318556
1.2502301459914542,317.37345746625556
1.299308784200415,292.1302718896497
1.3503140378698726,268.80135361538316
1.4033215376054824,247.2622863750923
1.4584098829439835,227.38549718815563
1.5156607589006013,209.04647419237273
1.575159057091621,192.12979512559258
1.6369930016117014,176.52855322753766
1.7012542798525885,162.14372926247916
1.7680381784572046,148.88414977096798
1.8374437246107238,136.6667104866342
1.9095738328780953,125.41420046537199
1.9845354578058014,115.05463285215498
2.0624397525140905,105.52094225004318
2.143402233514853,96.75068195908162
2.227542951999554,88.68553491031615
2.314986671851158,81.27115925310318
2.405863054644063,74.45716908257846
2.5003068519063225,68.19687540857443
2.598458104929248,62.44703406675598
2.7004623524206774,57.167615915590964
2.806470846309834,52.32160352823032
2.916640776023701,47.87475325787256
3.031135501567576,43.79539311948563
3.150124795755327,40.054242739542076
3.2737850959485697,36.62424438369092
3.4022997656780634,33.4803953743863
3.5358593665351745,30.599601825389303
3.6746619407366854,27.960555117156527
3.8189133047818515,25.543602352030522
3.968827354637162,23.33062458192778
4.1246263829013445,21.304922774532418
4.286541408420921,19.451109468211726
4.4548125188449825,17.755013696416256
4.629689226627261,16.203590920408733
4.811430839003257,14.784837623205394
5.000306842491082,13.487711937240153
5.196597302486189,12.302056260720162
5.400593278542364,11.218527585604955
5.612597255954967,10.228541911174354
5.8329235942862,9.324215629785938
6.06189899349756,8.498310432285836
6.29986297838068,7.7441834014078115
6.547168402004727,7.0557484452025845
6.804181968927091,6.427424718189705
7.071284778942991,5.854089987909932
7.348872892180382,5.331044524193046
7.637357916378006,4.853977721197534
7.937167617217536,4.418925828376766
8.248746552614573,4.022230631466032
8.572556731909314,3.6605462241244586
8.909078300934132,3.3308174885474164
9.258810253973934,3.030254726341262
9.622271173675122,2.756313764885352
9.999999999999984,2.5067215702766883
