k [1/Mpc],P(k) [Mpc^3]
0.0001,219.6542109050426
0.00010392556829367125,229.59628408423947
0.00010800523745162529,239.9881126611636
0.00011224505680853065,250.85000876896
0.00011665131316981963,262.2032015947428
0.00012123054013376525,274.06988266793155
0.00012598952777950273,286.4732439762447
0.00013093533273536104,299.43750780086594
0.00013607528864243335,312.98797269351246
0.00014141701702890234,327.15107370753276
0.00014696843861124463,341.95443721362227
0.00015273778503907136,357.4269312022797
0.00015873361110102093,373.5987151359575
0.00016496480740980205,390.50129526387286
0.0001714406135851971,408.1675883052509
0.00017817063195457305,426.631976162561
0.00018516484179121546,445.93037487648377
0.000192433614111598,466.1002900673056
0.00019998772705352857,487.18086609706006
0.0002078383818579757,509.2129868871346
0.00021599721947827182,532.2393858651684
0.0002244763378413224,556.3047224120663
0.0002332883097864157,581.4556221591088
0.00024244620170823283,607.7406966628854
0.0002519635929317015,635.2106882507867
0.0002618545958474233,663.9185916191088
0.0002721338768375308,693.9197544874947
0.0002828166780230032,725.271955054656
0.0002939188398646886,758.0354435734274
0.0003054568246515432,792.2730862395019
0.00031744774091091926,828.0504930581885
0.00032990936877709396,865.43612855275
0.00034286018635565856,904.5014323190167
0.00035631939712285854,945.3208528661398
0.000370306958400514,987.9720038432
0.00038484361094874304,1032.5358368542124
0.0003999509097203664,1079.0967619179194
0.00041565125582259895,1127.7428031893412
0.00043196792973341727,1178.5656436720483
0.0004489251258218605,1231.6607706213013
0.0004665479882234472,1287.127691700043
0.000484862648123908,1345.070015538155
0.000503896262506515,1405.5956729223508
0.0005236770544204653,1468.817023853627
0.0005442343548300266,1534.8509823138706
0.0005655986461065005,1603.8192653122153
0.0005878016072274912,1675.8483977203628
0.0006108761607505036,1751.0699786115051
0.0006348565216305217,1829.6209139573741
0.0006597782479539537,1911.643558408349
0.0006856782936641739,1997.285948185444
0.0007125950633568407,2086.7016187266518
0.0007405684692262436,2180.04985522447
0.0007696399902471156,2277.4960822155826
0.0007998527336796708,2379.2118889885032
0.000831251498989063,2485.3753805739348
0.0008638828442740447,2596.1711830026206
0.000897795155303332,2711.7905780790593
0.0009330387172620361,2832.4317955112
0.0009696657893145519,2958.2994675970426
0.001007730682094461,3089.605246272296
0.0010472898382363582,3226.567961729408
0.0010884019160690055,3369.4135191261853
0.0011311278765939214,3518.3754000315475
0.001175531073878369,3673.694050782224
0.0012216773489967915,3835.6172677500144
0.0012696351276599736,4004.4002250351255
0.0013194755216767058,4180.3044960614825
0.0013712724343984,4363.599176823715
0.0014251026703029975,4554.560635865086
0.0014810460488806749,4753.472529346396
0.0015391855229902056,4960.625747000448
0.001599607301861487,5176.316423641651
0.0016624009789266115,5400.847244404482
0.0017276596646690358,5634.527115519674
0.0017954801246878305,5877.670543999337
0.0018659629231817451,6130.598155877532
0.001939212572065829,6393.634576687736
0.0020153376859417325,6667.10901236644
0.002094451143151469,6951.354536453668
0.002176670253153458,7246.705901406127
0.002262116930469025,7553.501030024723
0.002350917875457286,7872.078847190982
0.002443204762186487,8202.778925199204
0.0025391144336803463,8545.940994670264
0.002638789104828933,8901.901031714278
0.002742376573264949,9270.992916564486
0.0028500304385181063,9653.54507156612
0.0029619103297725525,10049.878420760278
0.0030781821425650787,10460.3073930391
0.003199018284775064,10885.13395302199
0.0033245979322709396,11324.648928502416
0.003455107294592217,11779.129067840782
0.0035907398910610534,12248.832308095154
0.0037316968377327513,12733.999616520376
0.0038781871456107214,13234.844893813613
0.0040304280305680515,13751.555415903924
0.00418864523543527,14284.291434649012
0.004353073364731888,14833.177764085975
0.00452395623253805,15398.306345077795
0.004701547224022131,15979.715399876326
0.004886109671160325,16577.38517792377
0.005077917243205399,17191.255265197342
0.005277254352483535,17821.239526067577
0.005484416576121017,18467.20966193604
0.005699711094326071,19128.91505876075
0.005923457145875801,19805.93706861894
0.006155986501483508,20497.77399035771
0.006397643955748424,21203.881910646774
0.0066487878384172625,21923.654401489173
0.0069097905457156435,22656.392193576103
0.007181039092537346,23401.286677768327
0.007462935686310132,24157.42657053901
0.007755898323389004,24923.712407071765
0.00806036140886134,25698.865675036413
0.008376776400682916,26481.466042165157
0.008705612479099857,27269.89733312435
0.009047357242349292,28062.390765733413
0.00940251742967013,28856.98022988163
0.009771619672696168,29651.486696648968
0.010155211276345676,30443.56053884931
0.010553861030365234,31230.589879894287
0.010968160052731372,32009.765360174206
0.011398722666160517,32778.045201543566
0.011846187309026826,33532.09082011349
0.012311217482038896,34268.38430351707
0.012794502732078732,34983.1170020849
0.013296759674662111,35672.25756193006
0.013818733056536317,36331.59018507611
0.014361196859990781,36956.60852184428
0.014924955450518284,37542.68909535755
0.015510844769528393,38085.01276154087
0.016119733573881575,38578.60885803066
0.01675252472408214,39018.498109309454
0.017410156523040152,39399.613366863356
0.018093604107387147,39716.97186292872
0.01880388089340914,39965.73263378727
0.019542040079740527,40141.23814025333
0.02030917620904734,40239.171385805545
0.021106426791015535,40255.7321619676
0.021934973989050584,40187.64915301757
0.02279604637318978,40032.34239800736
0.023690920741826323,39788.166144402865
0.02462092401494623,39454.23400232152
0.02558743520168586,39031.316864988985
0.02659188744512693,38521.561281250266
0.027635770147361564,37927.93232229994
0.028720631177978267,37254.64265438921
0.029848079169243254,36506.67306491723
0.03101978590138095,35693.240215113954
0.03223748878149028,34827.83440027958
0.0335029934197723,33922.92020412794
0.03481817630688963,32986.377100855745
0.03618498759642746,32024.368198208267
0.037605453996581675,31048.122542782843
0.03908168177536263,30077.177372402377
0.04061585988376978,29129.675017242356
0.04221026320156896,28220.469589435157
0.04386725591048496,27362.00141731991
0.0455892949998106,26564.181223272983
0.047378933909631396,25834.76411333532
0.049238826317067365,25177.54751122824
0.05117173007114603,24592.52973184086
0.05318051128214196,24075.997819500266
0.05526814857144601,23620.83619812462
0.057437737488265785,23215.021288395023
0.0596924950997073,22842.711213858613
0.0620357647610427,22482.667876773994
0.06447102107323864,22109.517863964953
0.06700187503509585,21694.623316870136
0.06963207939763882,21208.71539080511
0.0723655342286965,20627.069147533985
0.07520629269592405,19932.539969069865
0.07815856707684081,19120.28178202206
0.08122673500479707,18205.140795096253
0.08441534596012978,17210.991488793377
0.0877291280161335,16169.906603048563
0.09117299484984914,15126.470497572362
0.09475205302806537,14131.28362587437
0.09847160957933764,13234.095367878603
0.1023371798632519,12475.686266207593
0.10635449574860109,11878.881514459643
0.11052951411260206,11442.278329801633
0.1148684256737553,11138.7660676176
0.1193776641714435,10918.04906840439
0.1240639159058831,10712.94785668774
0.12893412965257148,10451.414006581545
0.13399552696593373,10074.553711901954
0.1392556128874462,9555.472150929329
0.14472218707411338,8911.14556504706
0.15040335536380234,8202.758919665515
0.15630754179458153,7519.7163868309
0.16244350109588662,6947.01841396389
0.16882033167003618,6532.696003994566
0.17544748908334581,6274.484472834608
0.1823348000868439,6118.774002920387
0.189492477187382,5971.182657207254
0.19693113379074215,5737.293960803856
0.20466179993919872,5378.118759876475
0.21269593866686892,4932.265391362984
0.22104546299710207,4494.1117877809875
0.22972275360711503,4155.079156916042
0.23874067718606454,3946.1151303557926
0.2481126055137766,3819.658165719841
0.25785243528842716,3679.1218194442936
0.26797460873256895,3455.211823541698
0.27849413500806414,3165.1037345086543
0.28942661247167484,2893.856278153091
0.3007882518043098,2707.184693681174
0.31259590004822796,2590.3401808056715
0.324867065587837,2468.513926623969
0.3376199441111335,2293.1477228763683
0.35087344559027084,2099.4086447611344
0.36464722232127456,1949.8228023664342
0.37896169806447155,1847.9859702205024
0.3938380983288488,1742.0034186695184
0.4092984818452433,1608.237499583289
0.4253657732750382,1483.6366399012907
0.44206379720285277,1392.0106031584676
0.45941731346364734,1306.2795329500864
0.47745205385661277,1207.4785867864723
0.4961947603002895,1118.2299973637676
0.5156732244854959,1046.1992093872605
0.5359163290848509,972.4776343848389
0.556954090580013,899.1190068181156
0.5788177037701272,837.0092786558184
0.6015395880274836,777.4778828134768
0.6251534353689703,719.5304844190662
0.6496942604146115,667.805386832623
0.6751984523072497,619.2432003657941
0.7017038286703824,573.778383748857
0.7292496916841444,531.3262275232403
0.7578768863625915,491.7513905122183
0.7876278611187046,454.91509292121924
0.8185467307069019,420.67687369296993
0.850679341636415,388.8956534760774
0.8840733401525058,359.4170240320174
0.9187782428863317,332.076877974386
0.9548455102782278,306.7221143870592
0.9923286228832539,283.21093619431815
1.0312831606721837,261.41195675705154
1.0717668854455022,241.20384915409042
1.1138398264826193,222.47811934842605
1.1575643695533022,205.135150537127
1.2030053494233226,189.08106793041563
1.2502301459914542,174.2274836757826
1.299308784200415,160.49126895000725
1.3503140378698726,147.79408488913631
1.4033215376054824,136.0616341670392
1.4584098829439835,125.22434291607736
1.5156607589006013,115.2173148828966
1.575159057091621,105.98004718766583
1.6369930016117014,97.45616155032324
1.7012542798525885,89.5932000338895
1.7680381784572046,82.34239190236889
1.8374437246107238,75.65833129822067
1.9095738328780953,69.49876004996585
1.9845354578058014,63.82437041888235
2.0624397525140905,58.59861528584666
2.143402233514853,53.787496791075895
2.227542951999554,49.35942396810146
2.314986671851158,45.28508646057447
2.405863054644063,41.53730233178342
2.5003068519063225,38.090874255823316
2.598458104929248,34.92245445800709
2.7004623524206774,32.0104179957416
2.806470846309834,29.334743722376576
2.916640776023701,26.876902773782813
3.031135501567576,24.619754149748573
3.150124795755327,22.547446942175995
3.2737850959485697,20.64532502116282
3.4022997656780634,18.89983900711983
3.5358593665351745,17.298475551574924
3.6746619407366854,15.82968321231751
3.8189133047818515,14.482802123566689
3.968827354637162,13.247998454775813
4.1246263829013445,12.116203097019605
4.286541408420921,11.079055009689533
4.4548125188449825,10.12884873218017
4.629689226627261,9.258485230901586
4.811430839003257,8.461426206089266
5.000306842491082,7.731650922819887
5.196597302486189,7.0636129670326016
5.400593278542364,6.452208158815658
5.612597255954967,5.892742834966069
5.8329235942862,5.380901928273401
6.06189899349756,4.9127194203924685
6.29986297838068,4.484553278503657
6.547168402004727,4.093063219073234
6.804181968927091,3.73518028268
7.071284778942991,3.40808446048575
7.348872892180382,3.10918531881955
7.637357916378006,2.8361037553018074
7.937167617217536,2.5866454352845123
8.248746552614573,2.3587871506767137
8.572556731909314,2.1506775610279427
8.909078300934132,1.9606234297922016
9.258810253973934,1.7870760754444759
9.622271173675122,1.6286222345956978
9.999999999999984,1.4839989629411223
