k [1/Mpc],P(k) [Mpc^3]
0.0001,1091.2313173977598
0.00010392556829367125,1127.5315417835582
0.00010800523745162529,1165.038841368832
0.00011224505680853065,1203.793274227842
0.00011665131316981963,1243.8362340551016
0.00012123054013376525,1285.2105287702066
0.00012598952777950273,1327.9603962649255
0.00013093533273536104,1372.1314934258148
0.00013607528864243335,1417.770927414582
0.00014141701702890234,1464.9273636189564
0.00014696843861124463,1513.6511297680995
0.00015273778503907136,1563.9942405748238
0.00015873361110102093,1616.0103897662261
0.00016496480740980205,1669.7549630323865
0.0001714406135851971,1725.2851621400175
0.00017817063195457305,1782.660114691269
0.00018516484179121546,1841.9409238620174
0.000192433614111598,1903.1906970829798
0.00019998772705352857,1966.4745900394157
0.0002078383818579757,2031.8598917563634
0.00021599721947827182,2099.4160269567883
0.0002244763378413224,2169.214621028932
0.0002332883097864157,2241.3296396181395
0.00024244620170823283,2315.837490662691
0.0002519635929317015,2392.8170842942254
0.0002618545958474233,2472.3498762263357
0.0002721338768375308,2554.519932666553
0.0002828166780230032,2639.4140399081266
0.0002939188398646886,2727.1217258116244
0.0003054568246515432,2817.7353786732065
0.00031744774091091926,2911.3503227547044
0.00032990936877709396,3008.064843002331
0.00034286018635565856,3107.98035804829
0.00035631939712285854,3211.2014684456926
0.000370306958400514,3317.836064937605
0.00038484361094874304,3427.9954680893015
0.0003999509097203664,3541.794516582868
0.00041565125582259895,3659.351682587319
0.00043196792973341727,3780.7889501158124
0.0004489251258218605,3906.231857498486
0.0004665479882234472,4035.8098297258603
0.000484862648123908,4169.656236084706
0.000503896262506515,4307.908548138468
0.0005236770544204653,4450.7084374813485
0.0005442343548300266,4598.201852649598
0.0005655986461065005,4750.539145248178
0.0005878016072274912,4907.874569389258
0.0006108761607505036,5070.366602212373
0.0006348565216305217,5238.1785385605135
0.0006597782479539537,5411.47884797072
0.0006856782936641739,5590.441032868974
0.0007125950633568407,5775.242950432226
0.0007405684692262436,5966.066911214571
0.0007696399902471156,6163.100416015
0.0007998527336796708,6366.536295219951
0.000831251498989063,6576.572828643108
0.0008638828442740447,6793.413252729365
0.000897795155303332,7017.265549026794
0.0009330387172620361,7248.34320073734
0.0009696657893145519,7486.864822250792
0.001007730682094461,7733.054524494963
0.0010472898382363582,7987.141972712869
0.0010884019160690055,8249.36209937965
0.0011311278765939214,8519.9555636221
0.001175531073878369,8799.167300725187
0.0012216773489967915,9087.246871906054
0.0012696351276599736,9384.449380638089
0.0013194755216767058,9691.034977332465
0.0013712724343984,10007.269341103694
0.0014251026703029975,10333.422060525598
0.0014810460488806749,10669.766222962377
0.0015391855229902056,11016.579733234565
0.001599607301861487,11374.143529951974
0.0016624009789266115,11742.742658779647
0.0017276596646690358,12122.665546855767
0.0017954801246878305,12514.202789377221
0.0018659629231817451,12917.648508163844
0.001939212572065829,13333.297537499611
0.0020153376859417325,13761.446225005899
0.002094451143151469,14202.392366884498
0.002176670253153458,14656.432457910734
0.002262116930469025,15123.8638324985
0.002350917875457286,15604.98101257926
0.002443204762186487,16100.075348911867
0.0025391144336803463,16609.436658612136
0.002638789104828933,17133.34962783831
0.002742376573264949,17672.09561390236
0.0028500304385181063,18225.948631154744
0.0029619103297725525,18795.17265026427
0.0030781821425650787,19380.025012747643
0.003199018284775064,19980.751261925765
0.0033245979322709396,20597.586675835875
0.003455107294592217,21230.75309646464
0.0035907398910610534,21880.452731935628
0.0037316968377327513,22546.87338844721
0.0038781871456107214,23230.18105006891
0.0040304280305680515,23930.520224006865
0.00418864523543527,24648.013681598357
0.004353073364731888,25382.75237044844
0.00452395623253805,26134.801652358376
0.004701547224022131,26904.190236148566
0.004886109671160325,27690.906543516292
0.005077917243205399,28494.904996123125
0.005277254352483535,29316.092059559975
0.005484416576121017,30154.332519741256
0.005699711094326071,31009.43404315099
0.005923457145875801,31881.131836392582
0.006155986501483508,32769.112109260735
0.006397643955748424,33673.02655976987
0.0066487878384172625,34592.48453596461
0.0069097905457156435,35526.98732677916
0.007181039092537346,36475.833369186825
0.007462935686310132,37438.226461023405
0.007755898323389004,38413.3622534555
0.00806036140886134,39400.42095738381
0.008376776400682916,40398.470838742775
0.008705612479099857,41406.3300739957
0.009047357242349292,42422.67850336821
0.00940251742967013,43446.14365146119
0.009771619672696168,44475.31729884804
0.010155211276345676,45508.67798188351
0.010553861030365234,46544.441672275105
0.010968160052731372,47580.64562641093
0.011398722666160517,48615.171773752685
0.011846187309026826,49645.7054692643
0.012311217482038896,50669.79831887247
0.012794502732078732,51684.83036257549
0.013296759674662111,52688.02964309708
0.013818733056536317,53676.46756266493
0.014361196859990781,54646.9738605507
0.014924955450518284,55596.238992528255
0.015510844769528393,56520.769807676676
0.016119733573881575,57416.89717113896
0.01675252472408214,58280.84415761921
0.017410156523040152,59108.66646394284
0.018093604107387147,59896.331751082
0.01880388089340914,60639.73125213238
0.019542040079740527,61334.68069859704
0.02030917620904734,61976.99957938672
0.021106426791015535,62562.55799499112
0.021934973989050584,63087.29839823496
0.02279604637318978,63547.30158440462
0.023690920741826323,63938.878835112766
0.02462092401494623,64258.54239727648
0.02558743520168586,64503.36278011308
0.02659188744512693,64670.92120442462
0.027635770147361564,64759.10592225019
0.028720631177978267,64766.24476334126
0.029848079169243254,64691.056457213155
0.03101978590138095,64534.25319256649
0.03223748878149028,64298.828176650284
0.0335029934197723,63987.83573813561
0.03481817630688963,63602.63632492155
0.03618498759642746,63144.130453879145
0.037605453996581675,62615.587516268984
0.03908168177536263,62024.26838228995
0.04061585988376978,61377.75440522555
0.04221026320156896,60682.76488419809
0.04386725591048496,59945.45254884153
0.0455892949998106,59172.55713109181
0.047378933909631396,58372.66677858559
0.049238826317067365,57554.236843136554
0.05117173007114603,56723.33990270731
0.05318051128214196,55884.323923123266
0.05526814857144601,55039.04616712175
0.057437737488265785,54186.175704480615
0.0596924950997073,53322.30846179636
0.0620357647610427,52440.94487867805
0.06447102107323864,51534.28697994079
0.06700187503509585,50593.0686885165
0.06963207939763882,49607.37831003535
0.0723655342286965,48567.112933752695
0.07520629269592405,47462.535864721955
0.07815856707684081,46285.533304879566
0.08122673500479707,45030.85023072303
0.08441534596012978,43698.766338230314
0.0877291280161335,42296.85979855124
0.09117299484984914,40841.045013704126
0.09475205302806537,39355.15526484755
0.09847160957933764,37868.253117005406
0.1023371798632519,36409.55561632084
0.10635449574860109,35005.6352372266
0.11052951411260206,33676.44093398401
0.1148684256737553,32432.830603716935
0.1193776641714435,31274.091397850287
0.1240639159058831,30185.346954403187
0.12893412965257148,29137.552302210315
0.13399552696593373,28096.220217653146
0.1392556128874462,27030.741229512783
0.14472218707411338,25912.27365285196
0.15040335536380234,24734.423694042707
0.15630754179458153,23516.131547604076
0.16244350109588662,22295.391268316205
0.16882033167003618,21119.14855378866
0.17544748908334581,20028.19956775308
0.1823348000868439,19043.676112981033
0.189492477187382,18157.95953707527
0.19693113379074215,17333.176855117494
0.20466179993919872,16516.661470877407
0.21269593866686892,15670.684546336322
0.22104546299710207,14791.415144832717
0.22972275360711503,13908.015417514027
0.23874067718606454,13069.230426197291
0.2481126055137766,12312.890267940806
0.25785243528842716,11638.473026490758
0.26797460873256895,11012.265744830731
0.27849413500806414,10392.041802516811
0.28942661247167484,9758.846325267985
0.3007882518043098,9131.485431333298
0.31259590004822796,8545.663882724559
0.324867065587837,8018.725695019859
0.3376199441111335,7534.233923930603
0.35087344559027084,7064.304283442685
0.36464722232127456,6598.852137876092
0.37896169806447155,6154.109440837588
0.3938380983288488,5746.659594221109
0.4092984818452433,5371.640510056952
0.4253657732750382,5011.7910408401585
0.44206379720285277,4663.9575089684495
0.45941731346364734,4339.526892953152
0.47745205385661277,4041.3159126219152
0.4961947603002895,3758.9588341071944
0.5156732244854959,3489.8636722547685
0.5359163290848509,3239.8959556058444
0.556954090580013,3007.399593831566
0.5788177037701272,2788.198352144784
0.6015395880274836,2583.2364824591864
0.6251534353689703,2392.444883199406
0.6496942604146115,2214.154154162413
0.6751984523072497,2047.6402452947007
0.7017038286703824,1892.9617509039645
0.7292496916841444,1748.5848429730281
0.7578768863625915,1614.4066555965162
0.7876278611187046,1489.688609886466
0.8185467307069019,1373.8569316314579
0.850679341636415,1266.336581324433
0.8840733401525058,1166.5849455991663
0.9187782428863317,1074.1123427937318
0.9548455102782278,988.4523233477258
0.9923286228832539,909.1613844696695
1.0312831606721837,835.8185837106181
1.0717668854455022,768.0233650584914
1.1138398264826193,705.3936322421075
1.1575643695533022,647.56942626138
1.2030053494233226,594.2125806008428
1.2502301459914542,545.005718853711
1.299308784200415,499.65127921226866
1.3503140378698726,457.8708666684633
1.4033215376054824,419.40421543407126
1.4584098829439835,384.00782486347464
1.5156607589006013,351.4540802321802
1.575159057091621,321.53042043344124
1.6369930016117014,294.0384973794421
1.7012542798525885,268.79313694696765
1.7680381784572046,245.6218140861909
1.8374437246107238,224.36411186058362
1.9095738328780953,204.87098858576815
1.9845354578058014,187.00407544970443
2.0624397525140905,170.6349986667412
2.143402233514853,155.64471846868508
2.227542951999554,141.9229619969941
2.314986671851158,129.36765882969564
2.405863054644063,117.88439410096206
2.5003068519063225,107.38589154198156
2.598458104929248,97.7914982959109
2.7004623524206774,89.02670781989472
2.806470846309834,81.02279315558619
2.916640776023701,73.7164029439393
3.031135501567576,67.0491737398362
3.150124795755327,60.96736636080184
3.2737850959485697,55.42151175375811
3.4022997656780634,50.36609912817843
3.5358593665351745,45.75929852783437
3.6746619407366854,41.56268299457903
3.8189133047818515,37.740968880020056
3.968827354637162,34.26177352298241
4.1246263829013445,31.09538541413226
4.286541408420921,28.21456077033247
4.4548125188449825,25.59433352211281
4.629689226627261,23.211834934967577
4.811430839003257,21.046126444677625
5.000306842491082,19.0780405383329
5.196597302486189,17.290026515178596
5.400593278542364,15.666036927922326
5.612597255954967,14.191409164811363
5.8329235942862,12.852750627873943
6.06189899349756,11.63783302641871
6.29986297838068,10.535504337819745
6.547168402004727,9.53560369439546
6.804181968927091,8.628857475353081
7.071284778942991,7.8068030416513405
7.348872892180382,7.061721062824831
7.637357916378006,6.386571594594158
7.937167617217536,5.774904470875632
8.248746552614573,5.220821498855195
8.572556731909314,4.7189677496657465
8.909078300934132,4.2644831334099855
9.258810253973934,3.852956654676252
9.622271173675122,3.480395520462398
9.999999999999984,3.143258616195633
