k [1/Mpc],P(k) [Mpc^3]
0.0001,243.48663855610494
0.00010392556829367125,251.58630744099196
0.00010800523745162529,259.9553086192993
0.00011224505680853065,268.6025871158411
0.00011665131316981963,277.5373845561409
0.00012123054013376525,286.7692460677939
0.00012598952777950273,296.30803090017355
0.00013093533273536104,306.16392461495985
0.00013607528864243335,316.34745022868805
0.00014141701702890234,326.8694787850725
0.00014696843861124463,337.74123477358404
0.00015273778503907136,348.9743062118171
0.00015873361110102093,360.5806631094693
0.00016496480740980205,372.57267327896363
0.0001714406135851971,384.96311360172103
0.00017817063195457305,397.76518607798766
0.00018516484179121546,410.9925358424335
0.000192433614111598,424.6592563930146
0.00019998772705352857,438.779866197834
0.0002078383818579757,453.3693317641973
0.00021599721947827182,468.44311848174414
0.0002244763378413224,484.01723818961653
0.0002332883097864157,500.1082367005432
0.00024244620170823283,516.7331791406355
0.0002519635929317015,533.9096611990998
0.0002618545958474233,551.6558483155616
0.0002721338768375308,569.9904868176047
0.0002828166780230032,588.932927515735
0.0002939188398646886,608.503147062331
0.0003054568246515432,628.7217665623806
0.00031744774091091926,649.6100707622442
0.00032990936877709396,671.1899958223227
0.00034286018635565856,693.4841585010766
0.00035631939712285854,716.5159012278197
0.000370306958400514,740.3093217461342
0.00038484361094874304,764.8892878720159
0.0003999509097203664,790.2814055152077
0.00041565125582259895,816.512029785242
0.00043196792973341727,843.6083436508883
0.0004489251258218605,871.5984035782215
0.0004665479882234472,900.5111537568994
0.000484862648123908,930.3763935153689
0.000503896262506515,961.2247520881806
0.0005236770544204653,993.0877916657041
0.0005442343548300266,1025.9980617666192
0.0005655986461065005,1059.98912226135
0.0005878016072274912,1095.0955012051152
0.0006108761607505036,1131.352581418185
0.0006348565216305217,1168.7967605358406
0.0006597782479539537,1207.4655580545882
0.0006856782936641739,1247.397653428638
0.0007125950633568407,1288.6328328136576
0.0007405684692262436,1331.2118114326706
0.0007696399902471156,1375.1763853684547
0.0007998527336796708,1420.569546327964
0.000831251498989063,1467.4355192784578
0.0008638828442740447,1515.8197551597498
0.000897795155303332,1565.76873351445
0.0009330387172620361,1617.3300490934553
0.0009696657893145519,1670.5525175785583
0.001007730682094461,1725.4860810867012
0.0010472898382363582,1782.1819427695586
0.0010884019160690055,1840.692548035986
0.0011311278765939214,1901.071593139111
0.001175531073878369,1963.3740126641262
0.0012216773489967915,2027.6555233760214
0.0012696351276599736,2093.972932195036
0.0013194755216767058,2162.384223568245
0.0013712724343984,2232.9484762124325
0.0014251026703029975,2305.7259620264917
0.0014810460488806749,2380.777676829775
0.0015391855229902056,2458.1654771690414
0.001599607301861487,2537.9522110039334
0.0016624009789266115,2620.20138137235
0.0017276596646690358,2704.9774210047813
0.0017954801246878305,2792.345180167171
0.0018659629231817451,2882.369803672004
0.001939212572065829,2975.1171114520357
0.0020153376859417325,3070.653128917273
0.002094451143151469,3169.0443140800367
0.002176670253153458,3270.3570450603725
0.002262116930469025,3374.6570103366225
0.002350917875457286,3482.0099092178643
0.002443204762186487,3592.480722257582
0.0025391144336803463,3706.1338337689076
0.002638789104828933,3823.032948449872
0.002742376573264949,3943.240122415214
0.0028500304385181063,4066.8164109461163
0.0029619103297725525,4193.820739851839
0.0030781821425650787,4324.3095781394395
0.003199018284775064,4458.337521875891
0.0033245979322709396,4595.955831328054
0.003455107294592217,4737.21306245447
0.0035907398910610534,4882.154143212988
0.0037316968377327513,5030.819155764734
0.0038781871456107214,5183.244426872208
0.0040304280305680515,5339.460091274708
0.00418864523543527,5499.490545239344
0.004353073364731888,5663.354501051501
0.00452395623253805,5831.062699950104
0.004701547224022131,6002.61938965281
0.004886109671160325,6178.019225982435
0.005077917243205399,6357.246530839138
0.005277254352483535,6540.276813009356
0.005484416576121017,6727.072628420078
0.005699711094326071,6917.585647144859
0.005923457145875801,7111.75307704258
0.006155986501483508,7309.493671504633
0.006397643955748424,7510.713193050479
0.0066487878384172625,7715.303719472436
0.0069097905457156435,7923.143436796188
0.007181039092537346,8134.087052712358
0.007462935686310132,8347.94628207449
0.007755898323389004,8564.509216873836
0.00806036140886134,8783.543807466976
0.008376776400682916,9004.797373983316
0.008705612479099857,9227.995324546355
0.009047357242349292,9452.835324936872
0.00940251742967013,9678.990681140049
0.009771619672696168,9906.093685502352
0.010155211276345676,10133.72214050142
0.010553861030365234,10361.422126704101
0.010968160052731372,10588.691166504514
0.011398722666160517,10814.986241647419
0.011846187309026826,11039.72480513716
0.012311217482038896,11262.265735544059
0.012794502732078732,11481.931548278459
0.013296759674662111,11697.98865426983
0.013818733056536317,11909.64882101002
0.014361196859990781,12116.0846452879
0.014924955450518284,12316.392806349182
0.015510844769528393,12509.628230031629
0.016119733573881575,12694.79645358371
0.01675252472408214,12870.84145744394
0.017410156523040152,13036.682180762955
0.018093604107387147,13191.17474612446
0.01880388089340914,13333.141819305927
0.019542040079740527,13461.39085492691
0.02030917620904734,13574.692580870555
0.021106426791015535,13671.82842422475
0.021934973989050584,13751.569619636422
0.02279604637318978,13812.692546720122
0.023690920741826323,13854.036009254352
0.02462092401494623,13874.543069888728
0.02558743520168586,13873.25141853294
0.02659188744512693,13849.218176389035
0.027635770147361564,13801.49291438232
0.028720631177978267,13729.327148621594
0.029848079169243254,13632.827027763129
0.03101978590138095,13512.603871100484
0.03223748878149028,13369.021548123588
0.0335029934197723,13201.613358732075
0.03481817630688963,13009.995194549127
0.03618498759642746,12794.936208301053
0.037605453996581675,12558.181463290424
0.03908168177536263,12301.787442323295
0.04061585988376978,12028.807941984584
0.04221026320156896,11742.482938722345
0.04386725591048496,11445.552920921233
0.0455892949998106,11140.10825676513
0.047378933909631396,10828.38329757942
0.049238826317067365,10514.06649573315
0.05117173007114603,10201.076435493196
0.05318051128214196,9892.952220474015
0.05526814857144601,9592.844440588435
0.057437737488265785,9303.386960092852
0.0596924950997073,9026.715264029914
0.0620357647610427,8764.092871016848
0.06447102107323864,8516.051660263005
0.06700187503509585,8282.177909902273
0.06963207939763882,8061.296978482607
0.0723655342286965,7851.18309406352
0.07520629269592405,7648.740832780511
0.07815856707684081,7450.058597459427
0.08122673500479707,7250.39390029372
0.08441534596012978,7044.633664119698
0.0877291280161335,6827.729276095516
0.09117299484984914,6595.369839715091
0.09475205302806537,6344.842084170025
0.09847160957933764,6075.665523707551
0.1023371798632519,5789.832388876746
0.10635449574860109,5491.95253582901
0.11052951411260206,5188.910664244425
0.1148684256737553,4889.265933535727
0.1193776641714435,4602.423111052122
0.1240639159058831,4337.479001711128
0.12893412965257148,4101.673207243156
0.13399552696593373,3899.0182078392177
0.1392556128874462,3729.771191243276
0.14472218707411338,3587.4556218460266
0.15040335536380234,3462.145059389133
0.15630754179458153,3341.248787827976
0.16244350109588662,3211.9254750446144
0.16882033167003618,3064.248174842207
0.17544748908334581,2894.324977196382
0.1823348000868439,2706.114228733907
0.189492477187382,2511.1164460455016
0.19693113379074215,2325.2538441010347
0.20466179993919872,2163.308430304875
0.21269593866686892,2033.2223468103389
0.22104546299710207,1933.3179256360388
0.22972275360711503,1852.638039865122
0.23874067718606454,1774.0617623093501
0.2481126055137766,1681.6990981114914
0.25785243528842716,1569.8384405108593
0.26797460873256895,1446.472085801057
0.27849413500806414,1328.9150436999255
0.28942661247167484,1233.1382511513025
0.3007882518043098,1163.0670317697236
0.31259590004822796,1107.8636394850869
0.324867065587837,1049.4657794605191
0.3376199441111335,977.1132545911231
0.35087344559027084,896.3896457534573
0.36464722232127456,823.3605314773224
0.37896169806447155,768.3558121772179
0.3938380983288488,726.0397230666026
0.4092984818452433,681.9915273912537
0.4253657732750382,629.3941403643961
0.44206379720285277,576.5613827980744
0.45941731346364734,534.5042032871584
0.47745205385661277,501.58015063762554
0.4961947603002895,467.15571386459607
0.5156732244854959,428.886725715537
0.5359163290848509,394.9200764638228
0.556954090580013,367.9835835346538
0.5788177037701272,341.5806834096745
0.6015395880274836,313.6494818606936
0.6251534353689703,289.2561404724214
0.6496942604146115,268.48125010323247
0.6751984523072497,247.27176019412786
0.7017038286703824,227.30538341110042
0.7292496916841444,210.15077259750927
0.7578768863625915,193.4874565217969
0.7876278611187046,177.79936653499917
0.8185467307069019,163.4653961276035
0.850679341636415,150.32324260037683
0.8840733401525058,138.24119038009687
0.9187782428863317,127.10603258419953
0.9548455102782278,116.8203689427808
0.9923286228832539,107.30038852527181
1.0312831606721837,98.48268071077466
1.0717668854455022,90.32754479178323
1.1138398264826193,82.79768569090882
1.1575643695533022,75.85595996491041
1.2030053494233226,69.46573088411047
1.2502301459914542,63.59110308824043
1.299308784200415,58.19494304653206
1.3503140378698726,53.239330788201706
1.4033215376054824,48.68913790583263
1.4584098829439835,44.51203444484382
1.5156607589006013,40.678260345836165
1.575159057091621,37.16044332367011
1.6369930016117014,33.933824396990524
1.7012542798525885,30.97583714543946
1.7680381784572046,28.265502375970105
1.8374437246107238,25.78332167668251
1.9095738328780953,23.51119028780445
1.9845354578058014,21.432303719409454
2.0624397525140905,19.531004054231794
2.143402233514853,17.79277359916006
2.227542951999554,16.20421439234291
2.314986671851158,14.752969061953843
2.405863054644063,13.42764602361276
2.5003068519063225,12.217750651650562
2.598458104929248,11.113624566483304
2.7004623524206774,10.106377981743016
2.806470846309834,9.18783028056106
2.916640776023701,8.350457387801109
3.031135501567576,7.587342649742127
3.150124795755327,6.892129626017672
3.2737850959485697,6.258976698276448
3.4022997656780634,5.682522580106432
3.5358593665351745,5.1578501750082255
3.6746619407366854,4.680451740259276
3.8189133047818515,4.246196583740856
3.968827354637162,3.851301185876402
4.1246263829013445,3.492301517214523
4.286541408420921,3.1660272390976982
4.4548125188449825,2.8695779676214745
4.629689226627261,2.6003013523525573
4.811430839003257,2.3557727985382386
5.000306842491082,2.1337755700184746
5.196597302486189,1.932283591884616
5.400593278542364,1.7494475762311785
5.612597255954967,1.5835802870952507
5.8329235942862,1.4331428301051856
6.06189899349756,1.2967321358184076
6.29986297838068,1.173070897381652
6.547168402004727,1.0609961179929372
6.804181968927091,0.9594475971506569
7.071284778942991,0.8674591598255221
7.348872892180382,0.7841506572896279
7.637357916378006,0.7087201823769785
7.937167617217536,0.6404335341473087
8.248746552614573,0.5786215326521442
8.572556731909314,0.5226773031458012
8.909078300934132,0.47205051407176973
9.258810253973934,0.4262421081308349
9.622271173675122,0.3848010947136571
9.999999999999984,0.34732737648534256
