k [1/Mpc],P(k) [Mpc^3]
0.0001,414.21880038309183
0.00010392556829367125,432.93596784975546
0.00010800523745162529,452.49588116385684
0.00011224505680853065,472.93609661725895
0.00011665131316981963,494.2957814642424
0.00012123054013376525,516.6158015805978
0.00012598952777950273,539.9387890518916
0.00013093533273536104,564.3092098801433
0.00013607528864243335,589.7734467805219
0.00014141701702890234,616.3798254321819
0.00014696843861124463,644.178720930499
0.00015273778503907136,673.222620363196
0.00015873361110102093,703.5661529049349
0.00016496480740980205,735.2662445526674
0.0001714406135851971,768.3821853843239
0.00017817063195457305,802.9757302081049
0.00018516484179121546,839.1111564512764
0.000192433614111598,876.8552212451692
0.00019998772705352857,916.2773820794274
0.0002078383818579757,957.4498665362007
0.00021599721947827182,1000.447765026582
0.0002244763378413224,1045.3491443709672
0.0002332883097864157,1092.234962741764
0.00024244620170823283,1141.1892972609876
0.0002519635929317015,1192.2993729869236
0.0002618545958474233,1245.655576716318
0.0002721338768375308,1301.3517007184457
0.0002828166780230032,1359.4848728309935
0.0002939188398646886,1420.1557380753086
0.0003054568246515432,1483.4684504690472
0.00031744774091091926,1549.5304907048824
0.00032990936877709396,1618.4530726822627
0.00034286018635565856,1690.3511459907922
0.00035631939712285854,1765.3435052565635
0.000370306958400514,1843.552759919599
0.00038484361094874304,1925.1048585576532
0.0003999509097203664,2010.1296142068825
0.00041565125582259895,2098.760723061539
0.00043196792973341727,2191.135776419606
0.0004489251258218605,2287.396328946117
0.0004665479882234472,2387.6872830108528
0.000484862648123908,2492.1573001019483
0.000503896262506515,2600.9586604692113
0.0005236770544204653,2714.2469641767116
0.0005442343548300266,2832.181456913444
0.0005655986461065005,2954.924089617365
0.0005878016072274912,3082.63978792532
0.0006108761607505036,3215.496347749833
0.0006348565216305217,3353.6635612758373
0.0006597782479539537,3497.3137834849686
0.0006856782936641739,3646.6203849985436
0.0007125950633568407,3801.7576351923467
0.0007405684692262436,3962.9009655074174
0.0007696399902471156,4130.225154332642
0.0007998527336796708,4303.905149975151
0.000831251498989063,4484.114377171018
0.0008638828442740447,4671.023739356659
0.000897795155303332,4864.802534798451
0.0009330387172620361,5065.616846321059
0.0009696657893145519,5273.629587816696
0.001007730682094461,5488.998503216323
0.0010472898382363582,5711.873857845577
0.0010884019160690055,5942.399774806453
0.0011311278765939214,6180.7112162523
0.001175531073878369,6426.933868323369
0.0012216773489967915,6681.1836620428185
0.0012696351276599736,6943.564318341003
0.0013194755216767058,7214.167665318975
0.0013712724343984,7493.070782085466
0.0014251026703029975,7780.334863205488
0.0014810460488806749,8076.004824126787
0.0015391855229902056,8380.105833471715
0.001599607301861487,8692.64367186683
0.0016624009789266115,9013.60173751829
0.0017276596646690358,9342.93876291603
0.0017954801246878305,9680.589247791107
0.0018659629231817451,10026.459194114903
0.001939212572065829,10380.426276950171
0.0020153376859417325,10742.337038125863
0.002094451143151469,11112.002864613378
0.002176670253153458,11489.202142134294
0.002262116930469025,11873.677748091859
0.002350917875457286,12265.136206736932
0.002443204762186487,12663.24326153551
0.0025391144336803463,13067.614617520809
0.002638789104828933,13477.823026844837
0.002742376573264949,13893.398335993454
0.0028500304385181063,14313.826631485534
0.0029619103297725525,14738.536845888415
0.0030781821425650787,15166.852739173644
0.003199018284775064,15598.030994314828
0.0033245979322709396,16031.364614474758
0.003455107294592217,16466.223653967063
0.0035907398910610534,16901.89949196495
0.0037316968377327513,17337.255149385142
0.0038781871456107214,17770.912003099453
0.0040304280305680515,18201.536212828567
0.00418864523543527,18627.988099916318
0.004353073364731888,19049.112516358597
0.00452395623253805,19463.69410722763
0.004701547224022131,19870.466624533456
0.004886109671160325,20268.061472446803
0.005077917243205399,20654.867637393865
0.005277254352483535,21029.18818187825
0.005484416576121017,21389.228856951377
0.005699711094326071,21733.105664169452
0.005923457145875801,22058.88182176545
0.006155986501483508,22364.489138699668
0.006397643955748424,22647.81543552742
0.0066487878384172625,22906.690306853197
0.0069097905457156435,23138.872963025897
0.007181039092537346,23342.120855027555
0.007462935686310132,23514.00994992727
0.007755898323389004,23652.081001616047
0.00806036140886134,23753.864024819206
0.008376776400682916,23816.784339491
0.008705612479099857,23838.37978756006
0.009047357242349292,23816.14163828268
0.00940251742967013,23747.634568013273
0.009771619672696168,23630.602080543442
0.010155211276345676,23462.779650886245
0.010553861030365234,23242.220774700578
0.010968160052731372,22967.15923435793
0.011398722666160517,22636.075106129243
0.011846187309026826,22247.96125749582
0.012311217482038896,21802.109675396532
0.012794502732078732,21298.43289383229
0.013296759674662111,20737.46552046462
0.013818733056536317,20120.33844085999
0.014361196859990781,19449.05239484882
0.014924955450518284,18726.43479338389
0.015510844769528393,17956.189700414896
0.016119733573881575,17143.029374005702
0.01675252472408214,16292.731061226841
0.017410156523040152,15411.828657086966
0.018093604107387147,14508.080218568897
0.01880388089340914,13589.951765085692
0.019542040079740527,12666.38850706886
0.02030917620904734,11747.681465614396
0.021106426791015535,10843.52044630136
0.021934973989050584,9964.119223941812
0.02279604637318978,9119.576777185914
0.023690920741826323,8318.384436696539
0.02462092401494623,7570.407204921307
0.02558743520168586,6883.085251696182
0.02659188744512693,6261.978174437568
0.027635770147361564,5711.765127193799
0.028720631177978267,5234.3578228546285
0.029848079169243254,4831.5228768892075
0.03101978590138095,4504.267521486672
0.03223748878149028,4250.4068949624
0.0335029934197723,4064.3139102113078
0.03481817630688963,3941.437617434058
0.03618498759642746,3877.0679078454154
0.037605453996581675,3866.975768460489
0.03908168177536263,3901.9992816752756
0.04061585988376978,3970.652587561919
0.04221026320156896,4055.577131955719
0.04386725591048496,4136.131637295337
0.0455892949998106,4188.934882785072
0.047378933909631396,4191.471004139156
0.049238826317067365,4124.699829587607
0.05117173007114603,3975.961974203538
0.05318051128214196,3741.956062198787
0.05526814857144601,3429.774220119945
0.057437737488265785,3055.9296182529597
0.0596924950997073,2649.609848351909
0.0620357647610427,2247.328181971953
0.06447102107323864,1882.805022137947
0.06700187503509585,1583.4151150254354
0.06963207939763882,1363.7146410350017
0.0723655342286965,1226.8892793004563
0.07520629269592405,1167.9557518207034
0.07815856707684081,1175.7660478982846
0.08122673500479707,1233.4134821741743
0.08441534596012978,1315.3858404971768
0.0877291280161335,1386.6658046712569
0.09117299484984914,1408.3366506193888
0.09475205302806537,1351.0768434128602
0.09847160957933764,1212.9594941251767
0.1023371798632519,1025.333385832576
0.10635449574860109,834.4045119381225
0.11052951411260206,679.3060543161014
0.1148684256737553,584.192226937593
0.1193776641714435,553.4065849429313
0.1240639159058831,571.8541751996912
0.12893412965257148,612.0229540203288
0.13399552696593373,636.252779919312
0.1392556128874462,611.7777727147844
0.14472218707411338,536.4510515209173
0.15040335536380234,440.87383715965785
0.15630754179458153,364.76765875721765
0.16244350109588662,328.60976315354964
0.16882033167003618,328.1172249976452
0.17544748908334581,340.90103168041486
0.1823348000868439,336.2558100274418
0.189492477187382,301.96480922269086
0.19693113379074215,254.81159615277204
0.20466179993919872,221.19708702794665
0.21269593866686892,210.141017363
0.22104546299710207,209.85367873521
0.22972275360711503,200.88625848925767
0.23874067718606454,178.33128184517463
0.2481126055137766,155.95206987200103
0.25785243528842716,144.6797482991573
0.26797460873256895,139.8132697773632
0.27849413500806414,130.51919324219813
0.28942661247167484,116.54235611673496
0.3007882518043098,105.92711512266044
0.31259590004822796,99.93339162376701
0.324867065587837,92.93375898351069
0.3376199441111335,84.12738074038757
0.35087344559027084,77.29296546670412
0.36464722232127456,72.03996659295079
0.37896169806447155,66.05079251931502
0.3938380983288488,60.427244882523475
0.4092984818452433,55.89599611109144
0.4253657732750382,51.36407032911396
0.44206379720285277,47.06952047879423
0.45941731346364734,43.20870669052858
0.47745205385661277,39.71086840337586
0.4961947603002895,36.518219722946405
0.5156732244854959,33.583610048861985
0.5359163290848509,30.86892250541025
0.556954090580013,28.351571081522646
0.5788177037701272,26.022175532491364
0.6015395880274836,23.871573983380095
0.6251534353689703,21.890196421836873
0.6496942604146115,20.068253587992366
0.6751984523072497,18.395749525670713
0.7017038286703824,16.861180738255506
0.7292496916841444,15.452824562064892
0.7578768863625915,14.160007075550089
0.7876278611187046,12.973019905785502
0.8185467307069019,11.883025472845404
0.850679341636415,10.882032928639493
0.8840733401525058,9.963028661438425
0.9187782428863317,9.11961230534293
0.9548455102782278,8.345845531233554
0.9923286228832539,7.636222899488318
1.0312831606721837,6.98564405671531
1.0717668854455022,6.389367015687128
1.1138398264826193,5.8429653246754825
1.1575643695533022,5.342357423666177
1.2030053494233226,4.883787929531494
1.2502301459914542,4.463802238358998
1.299308784200415,4.079223200676224
1.3503140378698726,3.727133798794824
1.4033215376054824,3.4048559968027376
1.4584098829439835,3.10992605266934
1.5156607589006013,2.840077705760083
1.575159057091621,2.593226954324045
1.6369930016117014,2.3674578704291167
1.7012542798525885,2.1610088672895986
1.7680381784572046,1.9722611972987827
1.8374437246107238,1.7997282633595901
1.9095738328780953,1.6420451782864194
1.9845354578058014,1.4979591092993845
2.0624397525140905,1.3663201927724116
2.143402233514853,1.2460728012440128
2.227542951999554,1.136248706949557
2.314986671851158,1.0359602642040038
2.405863054644063,0.9443938672058017
2.5003068519063225,0.860803924006806
2.598458104929248,0.784507415190765
2.7004623524206774,0.7148788589726326
2.806470846309834,0.6513453406765191
2.916640776023701,0.5933821711850078
3.031135501567576,0.5405089270487298
3.150124795755327,0.49228580063667243
3.2737850959485697,0.44831011365654255
3.4022997656780634,0.40821327944529745
3.5358593665351745,0.37165814344134934
3.6746619407366854,0.3383363641945781
3.8189133047818515,0.30796599902864075
3.968827354637162,0.2802892926221826
4.1246263829013445,0.2550706821969421
4.286541408420921,0.23209489112448442
4.4548125188449825,0.21116518681214733
4.629689226627261,0.19210181402273827
4.811430839003257,0.17474055781828873
5.000306842491082,0.15893140391292404
5.196597302486189,0.14453727339776964
5.400593278542364,0.13143300797832008
5.612597255954967,0.1195043746531869
5.8329235942862,0.108647125906259
6.06189899349756,0.09876613974989308
6.29986297838068,0.08977467743842452
6.547168402004727,0.08159368670909287
6.804181968927091,0.07415103889118918
7.071284778942991,0.06738092276473738
7.348872892180382,0.06122330208675035
7.637357916378006,0.05562341153039303
7.937167617217536,0.05053115141845065
8.248746552614573,0.04590073675001154
8.572556731909314,0.04169050250057849
8.909078300934132,0.037862539200416406
9.258810253973934,0.034382353149785404
9.622271173675122,0.031218608210155225
9.999999999999984,0.028343189601665573
