k [1/Mpc],P(k) [Mpc^3]
0.0001,316.92117413928077
0.00010392556829367125,329.3609399627404
0.00010800523745162529,342.28888129938076
0.00011224505680853065,355.72416037410943
0.00011665131316981963,369.6866778411541
0.00012123054013376525,384.1971059082609
0.00012598952777950273,399.27692464569367
0.00013093533273536104,414.9484510955304
0.00013607528864243335,431.23487482148715
0.00014141701702890234,448.1602971894251
0.00014696843861124463,465.74976704255243
0.00015273778503907136,484.02931340404325
0.00015873361110102093,503.0259818186564
0.00016496480740980205,522.7678752675438
0.0001714406135851971,543.2841900529617
0.00017817063195457305,564.6052554749725
0.00018516484179121546,586.762582241469
0.000192433614111598,609.7888926614952
0.00019998772705352857,633.7181758993942
0.0002078383818579757,658.5857617885748
0.00021599721947827182,684.4283941876436
0.0002244763378413224,711.2842531808174
0.0002332883097864157,739.1929528235949
0.00024244620170823283,768.1956082055545
0.0002519635929317015,798.3349404070211
0.0002618545958474233,829.6553685898787
0.0002721338768375308,862.2030468104593
0.0002828166780230032,896.0258991504147
0.0002939188398646886,931.1736839340913
0.0003054568246515432,967.6980784523372
0.00031744774091091926,1005.6527173084972
0.00032990936877709396,1045.0932915399228
0.00034286018635565856,1086.0776504396974
0.00035631939712285854,1128.6658913026963
0.000370306958400514,1172.9204247375385
0.00038484361094874304,1218.9060106170996
0.0003999509097203664,1266.6898676497783
0.00041565125582259895,1316.3417727197198
0.00043196792973341727,1367.9341269951276
0.0004489251258218605,1421.54208897618
0.0004665479882234472,1477.2436812325752
0.000484862648123908,1535.1198974039623
0.000503896262506515,1595.2547681870126
0.0005236770544204653,1657.7353342041276
0.0005442343548300266,1722.6518742814103
0.0005655986461065005,1790.098113064539
0.0005878016072274912,1860.1713631123419
0.0006108761607505036,1932.972567980909
0.0006348565216305217,2008.606239789165
0.0006597782479539537,2087.180697224038
0.0006856782936641739,2168.8082209422096
0.0007125950633568407,2253.6051391280803
0.0007405684692262436,2341.692048249537
0.0007696399902471156,2433.193946288902
0.0007998527336796708,2528.2403928953954
0.000831251498989063,2626.9655460873464
0.0008638828442740447,2729.5080508681845
0.000897795155303332,2836.0114609794355
0.0009330387172620361,2946.624401538682
0.0009696657893145519,3061.5007329582136
0.001007730682094461,3180.799694279374
0.0010472898382363582,3304.6857938208886
0.0010884019160690055,3433.3291813000137
0.0011311278765939214,3566.905718541503
0.001175531073878369,3705.5970530022996
0.0012216773489967915,3849.5909291083303
0.0012696351276599736,3999.0808168783446
0.0013194755216767058,4154.266348817875
0.0013712724343984,4315.353507422065
0.0014251026703029975,4482.554493454015
0.0014810460488806749,4656.088226551064
0.0015391855229902056,4836.17998065538
0.001599607301861487,5023.061650037383
0.0016624009789266115,5216.971922180939
0.0017276596646690358,5418.1555321597725
0.0017954801246878305,5626.864168558454
0.0018659629231817451,5843.356207533531
0.001939212572065829,6067.89670536929
0.0020153376859417325,6300.757765471137
0.002094451143151469,6542.217308162509
0.002176670253153458,6792.55997696981
0.002262116930469025,7052.076787004334
0.002350917875457286,7321.064494640242
0.002443204762186487,7599.826485309378
0.0025391144336803463,7888.670964792115
0.002638789104828933,8187.911618068217
0.002742376573264949,8497.867743388611
0.0028500304385181063,8818.86293264525
0.0029619103297725525,9151.226088158486
0.0030781821425650787,9495.288852049029
0.003199018284775064,9851.385531194053
0.0033245979322709396,10219.853896004885
0.003455107294592217,10601.032377082132
0.0035907398910610534,10995.26160628003
0.0037316968377327513,11402.882189655586
0.0038781871456107214,11824.233292085764
0.0040304280305680515,12259.653881469449
0.00418864523543527,12709.478314105663
0.004353073364731888,13174.037741058311
0.00452395623253805,13653.657358050767
0.004701547224022131,14148.65197994395
0.004886109671160325,14659.329481781358
0.005077917243205399,15185.984219977307
0.005277254352483535,15728.897553587814
0.005484416576121017,16288.337022411339
0.005699711094326071,16864.5487928388
0.005923457145875801,17457.761632491725
0.006155986501483508,18068.174520892924
0.006397643955748424,18695.954092963115
0.0066487878384172625,19341.24367988685
0.0069097905457156435,20004.165730790603
0.007181039092537346,20684.81598443818
0.007462935686310132,21383.21867726028
0.007755898323389004,22099.30145992078
0.00806036140886134,22832.945333154046
0.008376776400682916,23584.019846324496
0.008705612479099857,24352.364001643484
0.009047357242349292,25137.729055726195
0.00940251742967013,25939.72535571662
0.009771619672696168,26757.884973184064
0.010155211276345676,27591.69593213282
0.010553861030365234,28440.593955533022
0.010968160052731372,29303.913653443422
0.011398722666160517,30180.815463415325
0.011846187309026826,31070.34505650868
0.012311217482038896,31971.413673654337
0.012794502732078732,32882.78910218131
0.013296759674662111,33803.11893977028
0.013818733056536317,34730.89915695265
0.014361196859990781,35664.49281750316
0.014924955450518284,36602.09642717568
0.015510844769528393,37541.70756769984
0.016119733573881575,38481.17807607094
0.01675252472408214,39418.16892286737
0.017410156523040152,40350.17499389914
0.018093604107387147,41274.53265535646
0.01880388089340914,42188.38644562447
0.019542040079740527,43088.740767081574
0.02030917620904734,43972.44503720561
0.021106426791015535,44836.2079546338
0.021934973989050584,45676.63307033962
0.02279604637318978,46490.22929509418
0.023690920741826323,47273.43345184877
0.02462092401494623,48022.71195131452
0.02558743520168586,48734.6039182142
0.02659188744512693,49405.651217174185
0.027635770147361564,50032.41783871835
0.028720631177978267,50611.515391367364
0.029848079169243254,51140.18986560577
0.03101978590138095,51616.85001687368
0.03223748878149028,52040.10308892582
0.0335029934197723,52407.90224985115
0.03481817630688963,52717.85904951651
0.03618498759642746,52968.46013726956
0.037605453996581675,53160.44958956818
0.03908168177536263,53295.17538224909
0.04061585988376978,53374.48982970344
0.04221026320156896,53400.70637315942
0.04386725591048496,53376.379031215554
0.0455892949998106,53304.4892127367
0.047378933909631396,53188.22948070849
0.049238826317067365,53031.48526167993
0.05117173007114603,52839.03020226084
0.05318051128214196,52615.46322759669
0.05526814857144601,52364.02842033069
0.057437737488265785,52087.32828421263
0.0596924950997073,51785.60241907809
0.0620357647610427,51457.38359414029
0.06447102107323864,51099.02868307457
0.06700187503509585,50705.052752280695
0.06963207939763882,50268.59277066712
0.0723655342286965,49781.89000992358
0.07520629269592405,49236.57321330499
0.07815856707684081,48624.32970691459
0.08122673500479707,47937.301228392906
0.08441534596012978,47169.12886159401
0.0877291280161335,46315.9656045449
0.09117299484984914,45378.35014297682
0.09475205302806537,44363.06999413481
0.09847160957933764,43283.67290862175
0.1023371798632519,42160.180443706326
0.10635449574860109,41016.993425831344
0.11052951411260206,39878.60799550532
0.1148684256737553,38766.79693787717
0.1193776641714435,37697.34014953031
0.1240639159058831,36677.66110516516
0.12893412965257148,35704.84843186731
0.13399552696593373,34764.09970129281
0.1392556128874462,33829.41544927588
0.14472218707411338,32868.94587670166
0.15040335536380234,31854.52874221564
0.15630754179458153,30771.660093211278
0.16244350109588662,29629.862660657334
0.16882033167003618,28456.992497263156
0.17544748908334581,27282.41805285422
0.1823348000868439,26146.272776391103
0.189492477187382,25079.198119663983
0.19693113379074215,24092.743180453956
0.20466179993919872,23173.468846463504
0.21269593866686892,22284.372216500684
0.22104546299710207,21380.983873624235
0.22972275360711503,20437.81415356248
0.23874067718606454,19462.56913804553
0.2481126055137766,18489.89839246436
0.25785243528842716,17565.59965407539
0.26797460873256895,16718.763259427975
0.27849413500806414,15940.0815424816
0.28942661247167484,15192.591915452836
0.3007882518043098,14439.380824573596
0.31259590004822796,13672.11161960813
0.324867065587837,12918.17436128159
0.3376199441111335,12213.03378249217
0.35087344559027084,11565.46320828431
0.36464722232127456,10950.607329244569
0.37896169806447155,10341.753085568538
0.3938380983288488,9739.468949282085
0.4092984818452433,9168.106634472479
0.4253657732750382,8639.878739861979
0.44206379720285277,8140.163344289966
0.45941731346364734,7651.9401346958975
0.47745205385661277,7181.271755474064
0.4961947603002895,6741.168974584853
0.5156732244854959,6327.628696707442
0.5359163290848509,5930.135245253254
0.556954090580013,5551.803959269444
0.5788177037701272,5197.4876239826835
0.6015395880274836,4861.83010476364
0.6251534353689703,4542.661713012484
0.6496942604146115,4242.86890370256
0.6751984523072497,3960.4062741356233
0.7017038286703824,3693.8113534202703
0.7292496916841444,3443.112298513858
0.7578768863625915,3207.2106471363622
0.7876278611187046,2985.7675049418426
0.8185467307069019,2777.8171438133772
0.850679341636415,2582.9189380317503
0.8840733401525058,2400.046694712735
0.9187782428863317,2228.8742790778547
0.9548455102782278,2068.7838398509166
0.9923286228832539,1919.150575414619
1.0312831606721837,1779.3775650564999
1.0717668854455022,1648.8950970835813
1.1138398264826193,1527.161261381511
1.1575643695533022,1413.668590801357
1.2030053494233226,1307.9354366424373
1.2502301459914542,1209.500769256676
1.299308784200415,1117.9240336117584
1.3503140378698726,1032.7849337721364
1.4033215376054824,953.6821468770513
1.4584098829439835,880.2320636778152
1.5156607589006013,812.0708942358402
1.575159057091621,748.8544089530373
1.6369930016117014,690.2572527950957
1.7012542798525885,635.972243136631
1.7680381784572046,585.7096079012391
1.8374437246107238,539.1963074753445
1.9095738328780953,496.17538353266275
1.9845354578058014,456.4052498052178
2.0624397525140905,419.658988986093
2.143402233514853,385.7236232984288
2.227542951999554,354.39932098210943
2.314986671851158,325.49890164638214
2.405863054644063,298.8472361109905
2.5003068519063225,274.280603686927
2.598458104929248,251.64606890050553
2.7004623524206774,230.80077444257165
2.806470846309834,211.61134939599566
2.916640776023701,193.95354923691644
3.031135501567576,177.7117249470642
3.150124795755327,162.77829902659468
3.2737850959485697,149.05326407444647
3.4022997656780634,136.44368789267452
3.5358593665351745,124.86328256147247
3.6746619407366854,114.2319929049429
3.8189133047818515,104.47559004422439
3.968827354637162,95.52528704436952
4.1246263829013445,87.31736552270804
4.286541408420921,79.79281781832144
4.4548125188449825,72.89705877963367
4.629689226627261,66.57962670084707
4.811430839003257,60.79389541854572
5.000306842491082,55.496802775995306
5.196597302486189,50.64856432896615
5.400593278542364,46.21244870025733
5.612597255954967,42.15459833245765
5.8329235942862,38.44381930834895
6.06189899349756,35.051383355781056
6.29986297838068,31.950853749925113
6.547168402004727,29.117958877915694
6.804181968927091,26.530374215097478
7.071284778942991,24.167550812461506
7.348872892180382,22.01058334229907
7.637357916378006,20.04208644789346
7.937167617217536,18.246004351031242
8.248746552614573,16.607465976483784
8.572556731909314,15.11285657102463
8.909078300934132,13.749730305635598
9.258810253973934,12.506709616266642
9.622271173675122,11.373415110620808
9.999999999999984,10.340632048062457
