k [1/Mpc],P(k) [Mpc^3]
0.001,2829.268134176429
0.0010312831606721848,2911.3267809994513
0.0010635449574860113,2995.6647305401425
0.0010968160052731383,3082.3375674160557
0.0011311278765939214,3171.401823946504
0.0011665131316981963,3262.9148304019027
0.0012030053494233243,3356.9345173574293
0.001240639159058832,3453.5196658460713
0.0012794502732078738,3552.729755871056
0.0013194755216767062,3654.62438504209
0.0013607528864243335,3759.263713213506
0.001403321537605485,3866.7085503470134
0.0014472218707411348,3977.0199286895745
0.0014924955450518296,4090.2592501814884
0.0015391855229902058,4206.488415162078
0.0015873361110102092,4325.769135868742
0.0016369930016117025,4448.162872950315
0.0016882033167003635,4573.731315499716
0.0017410156523040162,4702.535957997256
0.0017954801246878311,4834.637727125273
0.001851648417912155,4970.097441585865
0.0019095738328780976,5108.975432621798
0.0019693113379074226,5251.3306186278605
0.0020309176209047358,5397.221226381345
0.00209445114315147,5546.704733533531
0.0021599721947827186,5699.83681090519
0.002227542951999558,5856.6717602439685
0.002297227536071153,6017.262723442187
0.0023690920741826337,6181.660689398122
0.0024432047621864884,6349.914493873827
0.0025196359293170154,6522.071259729277
0.002598458104929249,6698.175376291009
0.002679746087325691,6878.267911267819
0.0027635770147361595,7062.387460972592
0.0028500304385181076,7250.569471818912
0.002939188398646887,7442.845082295675
0.0030311355015675786,7639.24203197026
0.003125959000482281,7839.784362337226
0.0032237488781490294,8044.490920946658
0.0033245979322709418,8253.37604923359
0.0034286018635565864,8466.449629548804
0.0035358593665351795,8683.715190869583
0.0036464722232127486,8905.170196963334
0.0037605453996581717,9130.806699926577
0.0038781871456107235,9360.60909792462
0.003999509097203665,9594.553430986209
0.004124626382901352,9832.609061331716
0.004253657732750387,10074.736909769643
0.004386725591048499,10320.887316738103
0.004523956232538054,10571.002343289369
0.004665479882234474,10825.01513971314
0.00481143083900326,11082.847450917567
0.004961947603002905,11344.41119680799
0.005117173007114606,11609.60760438181
0.005277254352483538,11878.317979214584
0.005442343548300268,12150.407638572662
0.005612597255954973,12425.730776149396
0.005788177037701276,12704.142870023146
0.005969249509970734,12985.500383010156
0.0061559865014835105,13269.649470386465
0.006348565216305219,13556.391188678954
0.006547168402004739,13845.455341780309
0.006751984523072504,14136.547757370305
0.006963207939763887,14429.372245961638
0.007181039092537352,14723.669324272758
0.007405684692262439,15019.176640878475
0.007637357916378023,15315.608702838636
0.007876278611187058,15612.600875733375
0.008122673500479715,15909.744315597305
0.008376776400682922,16206.612464431188
0.008638828442740451,16502.795087078597
0.00890907830093414,16797.89171319055
0.009187782428863334,17091.486909389463
0.009475205302806548,17383.111825318938
0.009771619672696179,17672.22849652362
0.010077306820944614,17958.276266250756
0.010392556829367128,18240.66733697993
0.010717668854455029,18518.773813870048
0.011052951411260219,18791.946465661367
0.011398722666160524,19059.51607397719
0.011755310738783695,19320.78149953792
0.012123054013376525,19575.02214969024
0.012502301459914562,19821.50135001366
0.012893412965257155,20059.434209854313
0.013296759674662125,20288.003705730407
0.013712724343984005,20506.38376082817
0.014141701702890237,20713.714627972502
0.014584098829439866,20909.10258083368
0.015040335536380253,21091.652729449845
0.015510844769528404,21260.456669533898
0.015996073018614877,21414.57793646243
0.016496480740980212,21553.08840430138
0.017012542798525897,21675.06806696442
0.017544748908334597,21779.581591054735
0.018093604107387164,21865.712955066054
0.018659629231817465,21932.57822814927
0.019243361411159808,21979.311376499394
0.019845354578058035,22005.083370044053
0.020466179993919902,22009.120718539398
0.02110642679101555,21990.716884614943
0.021766702531534603,21949.238792491815
0.022447633784132247,21884.130332315868
0.023149866718511613,21794.948444326426
0.023874067718606475,21681.38710924658
0.02462092401494627,21543.23772742299
0.025391144336803482,21380.434051008153
0.026185459584742336,21193.147141977042
0.02700462352420683,20981.671413876542
0.02784941350080645,20746.437475066374
0.0287206311779783,20488.212261368506
0.02961910329772555,20207.93345160047
0.030545682465154333,19906.632865111053
0.03150124795755329,19585.731033481603
0.03248670655878377,19246.912164888403
0.033502993419772316,18891.879244047355
0.034551072945922204,18522.63805363605
0.03563193971228586,18141.550395385802
0.03674661940736691,17750.91737606265
0.037896169806447194,17353.18747703847
0.03908168177536267,16951.275300561414
0.04030428030568053,16547.9842211155
0.0415651255822599,16145.921359543781
0.04286541408420929,15747.560664240571
0.044206379720285335,15355.178790868162
0.045589294999810626,14970.927084069765
0.04701547224022133,14597.661569228969
0.04848626481239083,14238.467667254137
0.05000306842491095,13896.019086764625
0.05156732244854968,13571.37060963269
0.05318051128214202,13264.472293553246
0.05484416576121021,12975.10328998161
0.05655986461065008,12702.048346371937
0.058329235942862066,12443.721430216778
0.06015395880274839,12198.1982421787
0.062035764761042736,11962.66570657791
0.06397643955748429,11734.255666661868
0.06597782479539538,11509.412496511304
0.06804181968927103,11284.386373403115
0.07017038286703833,11054.928061828234
0.0723655342286966,10816.443711889502
0.07462935686310139,10564.298474954561
0.0769639990247116,10293.903556684203
0.07937167617217551,10001.952808430493
0.0818546730706903,9686.610159848511
0.08441534596012984,9348.436073472394
0.08705612479099864,8989.789480980318
0.08977951553033328,8614.20723445065
0.0925881025397396,8226.752665135818
0.095484551027823,7834.786174914863
0.0984716095793378,7446.6014382464
0.10155211276345685,7070.439003212349
0.1047289838236359,6714.711771618361
0.10800523745162532,6386.973482696803
0.11138398264826196,6093.315744949325
0.11486842567375537,5837.186415277751
0.11846187309026847,5618.70050782649
0.12216773489967929,5433.699939773151
0.1259895277795028,5274.765794315956
0.12993087842004167,5131.542113868192
0.13399552696593392,4992.628244702158
0.13818733056536328,4846.9972057483
0.14251026703029984,4685.410722787932
0.14696843861124465,4501.979468074511
0.15156607589006033,4295.38882026017
0.15630754179458173,4069.3024140396665
0.16119733573881587,3831.879095036474
0.16624009789266134,3594.569902474676
0.1714406135851972,3370.4329088083964
0.17680381784572083,3171.588896711893
0.1823348000868442,3005.623389917627
0.18803880893409158,2872.6699533201568
0.193921257206583,2765.496203303858
0.1999877270535286,2672.4203654107014
0.20624397525140933,2580.412366768139
0.21269593866686926,2477.6341692373794
0.21934973989050605,2357.2121197077818
0.22621169304690264,2220.8755834624562
0.23328830978641582,2077.983588183782
0.24058630546440665,1940.911706895946
0.24811260551377698,1820.6870854134193
0.2558743520168588,1723.088532565979
0.26387891048289364,1645.4484133000399
0.272133876837531,1578.1067229660932
0.28064708463098403,1509.5417001109213
0.2894266124716752,1431.9159139562148
0.29848079169243286,1345.4343745973179
0.30781821425650807,1257.371831994673
0.3174477409109194,1176.8450238745127
0.3273785095948577,1109.669644127281
0.337619944111134,1054.2330987033731
0.34818176306889687,1003.1336900171017
0.3590739891061057,949.6341294478018
0.3703069584005143,892.0545216015718
0.3818913304781856,834.53853141723
0.3938380983288491,782.8429771483013
0.4061585988376981,738.6941007777914
0.4188645235435272,698.863589964152
0.4319679297334174,659.0808288195146
0.44548125188449894,618.2844815996851
0.45941731346364806,579.054999780142
0.4737893390963148,543.9876459827321
0.48861096711603297,512.4236245895142
0.5038962625065154,482.05163036723343
0.51965973024862,451.96350852397995
0.5359163290848518,423.439991539728
0.5526814857144606,397.47160957868124
0.5699711094326078,373.3002681281777
0.5878016072274913,349.98262867011465
0.6061898993497579,327.74048460685304
0.6251534353689718,307.14039095124645
0.6447102107323875,287.9041706207796
0.6648787838417269,269.57883984817795
0.6856782936641743,252.3067979092273
0.7071284778943001,236.18818274183442
0.7292496916841449,221.06746315383867
0.7520629269592412,206.8233050425197
0.7755898323389006,193.41754752852722
0.7998527336796718,180.81713652749573
0.8248746552614591,168.9881236160561
0.8506793416364163,157.89586070391658
0.8772912801613366,147.50115663716394
0.9047357242349302,137.7616460566084
0.9330387172620369,128.63727362590896
0.9622271173675142,120.09040962850925
0.9923286228832553,112.08570057923444
1.02337179863252,104.58992940915797
1.0553861030365244,97.57188813491315
1.088401916069007,91.00259651877262
1.1224505680853074,84.85534827576085
1.1575643695533049,79.10491701898837
1.193776641714437,73.72741752696993
1.231121748203891,68.70024873381263
1.2696351276599742,64.00203790760118
1.3093533273536107,59.61258610361616
1.3503140378698746,55.5127783827591
1.3925561288744643,51.68446587662937
1.4361196859990797,48.11053625179203
1.4810460488806763,44.77488605070767
1.5273778503907147,41.662366679228555
1.5751590570916232,38.75873286534095
1.6244350109588674,36.05059350834525
1.6752524724082156,33.52536530973486
1.7276596646690365,31.17123023436633
1.7817063195457326,28.97709057735624
1.8374437246107282,26.932527517729348
1.8949247718738231,25.027762889816408
1.9542040079740548,23.253622848469682
2.0153376859417342,21.60150335275734
2.0783838185797587,20.063337244922117
2.1434022335148577,18.631561668713374
2.2104546299710224,17.29908970772223
2.2796046373189807,16.05928365480758
2.3509178754572897,14.905928428458878
2.424462017082331,13.833206392624827
2.5003068519063265,12.835673538080098
2.5785243528842763,11.90823686781846
2.659188744512696,11.04613072683366
2.742376573264951,10.24489732326217
2.828166780230034,9.500370858899593
2.9166407760237054,8.808659534964438
3.007882518043103,8.16612843604985
3.1019785901381005,7.569383410894429
3.199018284775068,7.015255897266071
3.299093687770943,6.500788606785611
3.4022997656780714,6.023222073894865
3.5087344559027147,5.579982095525496
3.6184987596427503,5.168667859085516
3.731696837732755,4.787040778123319
3.848436109487432,4.433014004981552
3.9688273546371646,4.104642582693395
4.09298481845244,3.8001139387873732
4.2210263201569,3.5177387186570885
4.353073364731889,3.2559435460118493
4.489251258218605,3.013263547027675
4.6296892266272724,2.7883351368418228
4.774520538566136,2.579889263765262
4.923882631706746,2.3867450839097764
5.077917243205407,2.207804039227845
5.236770544204659,2.0420443115350904
5.400593278542377,1.8885156456185381
5.569540905800139,1.7463345041101104
5.743773748826589,1.6146795339270117
5.923457145875808,1.4927873283209305
6.108761607505042,1.3799484662745924
6.299862978380695,1.2755037829132452
6.496942604146126,1.1788406142042493
6.700187503509591,1.0893897944861772
6.909790545715646,1.006622894570326
7.12595063356841,0.9300493840841794
7.3488728921803865,0.8592139810672138
7.578768863625928,0.7936941814141757
7.815856707684088,0.7330979678680507
8.060361408861358,0.6770619710919114
8.312514989890644,0.6252493951206287
8.572556731909335,0.5773477439091607
8.840733401525073,0.5330671006903341
9.117299484984931,0.49213854547938535
9.402517429670143,0.45431267918880175
9.69665789314553,0.41935824293723184
10.000000000000009,0.3870602834826788
